1.54056
5   0.000286779   4.4
5.02   0.000294919   4.4
5.04   0.000303411   4.4
5.06   0.000312275   4.4
5.08   0.000321533   4.4
5.1   0.000331209   4.4
5.12   0.000341328   4.4
5.14   0.000351917   4.4
5.16   0.000363007   4.4
5.18   0.000374629   4.4
5.2   0.000386818   4.4
5.22   0.000399611   4.4
5.24   0.000413049   4.4
5.26   0.0773154   4.4
5.28   0.079508   4.4
5.3   0.0817952   4.4
5.32   0.0841825   4.4
5.34   0.0866758   4.4
5.36   0.0892816   4.4
5.38   0.0920066   4.4
5.4   0.0948583   4.4
5.42   0.0978447   4.4
5.44   0.100974   4.4
5.46   0.104256   4.4
5.48   0.107701   4.4
5.5   0.11132   4.4
5.52   0.115124   4.4
5.54   0.119126   4.4
5.56   0.12334   4.4
5.58   0.127783   4.4
5.6   0.132469   4.4
5.62   0.137418   4.4
5.64   0.14265   4.4
5.66   0.148186   4.4
5.68   0.154051   4.4
5.7   0.160272   4.4
5.72   0.166876   4.4
5.74   0.173898   4.4
5.76   0.181372   4.4
5.78   0.189339   4.4
5.8   0.197842   4.4
5.82   0.206931   4.4
5.84   0.216662   4.4
5.86   0.227096   4.4
5.88   0.238302   4.4
5.9   0.25036   4.4
5.92   0.263356   4.4
5.94   0.277392   4.4
5.96   0.292582   4.4
5.98   0.309056   4.4
6   0.326963   4.4
6.02   0.346476   4.4
6.04   0.367792   4.4
6.06   0.391142   4.4
6.08   0.416796   4.4
6.1   0.445067   4.4
6.12   0.492204   4.4
6.14   0.527336   4.4
6.16   0.566445   4.4
6.18   0.610169   4.4
6.2   0.659282   4.4
6.22   0.714736   4.4
6.24   0.777717   4.4
6.26   0.849727   4.4
6.28   0.932724   4.4
6.3   1.02938   4.4
6.32   1.14359   4.4
6.34   1.28125   4.4
6.36   1.45108   4.4
6.38   1.66448   4.4
6.4   1.93225   4.4
6.42   2.25106   4.4
6.44   2.58329   4.4
6.46   2.91503   4.4
6.48   3.321   4.4
6.5   4.0931   4.4
6.52   4.87657   4.4
6.54   5.96972   4.4
6.56   7.54092   4.4
6.58   9.92938   4.4
6.6   13.8068   4.4
6.62   20.3442   4.51045
6.64   31.152   5.5814
6.66   47.4872   6.8911
6.68   67.0516   8.1885
6.7   77.6918   8.81429
6.72   67.8874   8.23938
6.74   48.396   6.95672
6.76   31.8321   5.64199
6.78   20.8091   4.5617
6.8   14.1323   4.4
6.82   10.1804   4.4
6.84   7.75701   4.4
6.86   6.1685   4.4
6.88   5.06053   4.4
6.9   4.25372   4.4
6.92   3.64938   4.4
6.94   3.18751   4.4
6.96   2.82911   4.4
6.98   2.54778   4.4
7   2.32519   4.4
7.02   2.14829   4.4
7.04   2.0077   4.4
7.06   1.89651   4.4
7.08   1.80964   4.4
7.1   1.7433   4.4
7.12   1.6947   4.4
7.14   1.66177   4.4
7.16   1.64307   4.4
7.18   1.63764   4.4
7.2   1.64494   4.4
7.22   1.66486   4.4
7.24   1.69766   4.4
7.26   1.74404   4.4
7.28   1.80518   4.4
7.3   1.88287   4.4
7.32   1.97967   4.4
7.34   2.09921   4.4
7.36   2.24663   4.4
7.38   2.42928   4.4
7.4   2.65802   4.4
7.42   2.94952   4.4
7.44   3.33157   4.4
7.46   3.85551   4.4
7.48   4.62228   4.4
7.5   5.82137   4.4
7.52   7.75535   4.4
7.54   10.782   4.4
7.56   14.9994   4.4
7.58   19.1748   4.4
7.6   20.0481   4.47751
7.62   17.0317   4.4
7.64   13.4049   4.4
7.66   10.9363   4.4
7.68   9.72861   4.4
7.7   9.48481   4.4
7.72   9.94286   4.4
7.74   10.9767   4.4
7.76   12.5984   4.4
7.78   14.9485   4.4
7.8   18.3328   4.4
7.82   23.3651   4.83374
7.84   31.293   5.59401
7.86   44.5002   6.67085
7.88   66.839   8.17551
7.9   102.925   10.1452
7.92   154.202   12.4178
7.94   205.336   14.3295
7.96   213.951   14.6271
7.98   170.071   13.0411
8   115.918   10.7665
8.02   75.2551   8.67497
8.04   49.3943   7.02811
8.06   33.9616   5.82766
8.08   24.7351   4.97344
8.1   18.9183   4.4
8.12   14.9861   4.4
8.14   12.1727   4.4
8.16   10.0056   4.4
8.18   8.40899   4.4
8.2   7.16292   4.4
8.22   6.17269   4.4
8.24   5.37333   4.4
8.26   4.71909   4.4
8.28   4.18083   4.4
8.3   3.72695   4.4
8.32   3.34312   4.4
8.34   3.01569   4.4
8.36   2.73415   4.4
8.38   2.49035   4.4
8.4   2.27797   4.4
8.42   2.09164   4.4
8.44   1.92736   4.4
8.46   1.7818   4.4
8.48   1.65223   4.4
8.5   1.53638   4.4
8.52   1.4324   4.4
8.54   1.33872   4.4
8.56   1.25403   4.4
8.58   1.17722   4.4
8.6   1.10735   4.4
8.62   1.05202   4.4
8.64   0.993955   4.4
8.66   0.940746   4.4
8.68   0.891875   4.4
8.7   0.846894   4.4
8.72   0.805411   4.4
8.74   0.767086   4.4
8.76   0.731618   4.4
8.78   0.698743   4.4
8.8   0.668227   4.4
8.82   0.639865   4.4
8.84   0.613473   4.4
8.86   0.588889   4.4
8.88   0.565969   4.4
8.9   0.544585   4.4
8.92   0.524621   4.4
8.94   0.505975   4.4
8.96   0.488557   4.4
8.98   0.472285   4.4
9   0.463758   4.4
9.02   0.449758   4.4
9.04   0.436721   4.4
9.06   0.424601   4.4
9.08   0.403502   4.4
9.1   0.393668   4.4
9.12   0.384639   4.4
9.14   0.376393   4.4
9.16   0.368919   4.4
9.18   0.36221   4.4
9.2   0.356267   4.4
9.22   0.351102   4.4
9.24   0.346733   4.4
9.26   0.343191   4.4
9.28   0.402528   4.4
9.3   0.402532   4.4
9.32   0.403623   4.4
9.34   0.405911   4.4
9.36   0.409537   4.4
9.38   0.414686   4.4
9.4   0.4216   4.4
9.42   0.430595   4.4
9.44   0.239033   4.4
9.46   0.258955   4.4
9.48   0.28253   4.4
9.5   0.310869   4.4
9.52   0.345564   4.4
9.54   0.38897   4.4
9.56   0.444748   4.4
9.58   0.519065   4.4
9.6   0.623459   4.4
9.62   0.78083   4.4
9.64   1.03445   4.4
9.66   1.45371   4.4
9.68   2.12087   4.4
9.7   3.0589   4.4
9.72   3.98474   4.4
9.74   4.14291   4.4
9.76   3.38728   4.4
9.78   2.47581   4.4
9.8   1.82687   4.4
9.82   1.4514   4.4
9.84   1.27284   4.4
9.86   1.19818   4.4
9.88   1.1732   4.4
9.9   1.20328   4.4
9.92   1.30894   4.4
9.94   1.51961   4.4
9.96   1.89707   4.4
9.98   2.5573   4.4
10   3.66991   4.4
10.02   5.38738   4.4
10.04   7.54727   4.4
10.06   8.97291   4.4
10.08   8.1978   4.4
10.1   6.12094   4.4
10.12   4.25921   4.4
10.14   3.01173   4.4
10.16   2.27244   4.4
10.18   1.86245   4.4
10.2   1.64444   4.4
10.22   1.53812   4.4
10.24   1.50404   4.4
10.26   1.52523   4.4
10.28   1.59656   4.4
10.3   1.7208   4.4
10.32   1.90918   4.4
10.34   2.18665   4.4
10.36   2.60412   4.4
10.38   3.25811   4.4
10.4   4.30713   4.4
10.42   5.95617   4.4
10.44   8.32352   4.4
10.46   10.9578   4.4
10.48   12.5646   4.4
10.5   12.8168   4.4
10.52   12.1313   4.4
10.54   10.54   4.4
10.56   9.0528   4.4
10.58   8.4518   4.4
10.6   8.92023   4.4
10.62   10.6456   4.4
10.64   14.172   4.4
10.66   20.5273   4.5307
10.68   30.9947   5.56729
10.7   45.9039   6.77524
10.72   60.5576   7.78188
10.74   62.5289   7.90752
10.76   49.447   7.03186
10.78   33.696   5.80482
10.8   21.9485   4.68492
10.82   14.493   4.4
10.84   10.0432   4.4
10.86   7.37783   4.4
10.88   5.69339   4.4
10.9   4.55321   4.4
10.92   3.73817   4.4
10.94   3.13441   4.4
10.96   2.67663   4.4
10.98   2.32413   4.4
11   2.05027   4.4
11.02   1.83735   4.4
11.04   1.67371   4.4
11.06   1.55219   4.4
11.08   1.48781   4.4
11.1   1.44482   4.4
11.12   1.44725   4.4
11.14   1.51145   4.4
11.16   1.67379   4.4
11.18   2.00388   4.4
11.2   2.60943   4.4
11.22   3.60193   4.4
11.24   4.96735   4.4
11.26   6.1162   4.4
11.28   5.92793   4.4
11.3   4.57926   4.4
11.32   3.19137   4.4
11.34   2.1997   4.4
11.36   1.57548   4.4
11.38   1.19787   4.4
11.4   0.979045   4.4
11.42   0.824493   4.4
11.44   0.721548   4.4
11.46   0.639644   4.4
11.48   0.576201   4.4
11.5   0.525802   4.4
11.52   0.484967   4.4
11.54   0.443325   4.4
11.56   0.415508   4.4
11.58   0.3921   4.4
11.6   0.37225   4.4
11.62   0.355324   4.4
11.64   0.340844   4.4
11.66   0.328445   4.4
11.68   0.317845   4.4
11.7   0.308823   4.4
11.72   0.301206   4.4
11.74   0.294862   4.4
11.76   0.289685   4.4
11.78   0.285596   4.4
11.8   0.294513   4.4
11.82   0.292782   4.4
11.84   0.292029   4.4
11.86   0.294781   4.4
11.88   0.296043   4.4
11.9   0.298301   4.4
11.92   0.30159   4.4
11.94   0.305959   4.4
11.96   0.304965   4.4
11.98   0.306395   4.4
12   0.314787   4.4
12.02   0.324636   4.4
12.04   0.336103   4.4
12.06   0.349387   4.4
12.08   0.364731   4.4
12.1   0.382436   4.4
12.12   0.402871   4.4
12.14   0.426495   4.4
12.16   0.453881   4.4
12.18   0.485756   4.4
12.2   0.523043   4.4
12.22   0.507845   4.4
12.24   0.561466   4.4
12.26   0.62527   4.4
12.28   0.702064   4.4
12.3   0.795705   4.4
12.32   0.911619   4.4
12.34   1.05762   4.4
12.36   1.24531   4.4
12.38   1.49284   4.4
12.4   1.83094   4.4
12.42   2.31733   4.4
12.44   3.06687   4.4
12.46   4.29669   4.4
12.48   6.35435   4.4
12.5   9.65019   4.4
12.52   14.291   4.4
12.54   18.8352   4.4
12.56   19.4911   4.41487
12.58   15.5783   4.4
12.6   10.8867   4.4
12.62   7.4422   4.4
12.64   5.33571   4.4
12.66   4.18752   4.4
12.68   3.64672   4.4
12.7   3.50551   4.4
12.72   3.70097   4.4
12.74   4.3023   4.4
12.76   5.51033   4.4
12.78   7.66743   4.4
12.8   11.0991   4.4
12.82   15.5828   4.4
12.84   19.0589   4.4
12.86   19.0322   4.4
12.88   16.8726   4.4
12.9   13.9581   4.4
12.92   10.3935   4.4
12.94   7.2547   4.4
12.96   5.08999   4.4
12.98   3.7421   4.4
13   2.93402   4.4
13.02   2.45554   4.4
13.04   2.17984   4.4
13.06   2.04268   4.4
13.08   2.01972   4.4
13.1   2.1153   4.4
13.12   2.36704   4.4
13.14   2.86632   4.4
13.16   3.78405   4.4
13.18   5.36787   4.4
13.2   7.83901   4.4
13.22   10.9582   4.4
13.24   13.0346   4.4
13.26   12.0815   4.4
13.28   9.52025   4.4
13.3   7.46871   4.4
13.32   6.20036   4.4
13.34   5.03124   4.4
13.36   4.07705   4.4
13.38   3.05464   4.4
13.4   2.72214   4.4
13.42   2.26646   4.4
13.44   2.38828   4.4
13.46   2.20547   4.4
13.48   2.08509   4.4
13.5   2.00544   4.4
13.52   1.95389   4.4
13.54   1.92278   4.4
13.56   1.90722   4.4
13.58   1.90393   4.4
13.6   1.91068   4.4
13.62   1.92625   4.4
13.64   1.94891   4.4
13.66   1.9782   4.4
13.68   2.01814   4.4
13.7   2.05939   4.4
13.72   2.10616   4.4
13.74   2.15833   4.4
13.76   2.21587   4.4
13.78   2.28334   4.4
13.8   2.35198   4.4
13.82   2.42634   4.4
13.84   2.50668   4.4
13.86   2.59329   4.4
13.88   2.68653   4.4
13.9   2.78682   4.4
13.92   2.89465   4.4
13.94   3.01059   4.4
13.96   3.13526   4.4
13.98   3.26939   4.4
14   3.4138   4.4
14.02   3.56943   4.4
14.04   3.71929   4.4
14.06   3.90112   4.4
14.08   4.09776   4.4
14.1   4.31076   4.4
14.12   4.54189   4.4
14.14   4.79318   4.4
14.16   5.06696   4.4
14.18   5.36592   4.4
14.2   5.69317   4.4
14.22   6.05234   4.4
14.24   6.44764   4.4
14.26   6.90239   4.4
14.28   7.38621   4.4
14.3   7.92392   4.4
14.32   8.50929   4.4
14.34   9.1816   4.4
14.36   9.93129   4.4
14.38   10.7865   4.4
14.4   11.7584   4.4
14.42   12.8692   4.4
14.44   14.1467   4.4
14.46   15.6262   4.4
14.48   17.355   4.4
14.5   19.4748   4.41302
14.52   21.8916   4.67885
14.54   24.7936   4.97931
14.56   28.3201   5.32166
14.58   32.6649   5.71532
14.6   38.1792   6.17893
14.62   45.1152   6.71679
14.64   54.164   7.35962
14.66   66.3421   8.14506
14.68   83.4837   9.13694
14.7   109.146   10.4473
14.72   149.614   12.2317
14.74   215.364   14.6753
14.76   319.554   17.8761
14.78   468.436   21.6434
14.8   631.652   25.1327
14.82   739.795   27.1992
14.84   761.637   27.5978
14.86   710.132   26.6483
14.88   660.704   25.7042
14.9   642.922   25.3559
14.92   578.388   24.0497
14.94   441.309   21.0074
14.96   305.353   17.4743
14.98   207.49   14.4045
15   144.867   12.0361
15.02   106.312   10.3108
15.04   82.3091   9.07243
15.06   66.7346   8.16912
15.08   56.2012   7.49675
15.1   48.8073   6.98622
15.12   42.904   6.55011
15.14   37.4113   6.11648
15.16   32.7648   5.72406
15.18   29.4457   5.42639
15.2   27.1958   5.21496
15.22   25.0278   5.00278
15.24   22.197   4.71136
15.26   19.303   4.4
15.28   16.9132   4.4
15.3   15.0708   4.4
15.32   13.6545   4.4
15.34   12.5401   4.4
15.36   11.6384   4.4
15.38   10.8939   4.4
15.4   10.2746   4.4
15.42   9.75969   4.4
15.44   9.33719   4.4
15.46   8.99931   4.4
15.48   8.74225   4.4
15.5   8.56592   4.4
15.52   8.47447   4.4
15.54   8.47751   4.4
15.56   8.59288   4.4
15.58   8.85304   4.4
15.6   9.32033   4.4
15.62   10.1184   4.4
15.64   11.478   4.4
15.66   13.7625   4.4
15.68   17.3973   4.4
15.7   22.4549   4.73866
15.72   27.3814   5.23272
15.74   28.4127   5.33036
15.76   25.3152   5.03143
15.78   22.0092   4.69139
15.8   20.5347   4.53153
15.82   21.2856   4.61364
15.84   24.5883   4.95866
15.86   31.3704   5.60093
15.88   43.2776   6.57857
15.9   61.9895   7.87334
15.92   86.2691   9.28811
15.94   104.605   10.2277
15.96   101.002   10.05
15.98   84.3542   9.18446
16   72.9766   8.54263
16.02   73.6786   8.58362
16.04   86.2178   9.28536
16.06   103.224   10.1599
16.08   108.574   10.4199
16.1   100.295   10.0148
16.12   94.2465   9.70806
16.14   94.5178   9.72203
16.16   88.8387   9.42543
16.18   70.5173   8.39746
16.2   50.2289   7.08724
16.22   35.0679   5.92181
16.24   25.2604   5.02597
16.26   19.2704   4.4
16.28   15.3571   4.4
16.3   12.9151   4.4
16.32   11.9828   4.4
16.34   12.1123   4.4
16.36   13.333   4.4
16.38   15.2754   4.4
16.4   16.001   4.4
16.42   14.6635   4.4
16.44   11.6071   4.4
16.46   8.68973   4.4
16.48   6.60634   4.4
16.5   5.2645   4.4
16.52   4.43355   4.4
16.54   3.92976   4.4
16.56   3.67289   4.4
16.58   3.61501   4.4
16.6   3.81701   4.4
16.62   4.32233   4.4
16.64   5.05958   4.4
16.66   5.53787   4.4
16.68   5.103   4.4
16.7   4.10761   4.4
16.72   3.20667   4.4
16.74   2.58577   4.4
16.76   2.2072   4.4
16.78   2.00174   4.4
16.8   1.91647   4.4
16.82   1.90666   4.4
16.84   1.89242   4.4
16.86   1.78694   4.4
16.88   1.63174   4.4
16.9   1.50506   4.4
16.92   1.42847   4.4
16.94   1.39866   4.4
16.96   1.41123   4.4
16.98   1.46927   4.4
17   1.58993   4.4
17.02   1.81368   4.4
17.04   2.21322   4.4
17.06   2.88783   4.4
17.08   3.90986   4.4
17.1   5.11394   4.4
17.12   5.71886   4.4
17.14   5.07868   4.4
17.16   3.91229   4.4
17.18   2.96212   4.4
17.2   2.36816   4.4
17.22   2.03992   4.4
17.24   1.92374   4.4
17.26   1.94342   4.4
17.28   2.07867   4.4
17.3   2.33823   4.4
17.32   2.74918   4.4
17.34   3.34931   4.4
17.36   4.25519   4.4
17.38   5.76704   4.4
17.4   8.2315   4.4
17.42   11.6058   4.4
17.44   14.8565   4.4
17.46   15.2263   4.4
17.48   12.8177   4.4
17.5   10.5206   4.4
17.52   9.72921   4.4
17.54   10.4453   4.4
17.56   11.9246   4.4
17.58   12.6022   4.4
17.6   10.7786   4.4
17.62   7.80115   4.4
17.64   5.40042   4.4
17.66   3.80888   4.4
17.68   2.84215   4.4
17.7   2.27208   4.4
17.72   1.93403   4.4
17.74   1.73419   4.4
17.76   1.62678   4.4
17.78   1.59234   4.4
17.8   1.62657   4.4
17.82   1.73803   4.4
17.84   1.95261   4.4
17.86   2.31892   4.4
17.88   2.94252   4.4
17.9   3.95696   4.4
17.92   5.53629   4.4
17.94   7.68643   4.4
17.96   10.0226   4.4
17.98   12.6085   4.4
18   15.2263   4.4
18.02   15.5089   4.4
18.04   12.4423   4.4
18.06   8.63543   4.4
18.08   5.75988   4.4
18.1   3.91839   4.4
18.12   2.81496   4.4
18.14   2.1426   4.4
18.16   1.70583   4.4
18.18   1.40211   4.4
18.2   1.18378   4.4
18.22   1.02304   4.4
18.24   0.902386   4.4
18.26   0.810368   4.4
18.28   0.739401   4.4
18.3   0.693456   4.4
18.32   0.650917   4.4
18.34   0.619163   4.4
18.36   0.596231   4.4
18.38   0.581278   4.4
18.4   0.574017   4.4
18.42   0.574831   4.4
18.44   0.585125   4.4
18.46   0.608264   4.4
18.48   0.651418   4.4
18.5   0.727858   4.4
18.52   0.857315   4.4
18.54   1.05913   4.4
18.56   1.3221   4.4
18.58   1.52006   4.4
18.6   1.4767   4.4
18.62   1.26134   4.4
18.64   1.06267   4.4
18.66   0.940676   4.4
18.68   0.88688   4.4
18.7   0.881617   4.4
18.72   0.90939   4.4
18.74   1.03616   4.4
18.76   1.13451   4.4
18.78   1.23811   4.4
18.8   1.37104   4.4
18.82   1.54265   4.4
18.84   1.76305   4.4
18.86   2.05184   4.4
18.88   2.43907   4.4
18.9   2.97716   4.4
18.92   3.76685   4.4
18.94   5.02372   4.4
18.96   7.08906   4.4
18.98   10.5402   4.4
19   15.9803   4.4
19.02   23.2805   4.82499
19.04   29.3931   5.42154
19.06   28.5919   5.34714
19.08   21.8628   4.67577
19.1   14.9676   4.4
19.12   10.1159   4.4
19.14   7.15723   4.4
19.16   5.47745   4.4
19.18   4.55907   4.4
19.2   4.0866   4.4
19.22   3.9072   4.4
19.24   3.96896   4.4
19.26   4.29553   4.4
19.28   4.97857   4.4
19.3   6.24964   4.4
19.32   8.49683   4.4
19.34   12.2088   4.4
19.36   17.609   4.4
19.38   23.3398   4.83112
19.4   25.158   5.01577
19.42   21.6363   4.65148
19.44   17.1999   4.4
19.46   14.5442   4.4
19.48   13.4179   4.4
19.5   12.8111   4.4
19.52   11.742   4.4
19.54   9.60501   4.4
19.56   7.3259   4.4
19.58   5.61379   4.4
19.6   4.55482   4.4
19.62   3.9922   4.4
19.64   3.7921   4.4
19.66   3.90834   4.4
19.68   4.40545   4.4
19.7   5.42099   4.4
19.72   7.13074   4.4
19.74   9.45365   4.4
19.76   11.3191   4.4
19.78   10.9126   4.4
19.8   8.74137   4.4
19.82   6.62582   4.4
19.84   5.20325   4.4
19.86   4.40769   4.4
19.88   4.04503   4.4
19.9   3.95849   4.4
19.92   4.05831   4.4
19.94   4.30822   4.4
19.96   4.70606   4.4
19.98   5.27326   4.4
20   6.06008   4.4
20.02   7.13277   4.4
20.04   8.63106   4.4
20.06   10.8064   4.4
20.08   14.1639   4.4
20.1   19.6699   4.43508
20.12   28.9319   5.37884
20.14   44.0181   6.63461
20.16   65.9199   8.1191
20.18   89.5046   9.46069
20.2   97.5963   9.87908
20.22   81.6353   9.03522
20.24   58.2337   7.6311
20.26   40.1149   6.33363
20.28   29.0416   5.38902
20.3   23.3898   4.8363
20.32   21.7345   4.66203
20.34   23.5753   4.85545
20.36   28.6544   5.35298
20.38   35.1562   5.92927
20.4   37.6896   6.13918
20.42   33.5329   5.79076
20.44   26.7117   5.16834
20.46   19.8239   4.4524
20.48   14.2135   4.4
20.5   10.3968   4.4
20.52   8.00261   4.4
20.54   6.50128   4.4
20.56   5.59307   4.4
20.58   5.05265   4.4
20.6   4.80064   4.4
20.62   4.84324   4.4
20.64   5.24448   4.4
20.66   6.07106   4.4
20.68   7.21053   4.4
20.7   7.96703   4.4
20.72   7.52268   4.4
20.74   6.4228   4.4
20.76   5.55064   4.4
20.78   5.1593   4.4
20.8   5.2566   4.4
20.82   5.85882   4.4
20.84   7.05102   4.4
20.86   8.90411   4.4
20.88   11.4289   4.4
20.9   14.1595   4.4
20.92   16.1993   4.4
20.94   18.3231   4.4
20.96   22.5843   4.75229
20.98   29.3173   5.41454
21   35.0756   5.92246
21.02   34.2492   5.85228
21.04   27.875   5.27968
21.06   20.9968   4.58222
21.08   16.4017   4.4
21.1   14.2755   4.4
21.12   13.2481   4.4
21.14   11.5186   4.4
21.16   9.15548   4.4
21.18   7.1782   4.4
21.2   5.83826   4.4
21.22   5.03319   4.4
21.24   5.02324   4.4
21.26   4.84464   4.4
21.28   4.84543   4.4
21.3   4.99054   4.4
21.32   5.2872   4.4
21.34   5.76908   4.4
21.36   6.53407   4.4
21.38   7.66054   4.4
21.4   9.72742   4.4
21.42   12.1016   4.4
21.44   14.9554   4.4
21.46   17.5876   4.4
21.48   19.7293   4.44176
21.5   23.4006   4.83742
21.52   30.7391   5.54429
21.54   43.7751   6.61627
21.56   63.9543   7.99715
21.58   89.9392   9.48363
21.6   110.536   10.5136
21.62   106.058   10.2985
21.64   81.2454   9.01362
21.66   55.795   7.4696
21.68   37.5414   6.1271
21.7   26.2753   5.12594
21.72   19.9058   4.46159
21.74   16.5658   4.4
21.76   14.8281   4.4
21.78   13.3949   4.4
21.8   11.5745   4.4
21.82   9.76327   4.4
21.84   8.39043   4.4
21.86   7.43888   4.4
21.88   6.86164   4.4
21.9   6.51943   4.4
21.92   6.31837   4.4
21.94   6.18757   4.4
21.96   6.03519   4.4
21.98   5.95737   4.4
22   5.97592   4.4
22.02   6.09536   4.4
22.04   6.32814   4.4
22.06   6.70925   4.4
22.08   7.32721   4.4
22.1   8.26479   4.4
22.12   9.62342   4.4
22.14   11.2327   4.4
22.16   12.2871   4.4
22.18   12.1631   4.4
22.2   11.4909   4.4
22.22   10.877   4.4
22.24   10.5239   4.4
22.26   10.551   4.4
22.28   10.9029   4.4
22.3   11.5103   4.4
22.32   12.3341   4.4
22.34   13.3661   4.4
22.36   14.7492   4.4
22.38   16.2745   4.4
22.4   18.114   4.4
22.42   20.3817   4.51461
22.44   23.1515   4.8116
22.46   26.7336   5.17045
22.48   31.0978   5.57654
22.5   36.7964   6.066
22.52   44.3902   6.6626
22.54   54.9734   7.4144
22.56   70.7319   8.41023
22.58   95.3928   9.76693
22.6   135.837   11.6549
22.62   201.151   14.1828
22.64   297.738   17.2551
22.66   413.537   20.3356
22.68   486.616   22.0594
22.7   447.834   21.1621
22.72   351.211   18.7406
22.74   276.676   16.6336
22.76   248.507   15.7641
22.78   269.431   16.4144
22.8   338.004   18.3849
22.82   435.443   20.8673
22.84   494.543   22.2383
22.86   457.497   21.3892
22.88   381.851   19.541
22.9   322.905   17.9695
22.92   266.117   16.3131
22.94   199.401   14.121
22.96   141.641   11.9013
22.98   101.274   10.0635
23   75.2542   8.67492
23.02   58.7977   7.66796
23.04   48.2519   6.94636
23.06   41.2937   6.42601
23.08   36.7183   6.05956
23.1   34.1182   5.84108
23.12   33.5298   5.79049
23.14   35.1173   5.92598
23.16   38.8974   6.23677
23.18   43.2878   6.57935
23.2   46.3544   6.8084
23.22   49.1723   7.0123
23.24   50.8541   7.1312
23.26   47.2788   6.87596
23.28   40.884   6.39406
23.3   37.0411   6.08614
23.32   37.9062   6.1568
23.34   43.7725   6.61608
23.36   52.8328   7.26862
23.38   58.0439   7.61865
23.4   52.5178   7.24692
23.42   41.8745   6.47105
23.44   33.3578   5.77562
23.46   28.7791   5.36462
23.48   27.8234   5.27479
23.5   29.7101   5.4507
23.52   32.7309   5.72109
23.54   33.8037   5.8141
23.56   31.73   5.63294
23.58   29.8803   5.46629
23.6   30.4029   5.51388
23.62   34.1547   5.8442
23.64   41.7626   6.4624
23.66   53.2443   7.29687
23.68   65.7603   8.10927
23.7   72.9011   8.53822
23.72   76.9543   8.77236
23.74   87.9263   9.3769
23.76   111.225   10.5463
23.78   143.022   11.9592
23.8   163.073   12.77
23.82   155.399   12.4659
23.84   140.766   11.8645
23.86   141.77   11.9067
23.88   161.867   12.7227
23.9   187.256   13.6841
23.92   191.202   13.8276
23.94   170.62   13.0622
23.96   152.707   12.3575
23.98   152.073   12.3318
24   162.763   12.7579
24.02   159.166   12.6161
24.04   129.266   11.3695
24.06   94.2787   9.70972
24.08   68.5269   8.2781
24.1   53.1393   7.28967
24.12   45.5422   6.74849
24.14   42.0708   6.4862
24.16   39.6154   6.29408
24.18   36.1534   6.01277
24.2   33.8672   5.81955
24.22   34.7589   5.89567
24.24   40.0925   6.33187
24.26   50.5008   7.10639
24.28   65.0486   8.06527
24.3   75.3852   8.68246
24.32   72.8219   8.53358
24.34   63.5388   7.97112
24.36   58.3889   7.64127
24.38   59.118   7.68882
24.4   59.625   7.72172
24.42   54.7374   7.39847
24.44   48.9435   6.99597
24.46   46.8045   6.84138
24.48   46.4282   6.81383
24.5   43.216   6.57389
24.52   38.2267   6.18278
24.54   35.9258   5.99381
24.56   38.5243   6.20679
24.58   47.0898   6.8622
24.6   61.5586   7.84593
24.62   76.8062   8.76391
24.64   79.7429   8.92989
24.66   66.8992   8.17919
24.68   50.3732   7.09741
24.7   37.6752   6.13801
24.72   29.8197   5.46074
24.74   25.6851   5.06805
24.76   24.0056   4.89955
24.78   23.9931   4.89828
24.8   25.3242   5.03231
24.82   27.9896   5.29052
24.84   32.079   5.66383
24.86   37.8536   6.15252
24.88   46.3635   6.80908
24.9   60.4003   7.77176
24.92   84.5717   9.19629
24.94   123.932   11.1325
24.96   180.102   13.4202
24.98   236.909   15.3918
25   249.497   15.7955
25.02   207.62   14.409
25.04   157.481   12.5491
25.06   126.574   11.2505
25.08   118.712   10.8955
25.1   130.509   11.424
25.12   151.133   12.2936
25.14   158.934   12.6069
25.16   149.092   12.2103
25.18   141.026   11.8754
25.2   144.808   12.0336
25.22   164.025   12.8072
25.24   193.932   13.926
25.26   204.144   14.2879
25.28   171.893   13.1108
25.3   124.06   11.1382
25.32   85.6812   9.25642
25.34   60.5149   7.77913
25.36   45.3214   6.73212
25.38   36.3202   6.02662
25.4   30.8288   5.55237
25.42   27.6005   5.25362
25.44   25.8326   5.08258
25.46   25.2709   5.02702
25.48   25.8505   5.08434
25.5   28.1381   5.30453
25.52   32.5494   5.70521
25.54   39.5406   6.28813
25.56   48.3638   6.95441
25.58   55.3366   7.43886
25.6   58.4428   7.64479
25.62   63.6264   7.97661
25.64   77.7792   8.81925
25.66   105.789   10.2854
25.68   149.836   12.2408
25.7   201.277   14.1872
25.72   234.686   15.3195
25.74   226.226   15.0408
25.76   179.48   13.397
25.78   127.807   11.3052
25.8   91.2039   9.55008
25.82   70.2767   8.38312
25.84   60.2849   7.76433
25.86   55.5678   7.45438
25.88   53.2223   7.29536
25.9   55.5999   7.45653
25.92   65.2334   8.07672
25.94   81.9853   9.05457
25.96   98.1498   9.90706
25.98   98.1716   9.90816
26   83.4403   9.13457
26.02   68.9679   8.30469
26.04   58.8412   7.6708
26.06   50.6834   7.11923
26.08   45.8174   6.76886
26.1   46.4822   6.81779
26.12   52.5191   7.24701
26.14   60.1508   7.7557
26.16   60.7676   7.79536
26.18   52.5229   7.24727
26.2   43.2588   6.57714
26.22   38.028   6.16669
26.24   38.1238   6.17445
26.26   44.2884   6.65495
26.28   57.6148   7.59044
26.3   78.1867   8.84232
26.32   99.4407   9.972
26.34   103.796   10.188
26.36   87.1783   9.33693
26.38   67.472   8.21413
26.4   55.3686   7.44101
26.42   52.7903   7.26569
26.44   59.722   7.728
26.46   75.3811   8.68223
26.48   95.277   9.76099
26.5   110.882   10.5301
26.52   110.281   10.5015
26.54   92.5321   9.61936
26.56   71.6676   8.46567
26.58   53.8916   7.34109
26.6   40.0258   6.32659
26.62   30.1637   5.49215
26.64   23.8687   4.88556
26.66   20.1071   4.48409
26.68   18.0149   4.4
26.7   16.8905   4.4
26.72   16.1163   4.4
26.74   16.3408   4.4
26.76   17.9885   4.4
26.78   21.5888   4.64637
26.8   27.2568   5.2208
26.82   33.1903   5.7611
26.84   34.486   5.87247
26.86   29.8415   5.46274
26.88   24.0206   4.90109
26.9   20.0036   4.47253
26.92   18.2225   4.4
26.94   18.3644   4.4
26.96   20.4448   4.52159
26.98   24.7608   4.97602
27   31.5803   5.61963
27.02   39.8104   6.30955
27.04   45.1694   6.72082
27.06   45.5832   6.75153
27.08   46.2161   6.79824
27.1   50.7735   7.12555
27.12   57.3954   7.57598
27.14   62.5401   7.90823
27.16   69.3875   8.32992
27.18   83.5219   9.13903
27.2   104.754   10.2349
27.22   129.855   11.3954
27.24   152.748   12.3591
27.26   167.133   12.928
27.28   179.86   13.4112
27.3   184.806   13.5943
27.32   165.988   12.8836
27.34   139.307   11.8029
27.36   123.426   11.1097
27.38   119.286   10.9218
27.4   120.377   10.9717
27.42   115.011   10.7243
27.44   95.0794   9.75087
27.46   70.3354   8.38662
27.48   50.9574   7.13845
27.5   38.7805   6.2274
27.52   32.1509   5.67017
27.54   28.4032   5.32947
27.56   24.9311   4.9931
27.58   20.6418   4.54332
27.6   16.5565   4.4
27.62   13.4484   4.4
27.64   11.2803   4.4
27.66   9.87556   4.4
27.68   12.2113   4.4
27.7   11.7678   4.4
27.72   11.4369   4.4
27.74   10.9705   4.4
27.76   10.4727   4.4
27.78   10.1423   4.4
27.8   10.0587   4.4
27.82   10.2129   4.4
27.84   10.8087   4.4
27.86   11.8681   4.4
27.88   16.4734   4.4
27.9   17.7389   4.4
27.92   17.8133   4.4
27.94   17.2184   4.4
27.96   17.1295   4.4
27.98   17.9775   4.4
28   19.6138   4.42875
28.02   24.5383   4.95361
28.04   24.6797   4.96786
28.06   23.3767   4.83495
28.08   22.0861   4.69958
28.1   21.4354   4.62984
28.12   21.3994   4.62595
28.14   21.8411   4.67345
28.16   22.6684   4.76114
28.18   23.8849   4.88722
28.2   25.6904   5.06856
28.22   28.0857   5.29959
28.24   31.3036   5.59496
28.26   35.3056   5.94185
28.28   39.4557   6.28138
28.3   43.9507   6.62953
28.32   50.8216   7.12892
28.34   61.3779   7.83441
28.36   73.1353   8.55192
28.38   77.7351   8.81675
28.4   72.0906   8.49062
28.42   65.262   8.07849
28.44   61.6509   7.85181
28.46   63.2285   7.95164
28.48   69.6906   8.34809
28.5   80.2051   8.95573
28.52   90.0399   9.48894
28.54   100.58   10.029
28.56   111.275   10.5487
28.58   113.564   10.6566
28.6   106.597   10.3246
28.62   100.942   10.047
28.64   103.145   10.156
28.66   110.945   10.533
28.68   120.48   10.9763
28.7   125.717   11.2123
28.72   130.53   11.425
28.74   142.711   11.9462
28.76   165.069   12.8479
28.78   195.418   13.9792
28.8   225.634   15.0211
28.82   237.926   15.4249
28.84   225.682   15.0227
28.86   209.833   14.4856
28.88   204.216   14.2904
28.9   210.828   14.5199
28.92   228.526   15.1171
28.94   256.856   16.0267
28.96   297.099   17.2366
28.98   353.112   18.7913
29   433.011   20.8089
29.02   553.362   23.5237
29.04   746.497   27.3221
29.06   1066.75   32.6611
29.08   1585.23   39.8149
29.1   2346.28   48.4384
29.12   3202.14   56.5875
29.14   3569.86   59.7483
29.16   3088.22   55.5717
29.18   2328.44   48.2539
29.2   1772.18   42.0972
29.22   1517.07   38.9496
29.24   1555.66   39.4418
29.26   1887.06   43.4403
29.28   2506.88   50.0688
29.3   3267.2   57.1595
29.32   3626.61   60.2213
29.34   3183.87   56.4258
29.36   2450.06   49.4981
29.38   1921.7   43.8373
29.4   1720.33   41.4769
29.42   1858   43.1046
29.44   2337.86   48.3514
29.46   3085.01   55.5429
29.48   3681.1   60.6721
29.5   3462.28   58.8411
29.52   2618.74   51.1736
29.54   1800.38   42.4308
29.56   1229.63   35.0661
29.58   879.836   29.662
29.6   680.073   26.0782
29.62   573.145   23.9405
29.64   523.266   22.875
29.66   502.577   22.4182
29.68   477.626   21.8547
29.7   436.203   20.8855
29.72   399.308   19.9827
29.74   385.451   19.6329
29.76   403.741   20.0933
29.78   464.962   21.563
29.8   586.847   24.2249
29.82   789.537   28.0987
29.84   1067.92   32.679
29.86   1319.86   36.3299
29.88   1393.14   37.3248
29.9   1369.06   37.0008
29.92   1390   37.2828
29.94   1362.03   36.9056
29.96   1158.59   34.038
29.98   910.442   30.1735
30   756.75   27.5091
30.02   732.915   27.0724
30.04   837.196   28.9343
30.06   1032.68   32.1354
30.08   1173.06   34.2499
30.1   1067.4   32.6711
30.12   801.818   28.3164
30.14   559.994   23.6642
30.16   393.677   19.8413
30.18   288.744   16.9925
30.2   222.012   14.9001
30.22   178.315   13.3534
30.24   148.845   12.2002
30.26   128.306   11.3272
30.28   113.05   10.6325
30.3   100.935   10.0466
30.32   91.3846   9.55953
30.34   84.7444   9.20567
30.36   80.9751   8.99862
30.38   79.1616   8.89728
30.4   76.9782   8.77372
30.42   73.7803   8.58955
30.44   72.826   8.53382
30.46   76.2815   8.73393
30.48   93.9395   9.69224
30.5   101.445   10.072
30.52   98.0108   9.90004
30.54   84.6571   9.20093
30.56   71.1804   8.43685
30.58   61.5435   7.84497
30.6   52.4285   7.24075
30.62   49.4347   7.03098
30.64   48.7   6.97854
30.66   50.0595   7.07527
30.68   53.332   7.30287
30.7   56.9799   7.5485
30.72   57.0166   7.55093
30.74   56.4133   7.51088
30.76   51.1222   7.14998
30.78   44.1951   6.64794
30.8   41.9598   6.47764
30.82   40.8962   6.39501
30.84   40.6356   6.37461
30.86   41.0585   6.40769
30.88   42.1609   6.49314
30.9   43.9766   6.63148
30.92   46.1764   6.79532
30.94   47.5785   6.89772
30.96   44.1438   6.64408
30.98   43.5817   6.60164
31   47.7984   6.91364
31.02   48.6722   6.97655
31.04   50.2559   7.08914
31.06   52.3801   7.23741
31.08   54.6677   7.39376
31.1   56.8127   7.53742
31.12   59.157   7.69136
31.14   62.1575   7.884
31.16   66.0447   8.12679
31.18   71.3264   8.44549
31.2   82.9108   9.10554
31.22   93.3802   9.66334
31.24   108.068   10.3956
31.26   127.186   11.2777
31.28   148.066   12.1682
31.3   169.618   13.0238
31.32   196.86   14.0307
31.34   227.079   15.0691
31.36   240.754   15.5162
31.38   226.258   15.0419
31.4   200.555   14.1617
31.42   181.656   13.478
31.44   172.72   13.1423
31.46   170.159   13.0445
31.48   171.419   13.0927
31.5   177.31   13.3158
31.52   187.894   13.7074
31.54   202.033   14.2138
31.56   216.457   14.7125
31.58   233.168   15.2698
31.6   253.844   15.9325
31.62   280.195   16.739
31.64   313.518   17.7064
31.66   355.455   18.8535
31.68   408.598   20.2138
31.7   476.651   21.8323
31.72   565.076   23.7713
31.74   681.544   26.1064
31.76   836.45   28.9214
31.78   1048.45   32.3798
31.8   1364.12   36.9339
31.82   1877.06   43.325
31.84   2740.26   52.3475
31.86   4152.63   64.4409
31.88   6247.14   79.0389
31.9   8703.68   93.2935
31.92   10000   100
31.94   8731.37   93.4418
31.96   6280.33   79.2485
31.98   4220.8   64.9677
32   2866.82   53.5427
32.02   2063.75   45.4285
32.04   1615.63   40.195
32.06   1383.18   37.1911
32.08   1294.25   35.9757
32.1   1332.57   36.5044
32.12   1527.96   39.0892
32.14   1948.6   44.143
32.16   2673.11   51.7021
32.18   3683.6   60.6927
32.2   4549.8   67.4522
32.22   4442.75   66.654
32.24   3483.8   59.0237
32.26   2501.55   50.0155
32.28   1818.43   42.643
32.3   1414.18   37.6056
32.32   1211.38   34.8049
32.34   1153.39   33.9616
32.36   1220.65   34.9378
32.38   1438.08   37.9221
32.4   1874.9   43.3001
32.42   2618.54   51.1717
32.44   3681.29   60.6736
32.46   4706.03   68.6005
32.48   4821.53   69.4372
32.5   3943.28   62.7956
32.52   2964.46   54.4469
32.54   2355.8   48.5366
32.56   2188.57   46.7821
32.58   2459.29   49.5913
32.6   3157.09   56.188
32.62   4126.31   64.2364
32.64   4714.65   68.6633
32.66   4198.19   64.7935
32.68   3078.81   55.487
32.7   2094.47   45.7654
32.72   1433.7   37.8642
32.74   1028.72   32.0736
32.76   789.944   28.1059
32.78   644.916   25.3952
32.8   552.236   23.4997
32.82   494.778   22.2436
32.84   454.386   21.3163
32.86   416.85   20.4169
32.88   376.626   19.4069
32.9   347.74   18.6478
32.92   335.655   18.3209
32.94   328.383   18.1213
32.96   307.685   17.5409
32.98   280.892   16.7598
33   264.595   16.2664
33.02   262.258   16.1944
33.04   267.45   16.3539
33.06   272.697   16.5135
33.08   286.359   16.9221
33.1   320.629   17.9061
33.12   367.418   19.1681
33.14   399.444   19.9861
33.16   404.484   20.1118
33.18   372.174   19.2918
33.2   305.458   17.4774
33.22   238.553   15.4452
33.24   189.758   13.7753
33.26   158.736   12.5991
33.28   140.139   11.838
33.3   129.023   11.3588
33.32   121.996   11.0452
33.34   117.793   10.8533
33.36   115.829   10.7624
33.38   105.626   10.2775
33.4   106.903   10.3394
33.42   111.754   10.5714
33.44   121.575   11.0261
33.46   136.561   11.6859
33.48   152.877   12.3644
33.5   163.639   12.7921
33.52   169.404   13.0155
33.54   175.433   13.2451
33.56   183.526   13.5472
33.58   186.606   13.6604
33.6   178.076   13.3445
33.62   166.701   12.9113
33.64   161.621   12.713
33.66   163.183   12.7743
33.68   169.129   13.005
33.7   173.878   13.1863
33.72   186.963   13.6735
33.74   209.842   14.4859
33.76   245.743   15.6762
33.78   289.857   17.0252
33.8   320.327   17.8977
33.82   319.891   17.8855
33.84   309.755   17.5999
33.86   312.144   17.6676
33.88   331.689   18.2123
33.9   363.817   19.074
33.92   402.2   20.0549
33.94   450.752   21.2309
33.96   514.033   22.6723
33.98   605.5   24.6069
34   729.322   27.006
34.02   908.319   30.1383
34.04   1184.62   34.4183
34.06   1632.12   40.3995
34.08   2369.95   48.6822
34.1   3544.35   59.5345
34.12   5228.66   72.3095
34.14   7035.24   83.8764
34.16   8005.19   89.4717
34.18   7646.15   87.4422
34.2   6463.69   80.3971
34.22   5481.63   74.038
34.24   5052.66   71.082
34.26   4657.23   68.2439
34.28   3755.55   61.2825
34.3   2700.92   51.9704
34.32   1887.36   43.4438
34.34   1357.83   36.8487
34.36   1039.22   32.2369
34.38   846.628   29.0969
34.4   710.493   26.6551
34.42   600.7   24.5092
34.44   512.941   22.6482
34.46   442.613   21.0384
34.48   383.745   19.5894
34.5   335.475   18.316
34.52   297.337   17.2435
34.54   270.858   16.4578
34.56   259.667   16.1142
34.58   266.459   16.3236
34.6   289.552   17.0162
34.62   312.792   17.6859
34.64   302.788   17.4008
34.66   260.084   16.1271
34.68   219.208   14.8057
34.7   196.958   14.0342
34.72   194.303   13.9392
34.74   202.549   14.232
34.76   199.671   14.1305
34.78   172.92   13.1499
34.8   139.341   11.8043
34.82   112.788   10.6202
34.84   94.2797   9.70978
34.86   82.0023   9.05551
34.88   73.7236   8.58624
34.9   67.9957   8.24595
34.92   63.951   7.99694
34.94   61.4033   7.83603
34.96   60.4645   7.77589
34.98   61.595   7.84825
35   65.2327   8.07668
35.02   70.284   8.38355
35.04   73.4908   8.57268
35.06   73.4894   8.5726
35.08   74.6221   8.63841
35.1   78.9299   8.88425
35.12   82.0966   9.06072
35.14   79.594   8.92155
35.16   76.221   8.73046
35.18   76.2035   8.72946
35.2   81.0851   9.00472
35.22   86.0791   9.27788
35.24   82.3001   9.07194
35.26   71.5975   8.46153
35.28   61.7212   7.85628
35.3   55.6596   7.46054
35.32   53.4753   7.31268
35.34   52.0351   7.21353
35.36   47.9145   6.92203
35.38   42.6848   6.53336
35.4   38.9346   6.23976
35.42   36.9811   6.08121
35.44   36.4152   6.0345
35.46   37.1475   6.09487
35.48   38.8429   6.23241
35.5   41.0361   6.40594
35.52   43.3306   6.5826
35.54   46.6578   6.83065
35.56   50.05   7.0746
35.58   51.3908   7.16873
35.6   52.5329   7.24796
35.62   53.319   7.30199
35.64   60.0817   7.75124
35.66   78.9752   8.8868
35.68   107.817   10.3835
35.7   140.328   11.846
35.72   154.822   12.4428
35.74   153.231   12.3786
35.76   143.711   11.988
35.78   122.059   11.048
35.8   93.6833   9.67901
35.82   71.8339   8.47549
35.84   59.2198   7.69544
35.86   51.5392   7.17908
35.88   44.2295   6.65053
35.9   37.6049   6.13228
35.92   33.2634   5.76744
35.94   31.4947   5.61202
35.96   32.0836   5.66424
35.98   34.9658   5.91319
36   39.353   6.2732
36.02   44.3779   6.66167
36.04   50.6985   7.12028
36.06   59.0959   7.68739
36.08   65.8177   8.11281
36.1   66.4417   8.15118
36.12   65.1654   8.07251
36.14   68.2932   8.26397
36.16   78.7685   8.87516
36.18   99.4167   9.97079
36.2   134.141   11.5819
36.22   187.029   13.6759
36.24   263.306   16.2267
36.26   359.396   18.9577
36.28   432.123   20.7876
36.3   418.189   20.4497
36.32   341.447   18.4783
36.34   268.93   16.3991
36.36   218.018   14.7654
36.38   184.262   13.5743
36.4   172.192   13.1222
36.42   185.662   13.6258
36.44   221.739   14.8909
36.46   261.439   16.1691
36.48   270.054   16.4333
36.5   252.394   15.8869
36.52   246.942   15.7144
36.54   274.966   16.5821
36.56   340.311   18.4475
36.58   426.049   20.6409
36.6   476.363   21.8257
36.62   442.561   21.0371
36.64   344.515   18.5611
36.66   244.314   15.6306
36.68   169.855   13.0328
36.7   120.788   10.9904
36.72   90.7811   9.52791
36.74   73.0539   8.54716
36.76   62.9378   7.93334
36.78   57.8537   7.60616
36.8   56.2458   7.49972
36.82   57.4808   7.58161
36.84   59.9003   7.73953
36.86   66.6132   8.16169
36.88   81.3645   9.02023
36.9   106.965   10.3424
36.92   140.975   11.8733
36.94   163.966   12.8049
36.96   153.879   12.4048
36.98   125.311   11.1942
37   99.8046   9.99022
37.02   83.4144   9.13315
37.04   77.3302   8.79376
37.06   78.9176   8.88356
37.08   83.5246   9.13918
37.1   91.6136   9.5715
37.12   103.222   10.1598
37.14   107.791   10.3822
37.16   96.548   9.82588
37.18   77.2453   8.78893
37.2   61.4847   7.84122
37.22   52.5963   7.25233
37.24   49.7529   7.05357
37.26   52.3209   7.23332
37.28   60.9828   7.80915
37.3   74.1815   8.61287
37.32   93.7033   9.68005
37.34   122.832   11.083
37.36   159.331   12.6226
37.38   188.351   13.7241
37.4   201.308   14.1883
37.42   197.763   14.0628
37.44   170.863   13.0715
37.46   131.595   11.4715
37.48   98.3444   9.91688
37.5   76.516   8.74734
37.52   63.8791   7.99244
37.54   58.0167   7.61687
37.56   57.2157   7.5641
37.58   61.4875   7.8414
37.6   71.8126   8.47423
37.62   89.9745   9.48549
37.64   117.444   10.8372
37.66   153.895   12.4054
37.68   191.488   13.8379
37.7   220.871   14.8617
37.72   239.325   15.4701
37.74   226.438   15.0478
37.76   181.135   13.4586
37.78   136.286   11.6742
37.8   107.117   10.3497
37.82   93.8066   9.68538
37.84   94.1081   9.70093
37.86   105.45   10.2689
37.88   124.965   11.1788
37.9   150.017   12.2481
37.92   177.552   13.3248
37.94   191.689   13.8452
37.96   181.036   13.4549
37.98   152.154   12.3351
38   121.619   11.0281
38.02   100.275   10.0138
38.04   88.8146   9.42415
38.06   85.1673   9.22861
38.08   86.9625   9.32537
38.1   94.3228   9.71199
38.12   107.61   10.3735
38.14   129.432   11.3768
38.16   165.525   12.8657
38.18   226.199   15.0399
38.2   325.783   18.0494
38.22   476.294   21.8242
38.24   664.005   25.7683
38.26   793.695   28.1726
38.28   744.935   27.2935
38.3   593.29   24.3575
38.32   471.039   21.7034
38.34   421.576   20.5323
38.36   437.533   20.9173
38.38   475.321   21.8019
38.4   463.184   21.5217
38.42   399.461   19.9865
38.44   345.266   18.5813
38.46   328.524   18.1252
38.48   352.538   18.776
38.5   425.591   20.6298
38.52   556.746   23.5955
38.54   724.387   26.9144
38.56   853.929   29.2221
38.58   847.923   29.1191
38.6   707.092   26.5912
38.62   560.234   23.6693
38.64   482.334   21.9621
38.66   485.672   22.038
38.68   572.943   23.9362
38.7   745.687   27.3073
38.72   955.128   30.9051
38.74   1035.16   32.1739
38.76   889.283   29.8208
38.78   668.764   25.8605
38.8   494.297   22.2328
38.82   379.96   19.4926
38.84   310.1   17.6097
38.86   273.201   16.5288
38.88   260.57   16.1422
38.9   271.26   16.47
38.92   300.778   17.343
38.94   335.254   18.31
38.96   376.989   19.4162
38.98   427.653   20.6798
39   452.365   21.2689
39.02   418.613   20.46
39.04   351.091   18.7374
39.06   298.721   17.2835
39.08   278.655   16.693
39.1   289.426   17.0125
39.12   318.512   17.8469
39.14   345.473   18.5869
39.16   366.214   19.1367
39.18   380.288   19.501
39.2   376.717   19.4092
39.22   347.763   18.6484
39.24   317.047   17.8058
39.26   316.554   17.792
39.28   347.34   18.6371
39.3   375.234   19.371
39.32   378.624   19.4583
39.34   386.61   19.6624
39.36   398.971   19.9743
39.38   370.091   19.2378
39.4   293.585   17.1343
39.42   213.202   14.6015
39.44   154.94   12.4475
39.46   118.275   10.8754
39.48   96.7859   9.83798
39.5   85.6493   9.25469
39.52   79.1284   8.89542
39.54   77.0923   8.78022
39.56   79.1892   8.89883
39.58   86.279   9.28865
39.6   101.371   10.0683
39.62   120.287   10.9676
39.64   136.546   11.6853
39.66   149.082   12.2099
39.68   169.421   13.0162
39.7   208.381   14.4354
39.72   266.354   16.3204
39.74   315.545   17.7636
39.76   313.672   17.7108
39.78   271.697   16.4832
39.8   232.264   15.2402
39.82   209.553   14.4759
39.84   205.069   14.3202
39.86   222.358   14.9117
39.88   261.834   16.1813
39.9   304.484   17.4495
39.92   324.701   18.0195
39.94   329.55   18.1535
39.96   338.603   18.4012
39.98   364.667   19.0963
40   394.673   19.8664
40.02   392.23   19.8048
40.04   343.166   18.5247
40.06   273.011   16.523
40.08   212.702   14.5843
40.1   177.669   13.3293
40.12   167.85   12.9557
40.14   175.422   13.2447
40.16   186.462   13.6551
40.18   189.683   13.7726
40.2   177.301   13.3154
40.22   151.41   12.3049
40.24   127.277   11.2817
40.26   115.012   10.7244
40.28   115.325   10.739
40.3   124.152   11.1424
40.32   131.545   11.4693
40.34   130.889   11.4407
40.36   128.62   11.3411
40.38   127.055   11.2719
40.4   125.597   11.207
40.42   128.244   11.3245
40.44   137.22   11.7141
40.46   145.811   12.0752
40.48   146.593   12.1076
40.5   144.112   12.0046
40.52   149.703   12.2353
40.54   168.28   12.9723
40.56   194.167   13.9344
40.58   208.079   14.4249
40.6   202.438   14.2281
40.62   196.065   14.0023
40.64   197.664   14.0593
40.66   201.854   14.2075
40.68   207.234   14.3956
40.7   214.101   14.6322
40.72   223.246   14.9414
40.74   242.535   15.5736
40.76   278.773   16.6965
40.78   340.058   18.4407
40.8   434.584   20.8467
40.82   560.199   23.6685
40.84   680.25   26.0816
40.86   757.007   27.5138
40.88   843.794   29.0481
40.9   1005.99   31.7173
40.92   1254.92   35.4249
40.94   1603.49   40.0435
40.96   2007.17   44.8014
40.98   2278.37   47.7323
41   2459.96   49.598
41.02   2843.03   53.3201
41.04   3429.71   58.5637
41.06   3781.3   61.4923
41.08   3539.53   59.494
41.1   2901.52   53.8658
41.12   2275.08   47.6978
41.14   1853.27   43.0497
41.16   1617.3   40.2157
41.18   1462.08   38.2371
41.2   1303.41   36.1027
41.22   1148.6   33.8909
41.24   1052.68   32.445
41.26   974.556   31.2179
41.28   878.523   29.6399
41.3   821.733   28.6659
41.32   813.062   28.5142
41.34   771.569   27.7771
41.36   660.499   25.7002
41.38   543.81   23.3197
41.4   474.655   21.7866
41.42   470.378   21.6882
41.44   529.649   23.0141
41.46   625.812   25.0162
41.48   678.117   26.0407
41.5   622.622   24.9524
41.52   516.793   22.7331
41.54   442.213   21.0289
41.56   427.406   20.6738
41.58   463.965   21.5399
41.6   507.977   22.5383
41.62   511.59   22.6184
41.64   494.303   22.2329
41.66   461.875   21.4913
41.68   383.803   19.5909
41.7   288.149   16.9749
41.72   213.135   14.5991
41.74   164.594   12.8294
41.76   136.504   11.6835
41.78   121.64   11.029
41.8   112.896   10.6253
41.82   105.195   10.2564
41.84   100.16   10.008
41.86   100.432   10.0216
41.88   104.64   10.2294
41.9   108.996   10.4401
41.92   113.202   10.6396
41.94   115.307   10.7381
41.96   109.103   10.4453
41.98   96.5655   9.82678
42   84.0516   9.16796
42.02   74.802   8.64881
42.04   70.6808   8.40719
42.06   71.2492   8.44092
42.08   73.5974   8.57889
42.1   76.0803   8.7224
42.12   80.0082   8.94473
42.14   87.4615   9.35208
42.16   97.8916   9.89402
42.18   112.919   10.6264
42.2   139.264   11.801
42.22   183.044   13.5294
42.24   235.368   15.3417
42.26   256.74   16.0231
42.28   220.202   14.8392
42.3   162.482   12.7468
42.32   116.776   10.8063
42.34   87.9973   9.38069
42.36   72.5968   8.52038
42.38   66.5253   8.15631
42.4   66.7345   8.16912
42.42   70.9224   8.42154
42.44   75.9846   8.71692
42.46   81.1257   9.00698
42.48   91.3689   9.55871
42.5   108.566   10.4195
42.52   131.65   11.4739
42.54   144.623   12.0259
42.56   143.809   11.992
42.58   129.106   11.3625
42.6   109.604   10.4692
42.62   98.5651   9.92799
42.64   102.861   10.1421
42.66   123.249   11.1017
42.68   155.439   12.4675
42.7   179.703   13.4053
42.72   172.849   13.1472
42.74   148.23   12.175
42.76   124.32   11.1499
42.78   106.178   10.3043
42.8   96.8522   9.84135
42.82   92.721   9.62917
42.84   87.1779   9.33691
42.86   78.2515   8.84599
42.88   71.1114   8.43276
42.9   69.6592   8.34621
42.92   74.7291   8.6446
42.94   87.1349   9.33461
42.96   111.641   10.566
42.98   153.476   12.3885
43   214.335   14.6402
43.02   281.045   16.7644
43.04   324.255   18.0071
43.06   319.369   17.8709
43.08   285.545   16.8981
43.1   247.098   15.7193
43.12   204.31   14.2937
43.14   169.111   13.0043
43.16   144.318   12.0132
43.18   119.475   10.9304
43.2   95.6658   9.78089
43.22   79.3382   8.9072
43.24   71.2861   8.44311
43.26   68.7172   8.28958
43.28   67.1468   8.19431
43.3   66.5023   8.1549
43.32   71.3664   8.44786
43.34   85.5256   9.248
43.36   110.855   10.5288
43.38   143.365   11.9735
43.4   165.026   12.8462
43.42   157.1   12.534
43.44   132.657   11.5177
43.46   115.744   10.7585
43.48   116.282   10.7834
43.5   137.133   11.7104
43.52   179.058   13.3813
43.54   238.859   15.4551
43.56   290.63   17.0479
43.58   282.895   16.8195
43.6   224.241   14.9747
43.62   167.537   12.9436
43.64   134.834   11.6118
43.66   125.558   11.2053
43.68   129.615   11.3849
43.7   128.577   11.3392
43.72   110.95   10.5333
43.74   87.0098   9.3279
43.76   67.6147   8.22282
43.78   53.7048   7.32836
43.8   44.081   6.63935
43.82   38.4357   6.19965
43.84   36.2584   6.0215
43.86   37.3002   6.10739
43.88   42.3003   6.50387
43.9   50.7566   7.12436
43.92   62.4468   7.90233
43.94   74.8042   8.64894
43.96   85.0752   9.22362
43.98   95.779   9.78667
44   105.56   10.2742
44.02   109.607   10.4693
44.04   103.619   10.1794
44.06   86.2711   9.28822
44.08   67.0049   8.18565
44.1   52.6366   7.25511
44.12   43.0685   6.56266
44.14   37.136   6.09393
44.16   34.3376   5.85983
44.18   35.2034   5.93325
44.2   39.4735   6.28279
44.22   47.7328   6.90889
44.24   58.4578   7.64577
44.26   65.0527   8.06553
44.28   62.0365   7.87633
44.3   56.0907   7.48937
44.32   54.8485   7.40598
44.34   61.323   7.8309
44.36   76.8166   8.76451
44.38   100.372   10.0186
44.4   123.857   11.1291
44.42   135.94   11.6593
44.44   134.157   11.5826
44.46   132.218   11.4986
44.48   136.444   11.6809
44.5   133.139   11.5386
44.52   114.738   10.7116
44.54   90.8653   9.53233
44.56   71.7663   8.4715
44.58   60.76   7.79487
44.6   55.3823   7.44193
44.62   52.6753   7.25778
44.64   52.6974   7.2593
44.66   56.4005   7.51003
44.68   64.2399   8.01498
44.7   74.301   8.6198
44.72   79.3725   8.90913
44.74   76.5148   8.74728
44.76   72.2574   8.50044
44.78   70.8544   8.41751
44.8   74.0222   8.60362
44.82   84.1837   9.17517
44.84   99.7719   9.98859
44.86   110.424   10.5083
44.88   109.286   10.454
44.9   103.905   10.1934
44.92   105.075   10.2506
44.94   118.087   10.8668
44.96   145.859   12.0772
44.98   189.375   13.7613
45   247.913   15.7453
45.02   310.196   17.6124
45.04   333.929   18.2737
45.06   294.959   17.1744
45.08   238.087   15.4301
45.1   202.204   14.2198
45.12   192.602   13.8781
45.14   195.1   13.9678
45.16   193.563   13.9127
45.18   194.831   13.9582
45.2   210.102   14.4949
45.22   237.064   15.3969
45.24   274.224   16.5597
45.26   333.433   18.2601
45.28   420.012   20.4942
45.3   517.298   22.7442
45.32   554.492   23.5477
45.34   489.765   22.1306
45.36   399.073   19.9768
45.38   349.247   18.6882
45.4   346.971   18.6272
45.42   363.23   19.0586
45.44   361.052   19.0014
45.46   338.202   18.3903
45.48   311.321   17.6443
45.5   287.57   16.9579
45.52   276.394   16.6251
45.54   285.325   16.8916
45.56   322.018   17.9449
45.58   386.418   19.6575
45.6   459.426   21.4342
45.62   535.354   23.1377
45.64   605.483   24.6066
45.66   591.084   24.3122
45.68   476.516   21.8292
45.7   352.896   18.7855
45.72   269.724   16.4233
45.74   231.291   15.2083
45.76   232.284   15.2408
45.78   267.781   16.364
45.8   326.294   18.0636
45.82   369.478   19.2218
45.84   361.47   19.0124
45.86   339.196   18.4173
45.88   344.865   18.5705
45.9   370.006   19.2355
45.92   369.384   19.2194
45.94   319.99   17.8883
45.96   257.941   16.0606
45.98   211.917   14.5574
46   182.269   13.5007
46.02   164.333   12.8193
46.04   149.489   12.2266
46.06   131.914   11.4854
46.08   117.035   10.8183
46.1   109.358   10.4574
46.12   109.536   10.4659
46.14   117.417   10.8359
46.16   132.968   11.5312
46.18   156.69   12.5176
46.2   191.753   13.8475
46.22   247.076   15.7186
46.24   333.221   18.2543
46.26   464.529   21.5529
46.28   661.106   25.712
46.3   898.535   29.9756
46.32   1023.95   31.9992
46.34   895.994   29.9332
46.36   651.459   25.5237
46.38   446.58   21.1324
46.4   313.52   17.7065
46.42   237.658   15.4162
46.44   199.286   14.1169
46.46   183.407   13.5428
46.48   179.62   13.4022
46.5   181.437   13.4699
46.52   188.009   13.7116
46.54   206.509   14.3704
46.56   244.153   15.6254
46.58   310.59   17.6236
46.6   423.326   20.5749
46.62   595.651   24.406
46.64   797.177   28.2343
46.66   896.837   29.9472
46.68   803.254   28.3417
46.7   643.894   25.3751
46.72   537.683   23.188
46.74   521.157   22.8289
46.76   603.605   24.5684
46.78   773.367   27.8095
46.8   949.6   30.8156
46.82   953.689   30.8819
46.84   767.195   27.6983
46.86   556.791   23.5964
46.88   395.341   19.8832
46.9   281.912   16.7902
46.92   208.724   14.4473
46.94   162.525   12.7485
46.96   130.233   11.412
46.98   106.156   10.3032
47   88.8623   9.42668
47.02   76.944   8.77177
47.04   69.0786   8.31135
47.06   64.487   8.03038
47.08   62.4749   7.90411
47.1   63.3518   7.95938
47.12   67.4163   8.21074
47.14   72.8943   8.53782
47.16   74.6473   8.63987
47.18   68.6491   8.28547
47.2   60.6916   7.79048
47.22   55.8133   7.47083
47.24   55.2178   7.43087
47.26   58.9023   7.67478
47.28   66.3181   8.14359
47.3   77.6286   8.81071
47.32   94.7705   9.73501
47.34   121.451   11.0205
47.36   157.529   12.551
47.38   201.781   14.205
47.4   248.807   15.7736
47.42   266.086   16.3121
47.44   237.331   15.4056
47.46   191.93   13.8539
47.48   154.331   12.423
47.5   135.871   11.6564
47.52   138.356   11.7625
47.54   160.27   12.6598
47.56   194.326   13.9401
47.58   213.848   14.6235
47.6   194.26   13.9377
47.62   156.712   12.5185
47.64   128.716   11.3453
47.66   118.871   10.9028
47.68   125.827   11.2173
47.7   138.495   11.7684
47.72   135.215   11.6282
47.74   112.145   10.5899
47.76   88.3641   9.40022
47.78   72.8225   8.53361
47.8   67.6144   8.2228
47.82   67.4896   8.21521
47.84   65.9579   8.12145
47.86   62.6817   7.91718
47.88   61.6709   7.85308
47.9   61.2802   7.82816
47.92   57.3514   7.57307
47.94   52.1181   7.21929
47.96   48.8752   6.99108
47.98   45.7013   6.76027
48   40.173   6.33822
48.02   34.2384   5.85136
48.04   29.4634   5.42802
48.06   26.5405   5.15175
48.08   25.9576   5.09486
48.1   28.1278   5.30357
48.12   32.0771   5.66366
48.14   38.6446   6.21648
48.16   46.5732   6.82446
48.18   54.5515   7.3859
48.2   60.0066   7.7464
48.22   61.4497   7.83899
48.24   58.325   7.63708
48.26   54.2951   7.36852
48.28   54.5687   7.38706
48.3   58.9285   7.67649
48.32   63.7498   7.98434
48.34   61.3044   7.82971
48.36   53.3845   7.30647
48.38   45.5088   6.74602
48.4   41.4247   6.4362
48.42   43.3265   6.58229
48.44   51.2054   7.15579
48.46   63.1684   7.94785
48.48   71.4657   8.45374
48.5   68.0903   8.25169
48.52   58.0792   7.62097
48.54   50.4118   7.10013
48.56   46.7623   6.83829
48.58   44.4619   6.66798
48.6   43.6033   6.60328
48.62   47.0094   6.85634
48.64   55.8048   7.47026
48.66   66.9539   8.18254
48.68   72.5188   8.5158
48.7   69.5408   8.33911
48.72   62.2348   7.8889
48.74   54.1019   7.3554
48.76   48.7033   6.97877
48.78   47.7178   6.90781
48.8   49.7108   7.05059
48.82   51.8438   7.20026
48.84   53.9582   7.34563
48.86   55.1185   7.42418
48.88   55.8103   7.47063
48.9   59.2047   7.69446
48.92   64.5585   8.03483
48.94   69.4664   8.33465
48.96   71.8897   8.47878
48.98   71.7986   8.4734
49   70.6292   8.40412
49.02   71.802   8.4736
49.04   76.3942   8.74038
49.06   84.0599   9.16842
49.08   98.6047   9.92999
49.1   128.114   11.3187
49.12   180.465   13.4337
49.14   258.635   16.0821
49.16   342.615   18.5099
49.18   369.38   19.2193
49.2   311.955   17.6622
49.22   229.097   15.136
49.24   164.944   12.8431
49.26   126.852   11.2629
49.28   109.47   10.4628
49.3   105.254   10.2593
49.32   105.304   10.2618
49.34   103.95   10.1956
49.36   105.484   10.2705
49.38   115.826   10.7622
49.4   137.28   11.7167
49.42   168.026   12.9625
49.44   203.134   14.2525
49.46   243.25   15.5965
49.48   290.241   17.0365
49.5   350.135   18.7119
49.52   437.82   20.9242
49.54   535.117   23.1326
49.56   602.543   24.5468
49.58   646.414   25.4247
49.6   642.631   25.3502
49.62   571.506   23.9062
49.64   493.425   22.2132
49.66   444.739   21.0888
49.68   421.317   20.526
49.7   396.702   19.9174
49.72   354.461   18.8271
49.74   322.421   17.9561
49.76   326.383   18.0661
49.78   357.695   18.9128
49.8   380.84   19.5151
49.82   386.783   19.6668
49.84   396.275   19.9067
49.86   386.071   19.6487
49.88   329.869   18.1623
49.9   250.068   15.8135
49.92   183.514   13.5467
49.94   140.413   11.8496
49.96   116.818   10.8082
49.98   106.554   10.3225
50   103.155   10.1565
50.02   98.3747   9.9184
50.04   90.53   9.51473
50.06   84.9152   9.21494
50.08   84.2711   9.17993
50.1   89.3834   9.45428
50.12   104.133   10.2046
50.14   125.194   11.189
50.16   153.635   12.395
50.18   185.389   13.6158
50.2   206.521   14.3708
50.22   201.54   14.1965
50.24   176.875   13.2994
50.26   150.317   12.2604
50.28   135.065   11.6218
50.3   128.499   11.3357
50.32   117.258   10.8286
50.34   100.199   10.01
50.36   86.8219   9.31783
50.38   80.3171   8.96198
50.4   79.1142   8.89462
50.42   85.5335   9.24843
50.44   96.253   9.81086
50.46   114.624   10.7063
50.48   137.242   11.715
50.5   157.975   12.5688
50.52   166.85   12.917
50.54   162.51   12.748
50.56   155.914   12.4866
50.58   152.055   12.3311
50.6   156.29   12.5016
50.62   167.572   12.9449
50.64   172.444   13.1318
50.66   165.867   12.8789
50.68   154.214   12.4183
50.7   142.116   11.9213
50.72   129.362   11.3737
50.74   117.118   10.8221
50.76   107.537   10.37
50.78   103.349   10.1661
50.8   105.304   10.2618
50.82   112.995   10.6299
50.84   122.466   11.0664
50.86   128.276   11.3259
50.88   130.551   11.4259
50.9   130.806   11.4371
50.92   131.409   11.4634
50.94   135.781   11.6525
50.96   145.587   12.0659
50.98   161.007   12.6888
51   182.192   13.4979
51.02   208.22   14.4298
51.04   238.418   15.4408
51.06   268.92   16.3988
51.08   295.426   17.188
51.1   329.065   18.1402
51.12   382.844   19.5664
51.14   456.808   21.3731
51.16   551.551   23.4851
51.18   692.418   26.3138
51.2   933.845   30.5589
51.22   1353.11   36.7846
51.24   2017.19   44.9132
51.26   2880.21   53.6676
51.28   3513.8   59.2773
51.3   3283.76   57.3041
51.32   2456.83   49.5664
51.34   1676.58   40.946
51.36   1143.83   33.8205
51.38   826.057   28.7412
51.4   651.737   25.5291
51.42   564.645   23.7623
51.44   533.531   23.0983
51.46   548.051   23.4105
51.48   615.746   24.8142
51.5   763.906   27.6388
51.52   1038.26   32.2221
51.54   1488.42   38.58
51.56   2108.11   45.9141
51.58   2648.27   51.4614
51.6   2605.54   51.0445
51.62   2031.91   45.0767
51.64   1432.91   37.8537
51.66   1016.18   31.8776
51.68   773.939   27.8198
51.7   653.135   25.5565
51.72   611.064   24.7197
51.74   631.659   25.1328
51.76   727   26.9629
51.78   932.747   30.5409
51.8   1303.11   36.0986
51.82   1882.72   43.3904
51.84   2585.36   50.8464
51.86   2968.4   54.483
51.88   2613.03   51.1178
51.9   1905.16   43.6482
51.92   1298.39   36.0332
51.94   884.611   29.7424
51.96   626.258   25.0251
51.98   473.066   21.7501
52   383.876   19.5927
52.02   328.924   18.1363
52.04   290.926   17.0566
52.06   267.245   16.3476
52.08   253.062   15.9079
52.1   237.673   15.4167
52.12   221.798   14.8929
52.14   208.012   14.4226
52.16   192.093   13.8597
52.18   171.088   13.0801
52.2   150.79   12.2797
52.22   133.62   11.5594
52.24   116.244   10.7817
52.26   100.758   10.0378
52.28   89.2569   9.44758
52.3   80.9703   8.99835
52.32   76.0751   8.7221
52.34   75.5866   8.69406
52.36   80.198   8.95533
52.38   90.0279   9.4883
52.4   101.88   10.0936
52.42   106.63   10.3262
52.44   100.132   10.0066
52.46   90.0353   9.48869
52.48   79.5218   8.9175
52.5   70.128   8.37424
52.52   63.9224   7.99515
52.54   60.3553   7.76887
52.56   59.143   7.69045
52.58   60.2875   7.7645
52.6   61.3036   7.82966
52.62   58.6281   7.6569
52.64   54.4731   7.38059
52.66   52.6669   7.2572
52.68   52.9139   7.27419
52.7   51.9234   7.20579
52.72   49.3925   7.02798
52.74   47.6456   6.90258
52.76   45.4974   6.74518
52.78   50.2548   7.08906
52.8   57.3796   7.57493
52.82   62.256   7.89025
52.84   64.3319   8.02072
52.86   69.5014   8.33675
52.88   80.705   8.98359
52.9   94.5064   9.72144
52.92   102.145   10.1067
52.94   101.288   10.0642
52.96   101.677   10.0835
52.98   104.921   10.2431
53   105.066   10.2502
53.02   103.613   10.179
53.04   102.873   10.1426
53.06   102.128   10.1058
53.08   96.2212   9.80924
53.1   83.8905   9.15918
53.12   67.6096   8.2225
53.14   55.1569   7.42677
53.16   46.1194   6.79113
53.18   37.8608   6.15311
53.2   30.9582   5.56401
53.22   26.4202   5.14006
53.24   24.1062   4.9098
53.26   23.7345   4.87181
53.28   25.0591   5.00591
53.3   27.5264   5.24656
53.32   27.1924   5.21463
53.34   29.5027   5.43164
53.36   33.8952   5.82196
53.38   41.0743   6.40892
53.4   47.717   6.90775
53.42   47.2858   6.87647
53.44   41.2987   6.4264
53.46   36.2579   6.02145
53.48   34.6855   5.88944
53.5   37.2736   6.10521
53.52   44.61   6.67907
53.54   56.3717   7.50811
53.56   69.4056   8.331
53.58   80.5126   8.97288
53.6   93.6055   9.67499
53.62   111.225   10.5463
53.64   123.806   11.1268
53.66   120.408   10.973
53.68   105.015   10.2477
53.7   90.908   9.53457
53.72   88.3974   9.40199
53.74   99.7121   9.98559
53.76   119.139   10.9151
53.78   129.938   11.399
53.8   119.094   10.913
53.82   99.4968   9.97481
53.84   86.7115   9.3119
53.86   85.7438   9.25979
53.88   94.1551   9.70336
53.9   99.3758   9.96874
53.92   88.2468   9.39398
53.94   68.5758   8.28105
53.96   51.6149   7.18435
53.98   40.3728   6.35396
54   34.2934   5.85605
54.02   32.1012   5.66579
54.04   32.7526   5.72299
54.06   35.6192   5.96819
54.08   41.2593   6.42334
54.1   50.8271   7.12931
54.12   65.7593   8.10921
54.14   85.9125   9.2689
54.16   108.4   10.4115
54.18   129.018   11.3586
54.2   148.207   12.174
54.22   162.074   12.7308
54.24   159.427   12.6265
54.26   134.737   11.6076
54.28   103.507   10.1738
54.3   79.3516   8.90795
54.32   67.0159   8.18632
54.34   61.8922   7.86716
54.36   61.465   7.83996
54.38   62.3011   7.8931
54.4   64.1803   8.01126
54.42   65.319   8.08202
54.44   64.1983   8.01238
54.46   65.1141   8.06933
54.48   71.6908   8.46704
54.5   83.2677   9.12512
54.52   95.1088   9.75238
54.54   99.8209   9.99104
54.56   92.9624   9.6417
54.58   77.4149   8.79857
54.6   61.7318   7.85696
54.62   50.3314   7.09446
54.64   43.9701   6.63099
54.66   42.7424   6.53776
54.68   42.368   6.50907
54.7   44.3152   6.65697
54.72   48.5326   6.96654
54.74   54.3275   7.37072
54.76   61.8526   7.86464
54.78   72.3855   8.50797
54.8   87.5265   9.35556
54.82   104.556   10.2253
54.84   106.607   10.3251
54.86   90.8761   9.5329
54.88   71.804   8.47373
54.9   58.8756   7.67304
54.92   53.1645   7.2914
54.94   52.9194   7.27457
54.96   55.9604   7.48067
54.98   60.123   7.7539
55   64.5705   8.03558
55.02   69.8612   8.3583
55.04   74.3634   8.62342
55.06   75.2598   8.67524
55.08   74.4082   8.62602
55.1   74.7935   8.64832
55.12   77.9089   8.8266
55.14   83.8758   9.15837
55.16   91.4553   9.56323
55.18   100.318   10.0159
55.2   106.638   10.3266
55.22   103.219   10.1597
55.24   93.7391   9.6819
55.26   87.805   9.37043
55.28   88.9784   9.43284
55.3   95.9427   9.79504
55.32   106.145   10.3027
55.34   118.971   10.9074
55.36   131.883   11.484
55.38   140.792   11.8656
55.4   145.117   12.0464
55.42   151.132   12.2936
55.44   167.009   12.9232
55.46   198.255   14.0803
55.48   249.897   15.8081
55.5   318.582   17.8489
55.52   375.53   19.3786
55.54   390.393   19.7584
55.56   396.174   19.9041
55.58   437.209   20.9095
55.6   514.625   22.6854
55.62   587.466   24.2377
55.64   634.226   25.1839
55.66   689.292   26.2544
55.68   772.559   27.795
55.7   884.561   29.7416
55.72   1078.17   32.8354
55.74   1397.01   37.3766
55.76   1727.15   41.5591
55.78   1756.07   41.9055
55.8   1417.17   37.6454
55.82   1012.42   31.8185
55.84   708.351   26.6149
55.86   516.713   22.7313
55.88   405.999   20.1494
55.9   348.085   18.657
55.92   326.478   18.0687
55.94   328.912   18.1359
55.96   346.568   18.6163
55.98   379.821   19.489
56   423.777   20.5858
56.02   473.397   21.7577
56.04   552.423   23.5037
56.06   699.863   26.4549
56.08   956.209   30.9226
56.1   1328.4   36.4472
56.12   1686.1   41.0622
56.14   1727.83   41.5672
56.16   1431.5   37.8352
56.18   1115.07   33.3926
56.2   947.644   30.7838
56.22   955.144   30.9054
56.24   1123.27   33.5152
56.26   1368.87   36.9982
56.28   1453.66   38.1269
56.3   1230.39   35.0769
56.32   900.467   30.0078
56.34   630.008   25.1
56.36   448.176   21.1702
56.38   339.816   18.4341
56.4   282.238   16.7999
56.42   253.644   15.9262
56.44   231.604   15.2185
56.46   203.655   14.2708
56.48   177.54   13.3244
56.5   160.609   12.6732
56.52   151.357   12.3027
56.54   144.519   12.0216
56.56   136.555   11.6857
56.58   130.355   11.4173
56.6   127.42   11.2881
56.62   127.352   11.2851
56.64   130.242   11.4124
56.66   136.352   11.677
56.68   148.028   12.1667
56.7   167.468   12.9409
56.72   191.169   13.8264
56.74   211.915   14.5573
56.76   218.713   14.789
56.78   199.4   14.1209
56.8   162.349   12.7416
56.82   129.284   11.3703
56.84   106.756   10.3323
56.86   90.4493   9.51049
56.88   78.6143   8.86647
56.9   71.727   8.46918
56.92   68.6172   8.28355
56.94   69.0333   8.30863
56.96   73.7336   8.58683
56.98   81.7867   9.0436
57   89.4286   9.45667
57.02   94.2117   9.70627
57.04   100.255   10.0127
57.06   114.162   10.6847
57.08   134.609   11.6021
57.1   145.782   12.074
57.12   132.408   11.5069
57.14   107.614   10.3737
57.16   88.8947   9.4284
57.18   81.9141   9.05064
57.2   86.0577   9.27673
57.22   97.8745   9.89315
57.24   106.695   10.3293
57.26   100.634   10.0317
57.28   88.0208   9.38194
57.3   75.9858   8.71699
57.32   66.1861   8.13548
57.34   60.221   7.76022
57.36   59.2727   7.69888
57.38   59.9821   7.74481
57.4   59.49   7.71298
57.42   60.7637   7.79511
57.44   65.2115   8.07536
57.46   69.6558   8.34601
57.48   71.3885   8.44917
57.5   70.5157   8.39736
57.52   67.3311   8.20555
57.54   65.7406   8.10806
57.56   67.5286   8.21758
57.58   69.8708   8.35888
57.6   74.1149   8.609
57.62   80.2431   8.95785
57.64   84.7353   9.20518
57.66   81.3106   9.01724
57.68   72.3324   8.50485
57.7   62.2938   7.89264
57.72   52.6053   7.25295
57.74   43.2699   6.57799
57.76   38.7235   6.22282
57.78   38.303   6.18894
57.8   41.1762   6.41687
57.82   45.9678   6.77995
57.84   49.8675   7.06169
57.86   50.4102   7.10002
57.88   51.5475   7.17966
57.9   58.2975   7.63528
57.92   71.8521   8.47656
57.94   89.2321   9.44627
57.96   99.4718   9.97356
57.98   98.4541   9.92241
58   91.3455   9.55749
58.02   86.5264   9.30196
58.04   83.7933   9.15387
58.06   83.0901   9.11538
58.08   85.2499   9.23309
58.1   88.9911   9.43351
58.12   93.6461   9.67709
58.14   98.641   9.93182
58.16   97.7284   9.88577
58.18   94.5232   9.72231
58.2   93.2165   9.65487
58.22   90.7709   9.52738
58.24   85.9594   9.27143
58.26   77.6237   8.81043
58.28   67.5726   8.22026
58.3   60.682   7.78987
58.32   57.7965   7.6024
58.34   56.5881   7.52251
58.36   56.825   7.53824
58.38   57.9155   7.61022
58.4   59.1921   7.69364
58.42   64.2213   8.01382
58.44   76.5273   8.74799
58.46   94.5939   9.72594
58.48   106.641   10.3267
58.5   101.173   10.0585
58.52   87.9658   9.37901
58.54   77.3306   8.79378
58.56   68.0537   8.24946
58.58   60.6973   7.79085
58.6   58.15   7.62562
58.62   60.3223   7.76674
58.64   65.3463   8.08371
58.66   73.0828   8.54885
58.68   84.5411   9.19462
58.7   95.5895   9.77699
58.72   102.947   10.1463
58.74   106.895   10.339
58.76   108.147   10.3994
58.78   111.045   10.5378
58.8   118.042   10.8647
58.82   127.006   11.2697
58.84   137.332   11.7189
58.86   149.429   12.2241
58.88   151.761   12.3191
58.9   138.65   11.775
58.92   121.633   11.0287
58.94   107.229   10.3551
58.96   98.3959   9.91947
58.98   95.2357   9.75888
59   93.7697   9.68347
59.02   93.4892   9.66898
59.04   98.0399   9.90151
59.06   107.578   10.372
59.08   117.415   10.8358
59.1   122.343   11.0609
59.12   123.433   11.11
59.14   123.85   11.1288
59.16   126.977   11.2684
59.18   136.75   11.694
59.2   155.099   12.4539
59.22   183.487   13.5457
59.24   220.734   14.8571
59.26   259.711   16.1155
59.28   301.788   17.3721
59.3   357.445   18.9062
59.32   450.567   21.2266
59.34   618.312   24.8659
59.36   886.315   29.771
59.38   1219.84   34.9263
59.4   1458.47   38.1899
59.42   1482.77   38.5068
59.44   1318.43   36.3102
59.46   1025.22   32.019
59.48   757.116   27.5157
59.5   596.986   24.4333
59.52   548.133   23.4122
59.54   598.141   24.4569
59.56   733.285   27.0792
59.58   899.019   29.9836
59.6   939.154   30.6456
59.62   777.964   27.892
59.64   559.999   23.6643
59.66   389.004   19.7232
59.68   274.97   16.5822
59.7   203.797   14.2758
59.72   161.32   12.7012
59.74   136.528   11.6845
59.76   122.424   11.0646
59.78   115.836   10.7627
59.8   115.722   10.7574
59.82   116.137   10.7767
59.84   106.948   10.3416
59.86   90.3241   9.5039
59.88   75.4931   8.68868
59.9   65.6783   8.10421
59.92   60.4602   7.77561
59.94   58.6308   7.65707
59.96   58.8351   7.67041
59.98   59.9864   7.74509
60   62.8526   7.92796
60.02   69.6151   8.34357
60.04   83.3256   9.12829
60.06   108.714   10.4266
60.08   147.064   12.127
60.1   196.955   14.0341
60.12   235.398   15.3427
60.14   225.64   15.0213
60.16   181.507   13.4724
60.18   140.338   11.8464
60.2   112.937   10.6272
60.22   98.4407   9.92173
60.24   95.0515   9.74943
60.26   100.167   10.0084
60.28   110.339   10.5042
60.3   124.152   11.1424
60.32   146.548   12.1057
60.34   177.345   13.3171
60.36   217.997   14.7647
60.38   273.791   16.5466
60.4   326.465   18.0683
60.42   322.28   17.9522
60.44   258.188   16.0682
60.46   188.001   13.7113
60.48   138.719   11.7779
60.5   110.956   10.5336
60.52   100.084   10.0042
60.54   101.912   10.0951
60.56   110.559   10.5147
60.58   115.312   10.7383
60.6   111.557   10.5621
60.62   104.374   10.2164
60.64   100.894   10.0446
60.66   106.228   10.3067
60.68   120.956   10.998
60.7   141.252   11.8849
60.72   160.672   12.6756
60.74   187.865   13.7064
60.76   217.312   14.7415
60.78   226.227   15.0409
60.8   207.608   14.4086
60.82   176.699   13.2928
60.84   143.598   11.9832
60.86   119.508   10.932
60.88   111.317   10.5507
60.9   115.949   10.768
60.92   129.059   11.3604
60.94   140.345   11.8467
60.96   144.378   12.0157
60.98   144.651   12.0271
61   140.61   11.8579
61.02   133.295   11.5453
61.04   130.73   11.4337
61.06   135.213   11.6281
61.08   145.439   12.0598
61.1   159.294   12.6212
61.12   171.549   13.0977
61.14   181.76   13.4818
61.16   194.341   13.9406
61.18   209.345   14.4688
61.2   213.186   14.6009
61.22   199.678   14.1308
61.24   176.52   13.2861
61.26   152.433   12.3464
61.28   136.534   11.6848
61.3   131.765   11.4789
61.32   136.591   11.6872
61.34   148.282   12.1771
61.36   163.228   12.7761
61.38   181.624   13.4768
61.4   213.305   14.605
61.42   272.186   16.4981
61.44   374.572   19.3539
61.46   541.548   23.2712
61.48   778.745   27.906
61.5   1016.04   31.8754
61.52   1064.18   32.6217
61.54   877.054   29.6151
61.56   641.614   25.3301
61.58   468.514   21.6452
61.6   368.075   19.1853
61.62   324.43   18.0119
61.64   324.327   18.0091
61.66   365.937   19.1295
61.68   457.573   21.391
61.7   611.032   24.7191
61.72   824.738   28.7182
61.74   1025.24   32.0194
61.76   1055.26   32.4848
61.78   932.067   30.5298
61.8   830.609   28.8203
61.82   831.345   28.833
61.84   934.076   30.5627
61.86   1049.05   32.389
61.88   1005.8   31.7144
61.9   815.269   28.5529
61.92   633.399   25.1674
61.94   523.953   22.89
61.96   490.267   22.142
61.98   525.195   22.9171
62   624.726   24.9945
62.02   779.087   27.9121
62.04   927.602   30.4566
62.06   980.588   31.3143
62.08   996.527   31.5678
62.1   1106.07   33.2576
62.12   1378.9   37.1335
62.14   1835.65   42.8445
62.16   2347.74   48.4535
62.18   2597.66   50.9672
62.2   2555.09   50.5479
62.22   2385.89   48.8456
62.24   2037.68   45.1407
62.26   1537.3   39.2084
62.28   1086.33   32.9594
62.3   770.839   27.764
62.32   568.753   23.8485
62.34   444.478   21.0827
62.36   373.829   19.3346
62.38   341.423   18.4776
62.4   337.443   18.3696
62.42   349.403   18.6923
62.44   363.074   19.0545
62.46   384.347   19.6048
62.48   430.596   20.7508
62.5   518.382   22.768
62.52   632.857   25.1567
62.54   679.576   26.0687
62.56   587.338   24.2351
62.58   443.942   21.0699
62.6   331.717   18.2131
62.62   262.831   16.2121
62.64   225.459   15.0153
62.66   207.127   14.3919
62.68   194.736   13.9548
62.7   180.639   13.4402
62.72   169.047   13.0018
62.74   167.045   12.9246
62.76   178.912   13.3758
62.78   209.91   14.4883
62.8   267.357   16.351
62.82   355.769   18.8618
62.84   466.329   21.5947
62.86   568.836   23.8503
62.88   587.688   24.2423
62.9   499.358   22.3463
62.92   392.873   19.821
62.94   318.476   17.8459
62.96   277.893   16.6701
62.98   257.519   16.0474
63   228.371   15.112
63.02   185.913   13.635
63.04   148.083   12.1689
63.06   123.476   11.112
63.08   110.877   10.5298
63.1   107.864   10.3858
63.12   113.392   10.6486
63.14   125.117   11.1856
63.16   139.251   11.8004
63.18   154.508   12.4301
63.2   163.716   12.7951
63.22   160.815   12.6813
63.24   154.156   12.4159
63.26   153.819   12.4024
63.28   166.833   12.9164
63.3   201.409   14.1919
63.32   265.914   16.3069
63.34   367.09   19.1596
63.36   499.356   22.3463
63.38   613.132   24.7615
63.4   606.726   24.6318
63.42   493.106   22.206
63.44   372.792   19.3078
63.46   292.654   17.1071
63.48   255.902   15.9969
63.5   248.021   15.7487
63.52   238.998   15.4596
63.54   205.701   14.3423
63.56   163.014   12.7677
63.58   130.255   11.4129
63.6   111.048   10.5379
63.62   103.357   10.1664
63.64   105.393   10.2661
63.66   116.052   10.7727
63.68   142.377   11.9322
63.7   189.034   13.749
63.72   268.649   16.3905
63.74   386.447   19.6582
63.76   521.219   22.8302
63.78   580.243   24.0882
63.8   497.974   22.3153
63.82   360.988   18.9997
63.84   249.951   15.8098
63.86   179.49   13.3974
63.88   139.639   11.8169
63.9   118.407   10.8815
63.92   107.782   10.3818
63.94   105.147   10.2541
63.96   112.408   10.6022
63.98   127.86   11.3075
64   137.878   11.7422
64.02   127.236   11.2799
64.04   104.125   10.2042
64.06   85.4814   9.24561
64.08   76.7815   8.76251
64.1   77.4813   8.80235
64.12   84.1409   9.17283
64.14   93.1457   9.6512
64.16   104.116   10.2037
64.18   114.559   10.7032
64.2   119.355   10.925
64.22   114.021   10.6781
64.24   104.787   10.2366
64.26   101.932   10.0961
64.28   105.694   10.2808
64.3   104.607   10.2278
64.32   92.2502   9.6047
64.34   76.4757   8.74504
64.36   66.364   8.14641
64.38   64.6773   8.04222
64.4   72.6284   8.52223
64.42   91.0005   9.53942
64.44   116.539   10.7953
64.46   133.75   11.5651
64.48   126.647   11.2537
64.5   105.873   10.2895
64.52   86.8453   9.31908
64.54   73.5777   8.57774
64.56   66.9384   8.18159
64.58   66.9865   8.18453
64.6   73.3968   8.56719
64.62   85.9984   9.27353
64.64   98.3565   9.91749
64.66   98.8562   9.94264
64.68   88.5523   9.41022
64.7   74.5048   8.63162
64.72   59.6771   7.7251
64.74   48.0779   6.93382
64.76   41.2297   6.42103
64.78   37.4432   6.11908
64.8   34.1815   5.84649
64.82   30.0149   5.47859
64.84   26.4431   5.14229
64.86   25.0754   5.00753
64.88   25.7354   5.07301
64.9   29.1458   5.39869
64.92   32.6536   5.71434
64.94   32.6297   5.71224
64.96   29.1723   5.40113
64.98   25.3757   5.03743
65   23.5002   4.8477
65.02   23.3436   4.83152
65.04   24.3483   4.9344
65.06   26.5153   5.1493
65.08   30.6748   5.53849
65.1   38.4357   6.19965
65.12   51.0348   7.14386
65.14   67.3128   8.20444
65.16   81.1028   9.00571
65.18   87.7258   9.36621
65.2   89.6084   9.46617
65.22   92.3719   9.61103
65.24   98.7046   9.93502
65.26   101.354   10.0675
65.28   90.5949   9.51814
65.3   71.6879   8.46687
65.32   56.107   7.49046
65.34   45.4766   6.74363
65.36   37.3125   6.10839
65.38   31.3548   5.59954
65.4   27.8723   5.27942
65.42   25.8859   5.08782
65.44   24.4049   4.94014
65.46   23.986   4.89755
65.48   24.6364   4.9635
65.5   26.0146   5.10045
65.52   27.6859   5.26174
65.54   30.51   5.52359
65.56   35.1336   5.92736
65.58   40.8792   6.39368
65.6   48.2576   6.94677
65.62   60.0299   7.7479
65.64   76.3775   8.73942
65.66   90.0355   9.4887
65.68   91.0641   9.54275
65.7   80.2713   8.95943
65.72   65.9399   8.12034
65.74   55.3795   7.44174
65.76   51.2512   7.15899
65.78   53.6155   7.32226
65.8   61.2745   7.8278
65.82   71.8753   8.47793
65.84   84.5846   9.19699
65.86   99.3489   9.96739
65.88   113.095   10.6346
65.9   125.624   11.2082
65.92   139.752   11.8217
65.94   144.047   12.002
65.96   130.984   11.4448
65.98   115.592   10.7514
66   111.09   10.5399
66.02   121.376   11.0171
66.04   143.726   11.9886
66.06   168.094   12.9651
66.08   185.183   13.6082
66.1   189.134   13.7526
66.12   169.65   13.025
66.14   137.366   11.7203
66.16   107.03   10.3455
66.18   84.8565   9.21176
66.2   72.099   8.49111
66.22   67.6726   8.22634
66.24   70.0686   8.3707
66.26   77.6388   8.81129
66.28   87.0655   9.33089
66.3   93.6133   9.6754
66.32   94.9234   9.74287
66.34   98.4518   9.92229
66.36   109.961   10.4862
66.38   124.113   11.1406
66.4   129.107   11.3625
66.42   122.292   11.0586
66.44   111.032   10.5372
66.46   99.2234   9.9611
66.48   91.4522   9.56307
66.5   90.1015   9.49218
66.52   95.2243   9.75829
66.54   108.366   10.4099
66.56   130.258   11.4131
66.58   157.33   12.5431
66.6   181.644   13.4775
66.62   203.3   14.2583
66.64   240.98   15.5235
66.66   315.766   17.7698
66.68   443.622   21.0623
66.7   617.011   24.8397
66.72   750.056   27.3871
66.74   710.899   26.6627
66.76   549.31   23.4374
66.78   397.692   19.9422
66.8   299.055   17.2932
66.82   243.129   15.5926
66.84   214.386   14.6419
66.86   211.365   14.5384
66.88   230.841   15.1935
66.9   251.417   15.8561
66.92   243.084   15.5911
66.94   203.742   14.2738
66.96   157.47   12.5487
66.98   124.251   11.1468
67   107.849   10.385
67.02   104.431   10.2192
67.04   107.122   10.35
67.06   107.733   10.3794
67.08   104.142   10.205
67.1   101.159   10.0578
67.12   96.4033   9.81852
67.14   85.5026   9.24676
67.16   73.1862   8.55489
67.18   63.9208   7.99505
67.2   58.836   7.67046
67.22   58.2413   7.6316
67.24   62.3521   7.89633
67.26   70.6999   8.40832
67.28   82.752   9.09681
67.3   98.1745   9.90831
67.32   119.442   10.929
67.34   153.341   12.3831
67.36   202.673   14.2363
67.38   246.774   15.709
67.4   242.605   15.5758
67.42   195.253   13.9733
67.44   147.932   12.1627
67.46   117.677   10.8479
67.48   100.874   10.0436
67.5   87.9832   9.37993
67.52   75.3294   8.67925
67.54   65.457   8.09055
67.56   57.9402   7.61185
67.58   53.5276   7.31625
67.6   53.7662   7.33255
67.62   58.4912   7.64795
67.64   62.9442   7.93374
67.66   59.5971   7.71992
67.68   50.2243   7.08691
67.7   41.7926   6.46472
67.72   36.6101   6.05063
67.74   34.4625   5.87048
67.76   34.7786   5.89734
67.78   37.2908   6.10662
67.8   41.9897   6.47995
67.82   47.8241   6.9155
67.84   53.7659   7.33252
67.86   62.0432   7.87675
67.88   75.1553   8.66921
67.9   91.9102   9.58698
67.92   110.405   10.5074
67.94   136.595   11.6874
67.96   178.409   13.357
67.98   228.695   15.1227
68   253.562   15.9236
68.02   229.635   15.1537
68.04   188.89   13.7437
68.06   156.629   12.5152
68.08   130.519   11.4245
68.1   107.26   10.3566
68.12   91.1473   9.54711
68.14   86.2481   9.28699
68.16   92.8473   9.63573
68.18   107.07   10.3475
68.2   119.318   10.9233
68.22   125.145   11.1868
68.24   124.464   11.1564
68.26   117.533   10.8413
68.28   104.834   10.2388
68.3   93.5675   9.67303
68.32   90.2102   9.4979
68.34   93.1555   9.65171
68.36   96.8531   9.8414
68.38   99.1531   9.95756
68.4   94.5326   9.72279
68.42   81.0021   9.00012
68.44   67.1585   8.19503
68.46   57.7023   7.59621
68.48   53.4241   7.30918
68.5   55.219   7.43095
68.52   62.414   7.90026
68.54   69.986   8.36576
68.56   69.823   8.35602
68.58   62.5407   7.90827
68.6   56.0996   7.48997
68.62   53.0032   7.28033
68.64   50.8676   7.13215
68.66   50.195   7.08484
68.68   54.0786   7.35381
68.7   62.121   7.88169
68.72   68.2962   8.26415
68.74   67.4488   8.21272
68.76   61.8457   7.8642
68.78   54.0335   7.35075
68.8   46.3923   6.81119
68.82   40.9639   6.4003
68.84   38.5036   6.20513
68.86   38.3683   6.19422
68.88   39.1445   6.25656
68.9   40.3   6.34823
68.92   40.6586   6.37641
68.94   40.2282   6.34257
68.96   40.3661   6.35343
68.98   44.0616   6.63789
69   53.6707   7.32603
69.02   67.6879   8.22727
69.04   77.1675   8.78451
69.06   71.8522   8.47657
69.08   57.6967   7.59583
69.1   44.3179   6.65717
69.12   33.4903   5.78708
69.14   25.5575   5.05545
69.16   20.5454   4.53271
69.18   17.7342   4.4
69.2   16.3431   4.4
69.22   16.0189   4.4
69.24   16.8168   4.4
69.26   19.0714   4.4
69.28   23.3128   4.82833
69.3   29.8203   5.4608
69.32   37.272   6.10508
69.34   42.3573   6.50825
69.36   43.7734   6.61615
69.38   42.5481   6.52289
69.4   41.7394   6.4606
69.42   44.5817   6.67695
69.44   51.3775   7.16781
69.46   61.7356   7.8572
69.48   75.9022   8.71219
69.5   90.0476   9.48934
69.52   98.8262   9.94114
69.54   101.808   10.09
69.56   102.351   10.1169
69.58   96.8737   9.84244
69.6   80.2937   8.96067
69.62   60.8592   7.80123
69.64   46.7989   6.84097
69.66   39.7148   6.30197
69.68   38.9123   6.23797
69.7   43.1351   6.56773
69.72   48.2302   6.9448
69.74   47.2734   6.87557
69.76   39.8683   6.31413
69.78   31.1289   5.57933
69.8   23.9058   4.88936
69.82   18.4602   4.4
69.84   14.7338   4.4
69.86   12.3888   4.4
69.88   11.1966   4.4
69.9   10.9362   4.4
69.92   11.6051   4.4
69.94   13.2293   4.4
69.96   15.7005   4.4
69.98   18.1482   4.4
70   18.8685   4.4
