'Id: "" Comment: "" Operator: "Lab Manager" Anode: "Cu" Scantype: "Locked Coupled" TimePerStep: "96" X: "0" Y: "0" Z: "0" 
5.0001 20.063 0.457
5.0206 19.833 0.455
5.0410 19.510 0.451
5.0615 19.854 0.455
5.0820 19.146 0.447
5.1024 19.521 0.451
5.1229 19.458 0.450
5.1433 19.385 0.449
5.1638 18.615 0.440
5.1843 19.740 0.453
5.2047 18.948 0.444
5.2252 18.094 0.434
5.2457 19.219 0.447
5.2661 18.979 0.445
5.2866 18.313 0.437
5.3070 18.292 0.437
5.3275 18.438 0.438
5.3480 18.417 0.438
5.3684 18.344 0.437
5.3889 18.417 0.438
5.4094 17.781 0.430
5.4298 18.427 0.438
5.4503 18.469 0.439
5.4707 17.781 0.430
5.4912 17.885 0.432
5.5117 17.198 0.423
5.5321 17.438 0.426
5.5526 17.448 0.426
5.5731 17.208 0.423
5.5935 16.885 0.419
5.6140 16.656 0.417
5.6344 16.594 0.416
5.6549 16.990 0.421
5.6754 17.021 0.421
5.6958 16.427 0.414
5.7163 16.375 0.413
5.7368 16.573 0.415
5.7572 16.083 0.409
5.7777 16.177 0.411
5.7981 15.625 0.403
5.8186 16.646 0.416
5.8391 15.427 0.401
5.8595 15.948 0.408
5.8800 15.990 0.408
5.9005 15.938 0.407
5.9209 15.104 0.397
5.9414 15.323 0.400
5.9619 15.760 0.405
5.9823 15.135 0.397
6.0028 15.646 0.404
6.0232 15.250 0.399
6.0437 14.760 0.392
6.0642 15.010 0.395
6.0846 15.396 0.400
6.1051 15.531 0.402
6.1256 15.292 0.399
6.1460 14.260 0.385
6.1665 14.302 0.386
6.1869 14.031 0.382
6.2074 15.302 0.399
6.2279 14.594 0.390
6.2483 15.156 0.397
6.2688 13.938 0.381
6.2893 14.354 0.387
6.3097 14.771 0.392
6.3302 14.167 0.384
6.3506 14.240 0.385
6.3711 14.177 0.384
6.3916 14.219 0.385
6.4120 14.625 0.390
6.4325 13.833 0.380
6.4530 14.104 0.383
6.4734 13.563 0.376
6.4939 14.260 0.385
6.5143 13.813 0.379
6.5348 14.135 0.384
6.5553 13.313 0.372
6.5757 13.135 0.370
6.5962 13.604 0.376
6.6167 13.521 0.375
6.6371 13.323 0.373
6.6576 13.427 0.374
6.6780 13.073 0.369
6.6985 13.906 0.381
6.7190 13.906 0.381
6.7394 13.042 0.369
6.7599 13.583 0.376
6.7804 13.750 0.378
6.8008 13.000 0.368
6.8213 13.635 0.377
6.8418 12.896 0.367
6.8622 12.615 0.362
6.8827 12.875 0.366
6.9031 13.479 0.375
6.9236 13.260 0.372
6.9441 12.885 0.366
6.9645 12.990 0.368
6.9850 12.906 0.367
7.0055 13.365 0.373
7.0259 13.448 0.374
7.0464 13.052 0.369
7.0668 12.365 0.359
7.0873 12.417 0.360
7.1078 12.865 0.366
7.1282 13.063 0.369
7.1487 12.917 0.367
7.1692 12.813 0.365
7.1896 13.240 0.371
7.2101 12.917 0.367
7.2305 12.438 0.360
7.2510 12.479 0.361
7.2715 12.292 0.358
7.2919 12.219 0.357
7.3124 13.146 0.370
7.3329 12.021 0.354
7.3533 12.448 0.360
7.3738 12.688 0.364
7.3942 12.573 0.362
7.4147 12.896 0.367
7.4352 12.198 0.356
7.4556 12.188 0.356
7.4761 11.865 0.352
7.4966 12.448 0.360
7.5170 12.156 0.356
7.5375 12.021 0.354
7.5580 12.615 0.362
7.5784 11.875 0.352
7.5989 12.354 0.359
7.6193 12.208 0.357
7.6398 12.188 0.356
7.6603 11.958 0.353
7.6807 12.615 0.362
7.7012 11.854 0.351
7.7217 12.104 0.355
7.7421 12.625 0.363
7.7626 12.104 0.355
7.7830 12.510 0.361
7.8035 11.573 0.347
7.8240 12.042 0.354
7.8444 11.823 0.351
7.8649 11.615 0.348
7.8854 11.906 0.352
7.9058 11.688 0.349
7.9263 12.177 0.356
7.9467 11.635 0.348
7.9672 12.260 0.357
7.9877 11.802 0.351
8.0081 12.750 0.364
8.0286 11.625 0.348
8.0491 12.104 0.355
8.0695 11.677 0.349
8.0900 11.802 0.351
8.1104 11.656 0.348
8.1309 12.667 0.363
8.1514 11.990 0.353
8.1718 12.417 0.360
8.1923 11.875 0.352
8.2128 12.271 0.358
8.2332 12.104 0.355
8.2537 11.948 0.353
8.2741 12.406 0.359
8.2946 11.948 0.353
8.3151 12.417 0.360
8.3355 12.031 0.354
8.3560 11.333 0.344
8.3765 12.167 0.356
8.3969 12.177 0.356
8.4174 11.938 0.353
8.4379 11.365 0.344
8.4583 11.854 0.351
8.4788 11.896 0.352
8.4992 12.240 0.357
8.5197 11.563 0.347
8.5402 11.583 0.347
8.5606 11.427 0.345
8.5811 12.104 0.355
8.6016 11.719 0.349
8.6220 11.958 0.353
8.6425 11.885 0.352
8.6629 11.865 0.352
8.6834 11.729 0.350
8.7039 12.406 0.359
8.7243 13.760 0.379
8.7448 12.573 0.362
8.7653 12.375 0.359
8.7857 12.615 0.362
8.8062 12.073 0.355
8.8266 12.344 0.359
8.8471 12.542 0.361
8.8676 12.740 0.364
8.8880 13.698 0.378
8.9085 13.781 0.379
8.9290 13.625 0.377
8.9494 13.896 0.380
8.9699 13.458 0.374
8.9903 14.885 0.394
9.0108 14.344 0.387
9.0313 14.969 0.395
9.0517 14.521 0.389
9.0722 16.333 0.412
9.0927 16.156 0.410
9.1131 16.552 0.415
9.1336 17.188 0.423
9.1540 17.688 0.429
9.1745 17.281 0.424
9.1950 16.156 0.410
9.2154 15.635 0.404
9.2359 14.240 0.385
9.2564 14.188 0.384
9.2768 13.219 0.371
9.2973 13.188 0.371
9.3178 12.927 0.367
9.3382 12.896 0.367
9.3587 12.521 0.361
9.3791 12.177 0.356
9.3996 12.260 0.357
9.4201 11.948 0.353
9.4405 13.219 0.371
9.4610 12.104 0.355
9.4815 12.438 0.360
9.5019 12.625 0.363
9.5224 12.719 0.364
9.5428 12.896 0.367
9.5633 12.740 0.364
9.5838 12.990 0.368
9.6042 13.448 0.374
9.6247 13.427 0.374
9.6452 12.385 0.359
9.6656 12.729 0.364
9.6861 12.563 0.362
9.7065 12.990 0.368
9.7270 12.531 0.361
9.7475 12.948 0.367
9.7679 12.833 0.366
9.7884 12.333 0.358
9.8089 12.563 0.362
9.8293 11.969 0.353
9.8498 12.677 0.363
9.8702 12.563 0.362
9.8907 13.510 0.375
9.9112 13.083 0.369
9.9316 13.385 0.373
9.9521 12.990 0.368
9.9726 12.656 0.363
9.9930 12.677 0.363
10.0135 12.615 0.362
10.0339 12.615 0.362
10.0544 13.021 0.368
10.0749 12.958 0.367
10.0953 13.135 0.370
10.1158 12.865 0.366
10.1363 13.135 0.370
10.1567 12.604 0.362
10.1772 12.771 0.365
10.1977 12.583 0.362
10.2181 12.771 0.365
10.2386 13.281 0.372
10.2590 12.469 0.360
10.2795 13.219 0.371
10.3000 12.781 0.365
10.3204 12.958 0.367
10.3409 12.875 0.366
10.3614 12.958 0.367
10.3818 13.208 0.371
10.4023 12.990 0.368
10.4227 13.063 0.369
10.4432 13.104 0.369
10.4637 12.844 0.366
10.4841 13.156 0.370
10.5046 12.854 0.366
10.5251 13.250 0.372
10.5455 13.344 0.373
10.5660 12.969 0.368
10.5864 12.396 0.359
10.6069 13.406 0.374
10.6274 13.198 0.371
10.6478 13.521 0.375
10.6683 14.000 0.382
10.6888 13.167 0.370
10.7092 13.260 0.372
10.7297 13.510 0.375
10.7501 13.385 0.373
10.7706 13.656 0.377
10.7911 13.875 0.380
10.8115 13.063 0.369
10.8320 13.167 0.370
10.8525 13.875 0.380
10.8729 13.552 0.376
10.8934 13.052 0.369
10.9138 13.615 0.377
10.9343 13.115 0.370
10.9548 13.250 0.372
10.9752 12.917 0.367
10.9957 12.104 0.355
11.0162 13.021 0.368
11.0366 12.688 0.364
11.0571 13.125 0.370
11.0776 13.333 0.373
11.0980 13.229 0.371
11.1185 13.052 0.369
11.1389 12.958 0.367
11.1594 13.219 0.371
11.1799 13.188 0.371
11.2003 12.958 0.367
11.2208 12.677 0.363
11.2413 13.719 0.378
11.2617 12.802 0.365
11.2822 13.542 0.376
11.3026 13.573 0.376
11.3231 13.021 0.368
11.3436 12.750 0.364
11.3640 13.594 0.376
11.3845 13.073 0.369
11.4050 12.677 0.363
11.4254 13.042 0.369
11.4459 13.083 0.369
11.4663 13.271 0.372
11.4868 12.938 0.367
11.5073 14.021 0.382
11.5277 12.552 0.362
11.5482 13.250 0.372
11.5687 12.510 0.361
11.5891 12.948 0.367
11.6096 12.219 0.357
11.6300 13.563 0.376
11.6505 13.510 0.375
11.6710 12.865 0.366
11.6914 12.354 0.359
11.7119 13.740 0.378
11.7324 12.927 0.367
11.7528 12.792 0.365
11.7733 12.844 0.366
11.7938 12.865 0.366
11.8142 13.302 0.372
11.8347 12.958 0.367
11.8551 14.125 0.384
11.8756 13.302 0.372
11.8961 13.948 0.381
11.9165 12.875 0.366
11.9370 13.063 0.369
11.9575 14.073 0.383
11.9779 14.250 0.385
11.9984 14.438 0.388
12.0188 14.802 0.393
12.0393 15.188 0.398
12.0598 15.594 0.403
12.0802 16.427 0.414
12.1007 17.167 0.423
12.1212 17.448 0.426
12.1416 17.948 0.432
12.1621 17.823 0.431
12.1825 17.010 0.421
12.2030 15.708 0.405
12.2235 14.073 0.383
12.2439 13.969 0.381
12.2644 12.927 0.367
12.2849 13.219 0.371
12.3053 12.490 0.361
12.3258 12.719 0.364
12.3462 12.458 0.360
12.3667 13.000 0.368
12.3872 13.104 0.369
12.4076 11.802 0.351
12.4281 12.260 0.357
12.4486 12.344 0.359
12.4690 12.438 0.360
12.4895 12.792 0.365
12.5099 12.792 0.365
12.5304 12.240 0.357
12.5509 12.677 0.363
12.5713 12.104 0.355
12.5918 12.240 0.357
12.6123 12.531 0.361
12.6327 11.760 0.350
12.6532 12.188 0.356
12.6737 12.385 0.359
12.6941 12.865 0.366
12.7146 12.635 0.363
12.7350 12.573 0.362
12.7555 11.958 0.353
12.7760 12.958 0.367
12.7964 12.573 0.362
12.8169 11.750 0.350
12.8374 12.500 0.361
12.8578 12.406 0.359
12.8783 12.198 0.356
12.8987 13.135 0.370
12.9192 12.990 0.368
12.9397 12.219 0.357
12.9601 13.135 0.370
12.9806 12.771 0.365
13.0011 12.396 0.359
13.0215 12.188 0.356
13.0420 12.198 0.356
13.0624 12.240 0.357
13.0829 12.729 0.364
13.1034 11.833 0.351
13.1238 12.250 0.357
13.1443 11.635 0.348
13.1648 11.823 0.351
13.1852 12.406 0.359
13.2057 12.104 0.355
13.2261 11.938 0.353
13.2466 11.604 0.348
13.2671 12.375 0.359
13.2875 12.010 0.354
13.3080 12.219 0.357
13.3285 11.760 0.350
13.3489 11.656 0.348
13.3694 11.323 0.343
13.3898 11.792 0.350
13.4103 12.510 0.361
13.4308 11.719 0.349
13.4512 11.625 0.348
13.4717 11.708 0.349
13.4922 11.333 0.344
13.5126 12.010 0.354
13.5331 11.917 0.352
13.5536 12.260 0.357
13.5740 12.490 0.361
13.5945 11.948 0.353
13.6149 11.760 0.350
13.6354 11.500 0.346
13.6559 11.354 0.344
13.6763 11.177 0.341
13.6968 11.823 0.351
13.7173 11.802 0.351
13.7377 11.615 0.348
13.7582 11.385 0.344
13.7786 11.500 0.346
13.7991 11.177 0.341
13.8196 12.083 0.355
13.8400 11.823 0.351
13.8605 11.625 0.348
13.8810 11.323 0.343
13.9014 10.979 0.338
13.9219 11.406 0.345
13.9423 11.531 0.347
13.9628 11.323 0.343
13.9833 11.490 0.346
14.0037 11.594 0.348
14.0242 11.240 0.342
14.0447 10.917 0.337
14.0651 11.750 0.350
14.0856 11.510 0.346
14.1060 11.240 0.342
14.1265 11.427 0.345
14.1470 11.229 0.342
14.1674 12.135 0.356
14.1879 11.281 0.343
14.2084 11.563 0.347
14.2288 11.177 0.341
14.2493 11.781 0.350
14.2697 10.979 0.338
14.2902 11.521 0.346
14.3107 11.042 0.339
14.3311 10.927 0.337
14.3516 10.875 0.337
14.3721 11.323 0.343
14.3925 11.375 0.344
14.4130 11.552 0.347
14.4335 11.365 0.344
14.4539 10.771 0.335
14.4744 10.938 0.338
14.4948 11.333 0.344
14.5153 10.802 0.335
14.5358 11.000 0.339
14.5562 11.063 0.339
14.5767 11.427 0.345
14.5972 11.615 0.348
14.6176 11.458 0.345
14.6381 10.385 0.329
14.6585 11.135 0.341
14.6790 11.323 0.343
14.6995 11.969 0.353
14.7199 11.271 0.343
14.7404 11.458 0.345
14.7609 11.969 0.353
14.7813 11.938 0.353
14.8018 12.125 0.355
14.8222 12.573 0.362
14.8427 12.375 0.359
14.8632 13.198 0.371
14.8836 14.219 0.385
14.9041 15.333 0.400
14.9246 16.406 0.413
14.9450 15.500 0.402
14.9655 14.396 0.387
14.9859 13.250 0.372
15.0064 12.229 0.357
15.0269 11.052 0.339
15.0473 11.229 0.342
15.0678 11.094 0.340
15.0883 10.563 0.332
15.1087 11.271 0.343
15.1292 10.760 0.335
15.1496 10.979 0.338
15.1701 10.521 0.331
15.1906 10.323 0.328
15.2110 10.948 0.338
15.2315 11.104 0.340
15.2520 10.427 0.330
15.2724 10.948 0.338
15.2929 10.906 0.337
15.3134 10.802 0.335
15.3338 10.583 0.332
15.3543 11.188 0.341
15.3747 10.781 0.335
15.3952 10.917 0.337
15.4157 10.448 0.330
15.4361 10.365 0.329
15.4566 10.313 0.328
15.4771 10.583 0.332
15.4975 10.375 0.329
15.5180 10.990 0.338
15.5384 10.240 0.327
15.5589 10.396 0.329
15.5794 11.156 0.341
15.5998 11.000 0.339
15.6203 10.740 0.334
15.6408 10.469 0.330
15.6612 10.823 0.336
15.6817 11.385 0.344
15.7021 10.365 0.329
15.7226 11.031 0.339
15.7431 11.375 0.344
15.7635 12.135 0.356
15.7840 11.563 0.347
15.8045 11.969 0.353
15.8249 11.552 0.347
15.8454 11.948 0.353
15.8658 12.740 0.364
15.8863 12.927 0.367
15.9068 11.813 0.351
15.9272 12.385 0.359
15.9477 11.781 0.350
15.9682 11.604 0.348
15.9886 11.438 0.345
16.0091 11.313 0.343
16.0296 11.875 0.352
16.0500 11.292 0.343
16.0705 11.677 0.349
16.0909 11.563 0.347
16.1114 11.917 0.352
16.1319 12.115 0.355
16.1523 11.500 0.346
16.1728 11.417 0.345
16.1933 11.354 0.344
16.2137 10.583 0.332
16.2342 10.229 0.326
16.2546 10.458 0.330
16.2751 10.448 0.330
16.2956 10.573 0.332
16.3160 10.656 0.333
16.3365 10.979 0.338
16.3570 10.969 0.338
16.3774 9.969 0.322
16.3979 10.427 0.330
16.4183 10.365 0.329
16.4388 10.531 0.331
16.4593 10.500 0.331
16.4797 9.135 0.308
16.5002 10.094 0.324
16.5207 10.135 0.325
16.5411 9.729 0.318
16.5616 9.938 0.322
16.5820 10.510 0.331
16.6025 9.969 0.322
16.6230 10.281 0.327
16.6434 10.250 0.327
16.6639 9.896 0.321
16.6844 10.250 0.327
16.7048 10.552 0.332
16.7253 10.729 0.334
16.7457 10.531 0.331
16.7662 10.344 0.328
16.7867 10.052 0.324
16.8071 10.281 0.327
16.8276 10.167 0.325
16.8481 9.927 0.322
16.8685 9.917 0.321
16.8890 9.938 0.322
16.9095 10.563 0.332
16.9299 10.323 0.328
16.9504 9.760 0.319
16.9708 10.240 0.327
16.9913 10.646 0.333
17.0118 10.010 0.323
17.0322 9.906 0.321
17.0527 10.375 0.329
17.0732 10.635 0.333
17.0936 10.625 0.333
17.1141 10.385 0.329
17.1345 10.688 0.334
17.1550 10.250 0.327
17.1755 10.667 0.333
17.1959 10.406 0.329
17.2164 9.969 0.322
17.2369 9.708 0.318
17.2573 10.875 0.337
17.2778 10.542 0.331
17.2982 10.698 0.334
17.3187 10.260 0.327
17.3392 10.740 0.334
17.3596 10.906 0.337
17.3801 11.344 0.344
17.4006 10.938 0.338
17.4210 11.531 0.347
17.4415 11.083 0.340
17.4619 11.490 0.346
17.4824 11.323 0.343
17.5029 11.448 0.345
17.5233 11.573 0.347
17.5438 11.208 0.342
17.5643 11.146 0.341
17.5847 11.594 0.348
17.6052 11.385 0.344
17.6256 11.990 0.353
17.6461 11.365 0.344
17.6666 11.906 0.352
17.6870 11.083 0.340
17.7075 11.521 0.346
17.7280 12.458 0.360
17.7484 12.063 0.354
17.7689 13.010 0.368
17.7894 13.708 0.378
17.8098 15.708 0.405
17.8303 16.104 0.410
17.8507 17.823 0.431
17.8712 19.042 0.445
17.8917 22.271 0.482
17.9121 24.865 0.509
17.9326 29.688 0.556
17.9531 36.010 0.612
17.9735 44.833 0.683
17.9940 57.469 0.774
18.0144 76.479 0.893
18.0349 101.552 1.029
18.0554 127.115 1.151
18.0758 126.240 1.147
18.0963 109.458 1.068
18.1168 83.802 0.934
18.1372 57.365 0.773
18.1577 39.635 0.643
18.1781 27.229 0.533
18.1986 20.854 0.466
18.2191 18.156 0.435
18.2395 16.135 0.410
18.2600 15.448 0.401
18.2805 14.573 0.390
18.3009 13.583 0.376
18.3214 13.250 0.372
18.3418 12.854 0.366
18.3623 12.260 0.357
18.3828 12.250 0.357
18.4032 11.594 0.348
18.4237 11.583 0.347
18.4442 11.677 0.349
18.4646 11.375 0.344
18.4851 11.229 0.342
18.5055 11.073 0.340
18.5260 10.990 0.338
18.5465 11.063 0.339
18.5669 10.250 0.327
18.5874 11.750 0.350
18.6079 10.313 0.328
18.6283 10.365 0.329
18.6488 10.885 0.337
18.6693 10.979 0.338
18.6897 10.417 0.329
18.7102 10.500 0.331
18.7306 10.073 0.324
18.7511 10.594 0.332
18.7716 10.073 0.324
18.7920 10.885 0.337
18.8125 10.094 0.324
18.8330 10.771 0.335
18.8534 10.250 0.327
18.8739 11.344 0.344
18.8943 10.771 0.335
18.9148 10.604 0.332
18.9353 10.594 0.332
18.9557 11.365 0.344
18.9762 11.833 0.351
18.9967 11.698 0.349
19.0171 11.531 0.347
19.0376 11.302 0.343
19.0580 11.021 0.339
19.0785 11.500 0.346
19.0990 11.573 0.347
19.1194 11.323 0.343
19.1399 11.271 0.343
19.1604 10.813 0.336
19.1808 10.635 0.333
19.2013 10.417 0.329
19.2217 10.448 0.330
19.2422 10.396 0.329
19.2627 10.125 0.325
19.2831 10.396 0.329
19.3036 9.938 0.322
19.3241 10.177 0.326
19.3445 9.781 0.319
19.3650 10.052 0.324
19.3854 9.635 0.317
19.4059 9.760 0.319
19.4264 9.635 0.317
19.4468 9.688 0.318
19.4673 10.438 0.330
19.4878 9.260 0.311
19.5082 9.813 0.320
19.5287 9.802 0.320
19.5492 9.813 0.320
19.5696 9.938 0.322
19.5901 9.313 0.311
19.6105 9.990 0.323
19.6310 10.000 0.323
19.6515 9.917 0.321
19.6719 9.490 0.314
19.6924 9.396 0.313
19.7129 9.823 0.320
19.7333 9.438 0.314
19.7538 9.427 0.313
19.7742 9.229 0.310
19.7947 9.323 0.312
19.8152 9.615 0.316
19.8356 9.458 0.314
19.8561 9.656 0.317
19.8766 9.375 0.313
19.8970 9.656 0.317
19.9175 10.094 0.324
19.9379 9.042 0.307
19.9584 8.771 0.302
19.9789 9.354 0.312
19.9993 9.375 0.313
20.0198 9.219 0.310
20.0403 9.563 0.316
20.0607 9.396 0.313
20.0812 10.375 0.329
20.1016 10.167 0.325
20.1221 9.646 0.317
20.1426 9.750 0.319
20.1630 10.146 0.325
20.1835 10.021 0.323
20.2040 9.688 0.318
20.2244 9.417 0.313
20.2449 9.708 0.318
20.2654 9.406 0.313
20.2858 9.938 0.322
20.3063 9.104 0.308
20.3267 9.896 0.321
20.3472 9.688 0.318
20.3677 9.510 0.315
20.3881 9.854 0.320
20.4086 9.333 0.312
20.4291 9.698 0.318
20.4495 8.490 0.297
20.4700 9.125 0.308
20.4904 9.448 0.314
20.5109 9.781 0.319
20.5314 9.146 0.309
20.5518 8.885 0.304
20.5723 9.198 0.310
20.5928 9.958 0.322
20.6132 9.188 0.309
20.6337 9.802 0.320
20.6541 9.052 0.307
20.6746 9.875 0.321
20.6951 8.677 0.301
20.7155 9.740 0.319
20.7360 9.427 0.313
20.7565 9.979 0.322
20.7769 8.792 0.303
20.7974 9.010 0.306
20.8178 9.500 0.315
20.8383 9.490 0.314
20.8588 9.115 0.308
20.8792 9.677 0.317
20.8997 9.615 0.316
20.9202 9.906 0.321
20.9406 9.875 0.321
20.9611 9.646 0.317
20.9815 10.313 0.328
21.0020 9.844 0.320
21.0225 10.792 0.335
21.0429 10.198 0.326
21.0634 10.042 0.323
21.0839 10.677 0.333
21.1043 10.000 0.323
21.1248 9.521 0.315
21.1453 10.156 0.325
21.1657 9.573 0.316
21.1862 9.969 0.322
21.2066 9.385 0.313
21.2271 8.646 0.300
21.2476 9.458 0.314
21.2680 9.219 0.310
21.2885 9.844 0.320
21.3090 9.490 0.314
21.3294 9.125 0.308
21.3499 9.094 0.308
21.3703 9.417 0.313
21.3908 9.656 0.317
21.4113 9.552 0.315
21.4317 9.708 0.318
21.4522 9.146 0.309
21.4727 9.104 0.308
21.4931 9.490 0.314
21.5136 9.594 0.316
21.5340 8.552 0.298
21.5545 9.292 0.311
21.5750 9.188 0.309
21.5954 9.448 0.314
21.6159 9.250 0.310
21.6364 9.063 0.307
21.6568 9.635 0.317
21.6773 9.208 0.310
21.6977 9.219 0.310
21.7182 9.542 0.315
21.7387 9.646 0.317
21.7591 9.552 0.315
21.7796 9.969 0.322
21.8001 10.969 0.338
21.8205 10.542 0.331
21.8410 10.979 0.338
21.8614 10.219 0.326
21.8819 10.604 0.332
21.9024 10.302 0.328
21.9228 10.156 0.325
21.9433 9.448 0.314
21.9638 9.094 0.308
21.9842 9.667 0.317
22.0047 9.479 0.314
22.0252 9.313 0.311
22.0456 9.448 0.314
22.0661 9.385 0.313
22.0865 8.698 0.301
22.1070 9.490 0.314
22.1275 9.250 0.310
22.1479 9.156 0.309
22.1684 9.375 0.313
22.1889 8.635 0.300
22.2093 9.667 0.317
22.2298 9.833 0.320
22.2502 8.927 0.305
22.2707 8.896 0.304
22.2912 8.708 0.301
22.3116 9.146 0.309
22.3321 9.531 0.315
22.3526 8.875 0.304
22.3730 8.781 0.302
22.3935 9.375 0.313
22.4139 8.990 0.306
22.4344 8.958 0.305
22.4549 8.844 0.304
22.4753 9.385 0.313
22.4958 9.396 0.313
22.5163 9.125 0.308
22.5367 9.531 0.315
22.5572 9.344 0.312
22.5776 9.677 0.317
22.5981 9.240 0.310
22.6186 9.313 0.311
22.6390 9.365 0.312
22.6595 8.656 0.300
22.6800 9.604 0.316
22.7004 9.823 0.320
22.7209 9.354 0.312
22.7413 9.646 0.317
22.7618 8.917 0.305
22.7823 9.885 0.321
22.8027 10.260 0.327
22.8232 10.167 0.325
22.8437 10.719 0.334
22.8641 10.771 0.335
22.8846 11.510 0.346
22.9051 12.208 0.357
22.9255 12.604 0.362
22.9460 13.427 0.374
22.9664 15.083 0.396
22.9869 13.792 0.379
23.0074 13.365 0.373
23.0278 12.594 0.362
23.0483 12.750 0.364
23.0688 11.469 0.346
23.0892 12.250 0.357
23.1097 11.594 0.348
23.1301 11.500 0.346
23.1506 10.969 0.338
23.1711 10.844 0.336
23.1915 10.844 0.336
23.2120 11.104 0.340
23.2325 10.896 0.337
23.2529 10.083 0.324
23.2734 9.760 0.319
23.2938 9.802 0.320
23.3143 9.563 0.316
23.3348 9.646 0.317
23.3552 9.510 0.315
23.3757 9.771 0.319
23.3962 10.104 0.324
23.4166 9.906 0.321
23.4371 9.573 0.316
23.4575 9.646 0.317
23.4780 9.344 0.312
23.4985 9.177 0.309
23.5189 9.448 0.314
23.5394 9.167 0.309
23.5599 9.115 0.308
23.5803 9.073 0.307
23.6008 9.240 0.310
23.6212 8.990 0.306
23.6417 8.417 0.296
23.6622 8.875 0.304
23.6826 9.000 0.306
23.7031 8.688 0.301
23.7236 8.958 0.305
23.7440 9.333 0.312
23.7645 8.531 0.298
23.7850 8.625 0.300
23.8054 8.958 0.305
23.8259 8.792 0.303
23.8463 8.844 0.304
23.8668 9.052 0.307
23.8873 8.604 0.299
23.9077 8.865 0.304
23.9282 8.719 0.301
23.9487 8.646 0.300
23.9691 8.792 0.303
23.9896 8.979 0.306
24.0100 9.333 0.312
24.0305 8.458 0.297
24.0510 9.167 0.309
24.0714 9.333 0.312
24.0919 9.177 0.309
24.1124 8.729 0.302
24.1328 9.177 0.309
24.1533 9.344 0.312
24.1737 9.521 0.315
24.1942 9.813 0.320
24.2147 9.542 0.315
24.2351 9.688 0.318
24.2556 9.542 0.315
24.2761 9.667 0.317
24.2965 9.552 0.315
24.3170 9.781 0.319
24.3374 10.875 0.337
24.3579 10.542 0.331
24.3784 10.969 0.338
24.3988 10.677 0.333
24.4193 9.917 0.321
24.4398 10.292 0.327
24.4602 10.323 0.328
24.4807 9.385 0.313
24.5012 9.844 0.320
24.5216 9.521 0.315
24.5421 8.688 0.301
24.5625 8.948 0.305
24.5830 9.313 0.311
24.6035 8.594 0.299
24.6239 9.396 0.313
24.6444 9.229 0.310
24.6649 8.854 0.304
24.6853 8.521 0.298
24.7058 9.469 0.314
24.7262 9.021 0.307
24.7467 8.948 0.305
24.7672 8.896 0.304
24.7876 9.417 0.313
24.8081 8.823 0.303
24.8286 8.250 0.293
24.8490 8.938 0.305
24.8695 8.719 0.301
24.8899 8.750 0.302
24.9104 9.365 0.312
24.9309 9.010 0.306
24.9513 9.167 0.309
24.9718 9.448 0.314
24.9923 9.198 0.310
25.0127 9.448 0.314
25.0332 8.313 0.294
25.0536 9.448 0.314
25.0741 8.802 0.303
25.0946 9.146 0.309
25.1150 9.427 0.313
25.1355 9.719 0.318
25.1560 10.083 0.324
25.1764 10.510 0.331
25.1969 10.583 0.332
25.2173 11.094 0.340
25.2378 10.531 0.331
25.2583 10.906 0.337
25.2787 10.625 0.333
25.2992 9.260 0.311
25.3197 9.760 0.319
25.3401 9.385 0.313
25.3606 8.813 0.303
25.3811 9.375 0.313
25.4015 8.917 0.305
25.4220 9.260 0.311
25.4424 9.333 0.312
25.4629 8.823 0.303
25.4834 9.344 0.312
25.5038 10.021 0.323
25.5243 9.250 0.310
25.5448 8.927 0.305
25.5652 9.708 0.318
25.5857 9.135 0.308
25.6061 8.698 0.301
25.6266 9.177 0.309
25.6471 9.271 0.311
25.6675 8.406 0.296
25.6880 9.021 0.307
25.7085 9.156 0.309
25.7289 9.323 0.312
25.7494 10.208 0.326
25.7698 9.781 0.319
25.7903 9.010 0.306
25.8108 9.552 0.315
25.8312 9.156 0.309
25.8517 8.760 0.302
25.8722 9.052 0.307
25.8926 9.302 0.311
25.9131 9.292 0.311
25.9335 9.031 0.307
25.9540 9.188 0.309
25.9745 9.000 0.306
25.9949 9.865 0.321
26.0154 9.531 0.315
26.0359 9.000 0.306
26.0563 9.552 0.315
26.0768 9.250 0.310
26.0972 8.917 0.305
26.1177 9.208 0.310
26.1382 8.958 0.305
26.1586 9.719 0.318
26.1791 9.646 0.317
26.1996 9.292 0.311
26.2200 8.708 0.301
26.2405 9.406 0.313
26.2610 9.656 0.317
26.2814 9.844 0.320
26.3019 10.719 0.334
26.3223 10.073 0.324
26.3428 10.167 0.325
26.3633 9.604 0.316
26.3837 9.521 0.315
26.4042 9.958 0.322
26.4247 9.792 0.319
26.4451 9.448 0.314
26.4656 9.302 0.311
26.4860 9.708 0.318
26.5065 9.427 0.313
26.5270 9.229 0.310
26.5474 9.167 0.309
26.5679 8.958 0.305
26.5884 9.281 0.311
26.6088 9.208 0.310
26.6293 9.854 0.320
26.6497 9.635 0.317
26.6702 9.135 0.308
26.6907 9.427 0.313
26.7111 9.500 0.315
26.7316 9.740 0.319
26.7521 9.760 0.319
26.7725 9.615 0.316
26.7930 10.135 0.325
26.8134 9.708 0.318
26.8339 9.604 0.316
26.8544 9.854 0.320
26.8748 9.333 0.312
26.8953 9.042 0.307
26.9158 9.563 0.316
26.9362 9.615 0.316
26.9567 8.615 0.300
26.9771 9.365 0.312
26.9976 8.708 0.301
27.0181 9.208 0.310
27.0385 8.781 0.302
27.0590 9.000 0.306
27.0795 9.198 0.310
27.0999 8.865 0.304
27.1204 9.083 0.308
27.1409 8.969 0.306
27.1613 9.125 0.308
27.1818 9.000 0.306
27.2022 8.771 0.302
27.2227 9.125 0.308
27.2432 9.854 0.320
27.2636 9.010 0.306
27.2841 9.417 0.313
27.3046 9.573 0.316
27.3250 9.625 0.317
27.3455 9.542 0.315
27.3659 9.302 0.311
27.3864 10.260 0.327
27.4069 10.458 0.330
27.4273 10.000 0.323
27.4478 9.865 0.321
27.4683 10.063 0.324
27.4887 9.708 0.318
27.5092 10.208 0.326
27.5296 10.385 0.329
27.5501 10.448 0.330
27.5706 10.667 0.333
27.5910 10.635 0.333
27.6115 9.698 0.318
27.6320 10.313 0.328
27.6524 9.313 0.311
27.6729 10.271 0.327
27.6933 10.083 0.324
27.7138 10.115 0.325
27.7343 9.698 0.318
27.7547 10.094 0.324
27.7752 10.667 0.333
27.7957 9.677 0.317
27.8161 9.969 0.322
27.8366 9.740 0.319
27.8570 10.219 0.326
27.8775 10.323 0.328
27.8980 10.344 0.328
27.9184 10.646 0.333
27.9389 10.979 0.338
27.9594 10.135 0.325
27.9798 10.167 0.325
28.0003 11.458 0.345
28.0208 11.333 0.344
28.0412 10.302 0.328
28.0617 10.948 0.338
28.0821 10.198 0.326
28.1026 9.990 0.323
28.1231 10.031 0.323
28.1435 10.552 0.332
28.1640 10.271 0.327
28.1845 10.083 0.324
28.2049 10.344 0.328
28.2254 9.750 0.319
28.2458 10.063 0.324
28.2663 10.583 0.332
28.2868 9.969 0.322
28.3072 9.979 0.322
28.3277 9.896 0.321
28.3482 9.813 0.320
28.3686 10.188 0.326
28.3891 10.323 0.328
28.4095 10.000 0.323
28.4300 9.698 0.318
28.4505 9.990 0.323
28.4709 10.188 0.326
28.4914 10.229 0.326
28.5119 10.927 0.337
28.5323 10.625 0.333
28.5528 11.271 0.343
28.5732 11.427 0.345
28.5937 12.573 0.362
28.6142 11.948 0.353
28.6346 13.333 0.373
28.6551 14.135 0.384
28.6756 16.052 0.409
28.6960 17.427 0.426
28.7165 16.958 0.420
28.7370 14.490 0.389
28.7574 14.635 0.390
28.7779 14.917 0.394
28.7983 12.781 0.365
28.8188 11.531 0.347
28.8393 11.833 0.351
28.8597 11.073 0.340
28.8802 11.219 0.342
28.9007 11.333 0.344
28.9211 11.188 0.341
28.9416 11.688 0.349
28.9620 11.854 0.351
28.9825 11.094 0.340
29.0030 11.240 0.342
29.0234 11.740 0.350
29.0439 11.802 0.351
29.0644 11.823 0.351
29.0848 11.427 0.345
29.1053 12.646 0.363
29.1257 11.531 0.347
29.1462 12.875 0.366
29.1667 12.156 0.356
29.1871 12.677 0.363
29.2076 13.385 0.373
29.2281 14.135 0.384
29.2485 15.188 0.398
29.2690 16.219 0.411
29.2894 17.885 0.432
29.3099 20.323 0.460
29.3304 24.073 0.501
29.3508 30.260 0.561
29.3713 38.760 0.635
29.3918 44.698 0.682
29.4122 47.927 0.707
29.4327 50.656 0.726
29.4531 52.771 0.741
29.4736 50.177 0.723
29.4941 43.292 0.672
29.5145 35.438 0.608
29.5350 31.771 0.575
29.5555 26.198 0.522
29.5759 19.938 0.456
29.5964 16.292 0.412
29.6169 14.219 0.385
29.6373 13.927 0.381
29.6578 13.365 0.373
29.6782 13.083 0.369
29.6987 11.990 0.353
29.7192 12.198 0.356
29.7396 12.021 0.354
29.7601 11.344 0.344
29.7806 12.135 0.356
29.8010 10.875 0.337
29.8215 11.083 0.340
29.8419 11.979 0.353
29.8624 12.021 0.354
29.8829 11.573 0.347
29.9033 11.406 0.345
29.9238 12.250 0.357
29.9443 12.771 0.365
29.9647 12.698 0.364
29.9852 15.104 0.397
30.0056 15.177 0.398
30.0261 17.885 0.432
30.0466 21.281 0.471
30.0670 24.167 0.502
30.0875 22.177 0.481
30.1080 21.552 0.474
30.1284 21.708 0.476
30.1489 19.333 0.449
30.1693 16.010 0.408
30.1898 14.688 0.391
30.2103 13.667 0.377
30.2307 11.896 0.352
30.2512 11.385 0.344
30.2717 10.948 0.338
30.2921 10.615 0.333
30.3126 10.896 0.337
30.3330 10.969 0.338
30.3535 10.500 0.331
30.3740 11.052 0.339
30.3944 10.656 0.333
30.4149 10.208 0.326
30.4354 10.156 0.325
30.4558 10.604 0.332
30.4763 10.750 0.335
30.4968 9.885 0.321
30.5172 10.771 0.335
30.5377 10.479 0.330
30.5581 9.990 0.323
30.5786 10.885 0.337
30.5991 10.271 0.327
30.6195 9.990 0.323
30.6400 10.250 0.327
30.6605 9.938 0.322
30.6809 10.219 0.326
30.7014 10.490 0.331
30.7218 10.750 0.335
30.7423 9.917 0.321
30.7628 9.990 0.323
30.7832 10.333 0.328
30.8037 10.708 0.334
30.8242 9.854 0.320
30.8446 11.240 0.342
30.8651 10.594 0.332
30.8855 10.781 0.335
30.9060 11.000 0.339
30.9265 11.583 0.347
30.9469 11.563 0.347
30.9674 12.042 0.354
30.9879 12.135 0.356
31.0083 13.271 0.372
31.0288 12.448 0.360
31.0492 13.063 0.369
31.0697 12.896 0.367
31.0902 12.229 0.357
31.1106 12.260 0.357
31.1311 11.344 0.344
31.1516 11.021 0.339
31.1720 11.438 0.345
31.1925 11.396 0.345
31.2129 10.615 0.333
31.2334 11.250 0.342
31.2539 10.771 0.335
31.2743 11.323 0.343
31.2948 10.427 0.330
31.3153 10.104 0.324
31.3357 10.313 0.328
31.3562 10.146 0.325
31.3767 10.438 0.330
31.3971 11.031 0.339
31.4176 10.854 0.336
31.4380 10.896 0.337
31.4585 10.688 0.334
31.4790 11.417 0.345
31.4994 11.271 0.343
31.5199 11.000 0.339
31.5404 10.813 0.336
31.5608 11.385 0.344
31.5813 11.490 0.346
31.6017 12.250 0.357
31.6222 12.521 0.361
31.6427 12.583 0.362
31.6631 11.760 0.350
31.6836 13.104 0.369
31.7041 12.719 0.364
31.7245 12.229 0.357
31.7450 12.417 0.360
31.7654 13.354 0.373
31.7859 12.729 0.364
31.8064 12.802 0.365
31.8268 12.417 0.360
31.8473 12.948 0.367
31.8678 13.323 0.373
31.8882 12.073 0.355
31.9087 13.563 0.376
31.9291 13.469 0.375
31.9496 14.115 0.383
31.9701 13.990 0.382
31.9905 15.406 0.401
32.0110 17.031 0.421
32.0315 18.479 0.439
32.0519 21.510 0.473
32.0724 22.979 0.489
32.0928 28.240 0.542
32.1133 41.281 0.656
32.1338 62.104 0.804
32.1542 88.635 0.961
32.1747 95.448 0.997
32.1952 76.615 0.893
32.2156 77.250 0.897
32.2361 89.469 0.965
32.2566 89.823 0.967
32.2770 64.104 0.817
32.2975 46.406 0.695
32.3179 43.240 0.671
32.3384 39.615 0.642
32.3589 32.583 0.583
32.3793 27.771 0.538
32.3998 25.219 0.513
32.4203 25.302 0.513
32.4407 28.302 0.543
32.4612 30.510 0.564
32.4816 34.438 0.599
32.5021 40.573 0.650
32.5226 48.865 0.713
32.5430 57.677 0.775
32.5635 62.177 0.805
32.5840 58.948 0.784
32.6044 57.260 0.772
32.6249 60.458 0.794
32.6453 59.292 0.786
32.6658 47.615 0.704
32.6863 38.615 0.634
32.7067 31.729 0.575
32.7272 30.677 0.565
32.7477 24.813 0.508
32.7681 20.177 0.458
32.7886 17.406 0.426
32.8090 16.896 0.420
32.8295 15.417 0.401
32.8500 15.656 0.404
32.8704 15.802 0.406
32.8909 15.781 0.405
32.9114 15.823 0.406
32.9318 16.885 0.419
32.9523 15.906 0.407
32.9728 16.771 0.418
32.9932 16.906 0.420
33.0137 17.469 0.427
33.0341 17.823 0.431
33.0546 18.594 0.440
33.0751 19.385 0.449
33.0955 19.521 0.451
33.1160 20.844 0.466
33.1365 20.823 0.466
33.1569 21.510 0.473
33.1774 23.958 0.500
33.1978 24.938 0.510
33.2183 28.083 0.541
33.2388 29.854 0.558
33.2592 30.458 0.563
33.2797 29.323 0.553
33.3002 29.396 0.553
33.3206 26.833 0.529
33.3411 25.896 0.519
33.3615 23.781 0.498
33.3820 21.635 0.475
33.4025 19.948 0.456
33.4229 18.688 0.441
33.4434 17.781 0.430
33.4639 16.469 0.414
33.4843 16.406 0.413
33.5048 15.813 0.406
33.5252 15.333 0.400
33.5457 16.188 0.411
33.5662 16.344 0.413
33.5866 16.844 0.419
33.6071 15.969 0.408
33.6276 16.000 0.408
33.6480 16.260 0.412
33.6685 15.760 0.405
33.6889 15.927 0.407
33.7094 16.417 0.414
33.7299 15.948 0.408
33.7503 17.938 0.432
33.7708 17.677 0.429
33.7913 18.563 0.440
33.8117 20.052 0.457
33.8322 20.583 0.463
33.8527 22.104 0.480
33.8731 22.063 0.479
33.8936 23.417 0.494
33.9140 23.021 0.490
33.9345 23.885 0.499
33.9550 23.896 0.499
33.9754 24.552 0.506
33.9959 25.396 0.514
34.0164 27.635 0.537
34.0368 30.563 0.564
34.0573 33.917 0.594
34.0777 40.906 0.653
34.0982 43.406 0.672
34.1187 45.115 0.686
34.1391 41.042 0.654
34.1596 37.646 0.626
34.1801 35.198 0.606
34.2005 35.073 0.604
34.2210 32.635 0.583
34.2414 28.573 0.546
34.2619 29.531 0.555
34.2824 34.021 0.595
34.3028 37.542 0.625
34.3233 47.406 0.703
34.3438 55.448 0.760
34.3642 56.156 0.765
34.3847 52.573 0.740
34.4051 43.177 0.671
34.4256 40.719 0.651
34.4461 35.479 0.608
34.4665 31.021 0.568
34.4870 24.583 0.506
34.5075 18.896 0.444
34.5279 15.292 0.399
34.5484 13.240 0.371
34.5688 11.792 0.350
34.5893 11.896 0.352
34.6098 11.302 0.343
34.6302 11.281 0.343
34.6507 11.031 0.339
34.6712 10.510 0.331
34.6916 10.063 0.324
34.7121 10.073 0.324
34.7326 10.573 0.332
34.7530 10.125 0.325
34.7735 10.615 0.333
34.7939 11.010 0.339
34.8144 10.354 0.328
34.8349 10.667 0.333
34.8553 9.813 0.320
34.8758 10.521 0.331
34.8963 10.531 0.331
34.9167 9.573 0.316
34.9372 9.615 0.316
34.9576 9.927 0.322
34.9781 9.792 0.319
34.9986 9.792 0.319
35.0190 9.604 0.316
35.0395 9.688 0.318
35.0600 10.333 0.328
35.0804 10.156 0.325
35.1009 10.135 0.325
35.1213 9.521 0.315
35.1418 10.021 0.323
35.1623 10.063 0.324
35.1827 9.833 0.320
35.2032 9.844 0.320
35.2237 10.052 0.324
35.2441 10.229 0.326
35.2646 9.979 0.322
35.2850 9.781 0.319
35.3055 9.990 0.323
35.3260 9.458 0.314
35.3464 10.250 0.327
35.3669 9.365 0.312
35.3874 9.958 0.322
35.4078 9.094 0.308
35.4283 9.219 0.310
35.4487 9.000 0.306
35.4692 8.781 0.302
35.4897 9.531 0.315
35.5101 8.969 0.306
35.5306 9.229 0.310
35.5511 9.000 0.306
35.5715 9.021 0.307
35.5920 8.865 0.304
35.6125 8.469 0.297
35.6329 9.083 0.308
35.6534 8.333 0.295
35.6738 8.802 0.303
35.6943 9.000 0.306
35.7148 8.990 0.306
35.7352 9.198 0.310
35.7557 8.677 0.301
35.7762 8.698 0.301
35.7966 9.000 0.306
35.8171 8.677 0.301
35.8375 8.469 0.297
35.8580 8.885 0.304
35.8785 8.896 0.304
35.8989 8.979 0.306
35.9194 9.208 0.310
35.9399 9.583 0.316
35.9603 9.167 0.309
35.9808 9.531 0.315
36.0012 9.594 0.316
36.0217 9.500 0.315
36.0422 9.938 0.322
36.0626 9.531 0.315
36.0831 9.188 0.309
36.1036 9.146 0.309
36.1240 9.073 0.307
36.1445 9.125 0.308
36.1649 9.094 0.308
36.1854 8.854 0.304
36.2059 9.635 0.317
36.2263 8.885 0.304
36.2468 8.813 0.303
36.2673 9.219 0.310
36.2877 8.969 0.306
36.3082 9.552 0.315
36.3286 9.427 0.313
36.3491 8.906 0.305
36.3696 9.760 0.319
36.3900 8.896 0.304
36.4105 9.771 0.319
36.4310 9.635 0.317
36.4514 9.417 0.313
36.4719 9.469 0.314
36.4924 8.781 0.302
36.5128 9.219 0.310
36.5333 9.510 0.315
36.5537 9.313 0.311
36.5742 9.781 0.319
36.5947 10.656 0.333
36.6151 10.427 0.330
36.6356 10.646 0.333
36.6561 10.813 0.336
36.6765 12.115 0.355
36.6970 12.990 0.368
36.7174 13.167 0.370
36.7379 13.469 0.375
36.7584 12.979 0.368
36.7788 12.000 0.354
36.7993 11.979 0.353
36.8198 11.833 0.351
36.8402 10.969 0.338
36.8607 11.125 0.340
36.8811 10.208 0.326
36.9016 9.781 0.319
36.9221 9.375 0.313
36.9425 9.427 0.313
36.9630 8.615 0.300
36.9835 9.021 0.307
37.0039 8.542 0.298
37.0244 8.563 0.299
37.0448 8.948 0.305
37.0653 8.740 0.302
37.0858 8.552 0.298
37.1062 9.000 0.306
37.1267 8.979 0.306
37.1472 8.823 0.303
37.1676 9.042 0.307
37.1881 9.240 0.310
37.2085 9.938 0.322
37.2290 9.177 0.309
37.2495 9.365 0.312
37.2699 9.677 0.317
37.2904 9.052 0.307
37.3109 9.750 0.319
37.3313 9.094 0.308
37.3518 9.521 0.315
37.3723 9.688 0.318
37.3927 9.323 0.312
37.4132 9.073 0.307
37.4336 9.052 0.307
37.4541 9.260 0.311
37.4746 8.583 0.299
37.4950 8.583 0.299
37.5155 8.302 0.294
37.5360 8.865 0.304
37.5564 8.365 0.295
37.5769 8.740 0.302
37.5973 8.333 0.295
37.6178 8.344 0.295
37.6383 8.542 0.298
37.6587 9.010 0.306
37.6792 8.490 0.297
37.6997 8.646 0.300
37.7201 8.833 0.303
37.7406 8.760 0.302
37.7610 8.771 0.302
37.7815 8.781 0.302
37.8020 8.792 0.303
37.8224 8.875 0.304
37.8429 9.271 0.311
37.8634 9.271 0.311
37.8838 8.510 0.298
37.9043 9.208 0.310
37.9247 8.240 0.293
37.9452 8.573 0.299
37.9657 8.458 0.297
37.9861 8.563 0.299
38.0066 8.260 0.293
38.0271 8.406 0.296
38.0475 8.646 0.300
38.0680 8.240 0.293
38.0885 8.427 0.296
38.1089 8.427 0.296
38.1294 8.396 0.296
38.1498 8.198 0.292
38.1703 8.094 0.290
38.1908 7.719 0.284
38.2112 8.302 0.294
38.2317 8.104 0.291
38.2522 8.125 0.291
38.2726 8.229 0.293
38.2931 8.167 0.292
38.3135 8.146 0.291
38.3340 7.781 0.285
38.3545 7.677 0.283
38.3749 7.792 0.285
38.3954 8.083 0.290
38.4159 7.906 0.287
38.4363 8.021 0.289
38.4568 8.250 0.293
38.4772 7.656 0.282
38.4977 8.021 0.289
38.5182 8.177 0.292
38.5386 7.990 0.288
38.5591 8.625 0.300
38.5796 8.208 0.292
38.6000 9.344 0.312
38.6205 8.833 0.303
38.6409 9.583 0.316
38.6614 12.188 0.356
38.6819 14.406 0.387
38.7023 15.896 0.407
38.7228 16.250 0.411
38.7433 13.281 0.372
38.7637 14.844 0.393
38.7842 16.646 0.416
38.8046 17.167 0.423
38.8251 14.938 0.394
38.8456 12.896 0.367
38.8660 11.792 0.350
38.8865 11.906 0.352
38.9070 12.604 0.362
38.9274 10.375 0.329
38.9479 10.229 0.326
38.9684 9.823 0.320
38.9888 8.615 0.300
39.0093 9.000 0.306
39.0297 9.021 0.307
39.0502 9.083 0.308
39.0707 8.896 0.304
39.0911 9.344 0.312
39.1116 9.375 0.313
39.1321 8.615 0.300
39.1525 9.469 0.314
39.1730 9.229 0.310
39.1934 9.708 0.318
39.2139 9.333 0.312
39.2344 9.479 0.314
39.2548 9.646 0.317
39.2753 10.188 0.326
39.2958 9.719 0.318
39.3162 10.302 0.328
39.3367 10.563 0.332
39.3571 9.927 0.322
39.3776 11.323 0.343
39.3981 10.594 0.332
39.4185 11.073 0.340
39.4390 10.656 0.333
39.4595 10.750 0.335
39.4799 10.604 0.332
39.5004 10.031 0.323
39.5208 10.167 0.325
39.5413 10.219 0.326
39.5618 10.479 0.330
39.5822 9.542 0.315
39.6027 9.802 0.320
39.6232 9.938 0.322
39.6436 8.823 0.303
39.6641 8.646 0.300
39.6845 9.115 0.308
39.7050 8.573 0.299
39.7255 8.698 0.301
39.7459 8.990 0.306
39.7664 8.135 0.291
39.7869 7.958 0.288
39.8073 8.625 0.300
39.8278 7.969 0.288
39.8483 8.219 0.293
39.8687 8.000 0.289
39.8892 8.406 0.296
39.9096 8.208 0.292
39.9301 7.948 0.288
39.9506 7.948 0.288
39.9710 8.188 0.292
39.9915 8.479 0.297
40.0120 7.948 0.288
40.0324 7.604 0.281
40.0529 8.073 0.290
40.0733 7.594 0.281
40.0938 7.906 0.287
40.1143 7.854 0.286
40.1347 7.542 0.280
40.1552 7.677 0.283
40.1757 8.010 0.289
40.1961 8.313 0.294
40.2166 8.375 0.295
40.2370 7.781 0.285
40.2575 8.094 0.290
40.2780 8.052 0.290
40.2984 8.167 0.292
40.3189 7.896 0.287
40.3394 8.021 0.289
40.3598 7.740 0.284
40.3803 7.979 0.288
40.4007 8.135 0.291
40.4212 8.292 0.294
40.4417 8.292 0.294
40.4621 8.135 0.291
40.4826 7.677 0.283
40.5031 8.135 0.291
40.5235 8.021 0.289
40.5440 8.021 0.289
40.5644 7.938 0.288
40.5849 7.865 0.286
40.6054 7.615 0.282
40.6258 8.115 0.291
40.6463 8.469 0.297
40.6668 8.240 0.293
40.6872 8.031 0.289
40.7077 8.375 0.295
40.7282 8.583 0.299
40.7486 8.646 0.300
40.7691 8.854 0.304
40.7895 9.135 0.308
40.8100 9.281 0.311
40.8305 8.813 0.303
40.8509 10.344 0.328
40.8714 9.875 0.321
40.8919 9.969 0.322
40.9123 10.167 0.325
40.9328 10.906 0.337
40.9532 11.427 0.345
40.9737 11.750 0.350
40.9942 11.844 0.351
41.0146 12.865 0.366
41.0351 12.490 0.361
41.0556 12.771 0.365
41.0760 13.000 0.368
41.0965 13.104 0.369
41.1169 14.542 0.389
41.1374 15.594 0.403
41.1579 16.510 0.415
41.1783 18.365 0.437
41.1988 20.427 0.461
41.2193 26.260 0.523
41.2397 30.250 0.561
41.2602 32.583 0.583
41.2806 33.115 0.587
41.3011 32.438 0.581
41.3216 30.677 0.565
41.3420 28.760 0.547
41.3625 25.323 0.514
41.3830 23.917 0.499
41.4034 21.177 0.470
41.4239 18.802 0.443
41.4443 16.667 0.417
41.4648 13.656 0.377
41.4853 12.302 0.358
41.5057 12.135 0.356
41.5262 11.781 0.350
41.5467 11.510 0.346
41.5671 12.656 0.363
41.5876 13.740 0.378
41.6081 15.333 0.400
41.6285 14.698 0.391
41.6490 12.958 0.367
41.6694 12.490 0.361
41.6899 12.365 0.359
41.7104 13.302 0.372
41.7308 12.177 0.356
41.7513 11.938 0.353
41.7718 10.125 0.325
41.7922 9.510 0.315
41.8127 9.323 0.312
41.8331 9.385 0.313
41.8536 9.563 0.316
41.8741 8.917 0.305
41.8945 8.719 0.301
41.9150 9.125 0.308
41.9355 8.688 0.301
41.9559 9.052 0.307
41.9764 8.938 0.305
41.9968 9.010 0.306
42.0173 8.656 0.300
42.0378 8.260 0.293
42.0582 8.938 0.305
42.0787 8.802 0.303
42.0992 8.813 0.303
42.1196 8.740 0.302
42.1401 8.656 0.300
42.1605 8.771 0.302
42.1810 8.781 0.302
42.2015 7.938 0.288
42.2219 8.250 0.293
42.2424 8.792 0.303
42.2629 8.167 0.292
42.2833 8.167 0.292
42.3038 8.688 0.301
42.3243 8.760 0.302
42.3447 8.635 0.300
42.3652 8.594 0.299
42.3856 8.917 0.305
42.4061 8.510 0.298
42.4266 8.719 0.301
42.4470 8.510 0.298
42.4675 9.031 0.307
42.4880 9.656 0.317
42.5084 9.813 0.320
42.5289 9.906 0.321
42.5493 9.115 0.308
42.5698 9.990 0.323
42.5903 9.531 0.315
42.6107 10.177 0.326
42.6312 9.406 0.313
42.6517 9.521 0.315
42.6721 8.875 0.304
42.6926 8.823 0.303
42.7130 8.354 0.295
42.7335 8.542 0.298
42.7540 8.281 0.294
42.7744 8.500 0.298
42.7949 8.167 0.292
42.8154 7.823 0.285
42.8358 8.427 0.296
42.8563 8.208 0.292
42.8767 7.990 0.288
42.8972 7.771 0.285
42.9177 8.125 0.291
42.9381 8.521 0.298
42.9586 8.146 0.291
42.9791 9.010 0.306
42.9995 8.583 0.299
43.0200 8.635 0.300
43.0404 8.917 0.305
43.0609 8.615 0.300
43.0814 9.396 0.313
43.1018 9.844 0.320
43.1223 9.417 0.313
43.1428 8.948 0.305
43.1632 9.708 0.318
43.1837 9.854 0.320
43.2042 9.438 0.314
43.2246 9.365 0.312
43.2451 9.417 0.313
43.2655 9.010 0.306
43.2860 9.760 0.319
43.3065 9.188 0.309
43.3269 8.875 0.304
43.3474 9.146 0.309
43.3679 8.833 0.303
43.3883 9.208 0.310
43.4088 8.844 0.304
43.4292 8.927 0.305
43.4497 8.969 0.306
43.4702 8.542 0.298
43.4906 9.229 0.310
43.5111 8.458 0.297
43.5316 9.156 0.309
43.5520 9.156 0.309
43.5725 9.521 0.315
43.5929 10.021 0.323
43.6134 9.750 0.319
43.6339 9.417 0.313
43.6543 10.313 0.328
43.6748 9.833 0.320
43.6953 9.365 0.312
43.7157 9.156 0.309
43.7362 9.573 0.316
43.7566 9.479 0.314
43.7771 9.479 0.314
43.7976 9.333 0.312
43.8180 9.417 0.313
43.8385 9.115 0.308
43.8590 8.646 0.300
43.8794 9.490 0.314
43.8999 9.500 0.315
43.9203 9.115 0.308
43.9408 9.479 0.314
43.9613 9.396 0.313
43.9817 9.417 0.313
44.0022 9.167 0.309
44.0227 9.781 0.319
44.0431 9.719 0.318
44.0636 10.323 0.328
44.0841 10.021 0.323
44.1045 10.344 0.328
44.1250 9.552 0.315
44.1454 9.990 0.323
44.1659 9.948 0.322
44.1864 10.198 0.326
44.2068 9.990 0.323
44.2273 9.698 0.318
44.2478 9.708 0.318
44.2682 9.521 0.315
44.2887 9.375 0.313
44.3091 9.281 0.311
44.3296 9.375 0.313
44.3501 8.750 0.302
44.3705 9.479 0.314
44.3910 9.208 0.310
44.4115 9.073 0.307
44.4319 9.146 0.309
44.4524 8.823 0.303
44.4728 9.260 0.311
44.4933 8.490 0.297
44.5138 9.083 0.308
44.5342 8.698 0.301
44.5547 8.656 0.300
44.5752 9.146 0.309
44.5956 8.479 0.297
44.6161 8.802 0.303
44.6365 8.938 0.305
44.6570 8.323 0.294
44.6775 8.896 0.304
44.6979 8.552 0.298
44.7184 8.719 0.301
44.7389 8.792 0.303
44.7593 7.990 0.288
44.7798 8.385 0.296
44.8002 8.313 0.294
44.8207 8.115 0.291
44.8412 8.438 0.296
44.8616 8.010 0.289
44.8821 8.135 0.291
44.9026 8.156 0.291
44.9230 8.052 0.290
44.9435 7.344 0.277
44.9640 7.510 0.280
44.9844 7.885 0.287
45.0049 7.375 0.277
45.0253 7.500 0.280
45.0458 7.260 0.275
45.0663 7.438 0.278
45.0867 7.260 0.275
45.1072 7.375 0.277
45.1277 8.042 0.289
45.1481 7.563 0.281
45.1686 7.323 0.276
45.1890 7.333 0.276
45.2095 7.542 0.280
45.2300 7.750 0.284
45.2504 7.073 0.271
45.2709 7.583 0.281
45.2914 7.458 0.279
45.3118 7.521 0.280
45.3323 7.563 0.281
45.3527 7.979 0.288
45.3732 7.927 0.287
45.3937 7.396 0.278
45.4141 8.083 0.290
45.4346 7.573 0.281
45.4551 8.031 0.289
45.4755 7.333 0.276
45.4960 7.615 0.282
45.5164 7.677 0.283
45.5369 7.854 0.286
45.5574 7.854 0.286
45.5778 8.167 0.292
45.5983 8.063 0.290
45.6188 8.229 0.293
45.6392 8.229 0.293
45.6597 9.177 0.309
45.6801 9.573 0.316
45.7006 10.542 0.331
45.7211 11.354 0.344
45.7415 11.896 0.352
45.7620 12.281 0.358
45.7825 12.063 0.354
45.8029 12.073 0.355
45.8234 12.552 0.362
45.8439 12.625 0.363
45.8643 12.271 0.358
45.8848 11.635 0.348
45.9052 11.260 0.342
45.9257 9.688 0.318
45.9462 9.938 0.322
45.9666 9.781 0.319
45.9871 8.854 0.304
46.0076 9.354 0.312
46.0280 8.396 0.296
46.0485 8.052 0.290
46.0689 7.604 0.281
46.0894 7.646 0.282
46.1099 6.938 0.269
46.1303 7.656 0.282
46.1508 7.469 0.279
46.1713 7.542 0.280
46.1917 7.531 0.280
46.2122 7.667 0.283
46.2326 7.333 0.276
46.2531 7.406 0.278
46.2736 8.063 0.290
46.2940 7.552 0.280
46.3145 7.427 0.278
46.3350 7.365 0.277
46.3554 7.458 0.279
46.3759 7.469 0.279
46.3963 7.365 0.277
46.4168 7.865 0.286
46.4373 7.552 0.280
46.4577 7.729 0.284
46.4782 7.510 0.280
46.4987 7.917 0.287
46.5191 8.313 0.294
46.5396 8.167 0.292
46.5601 8.427 0.296
46.5805 8.385 0.296
46.6010 8.250 0.293
46.6214 9.115 0.308
46.6419 8.427 0.296
46.6624 9.094 0.308
46.6828 9.219 0.310
46.7033 8.979 0.306
46.7238 9.792 0.319
46.7442 9.448 0.314
46.7647 10.031 0.323
46.7851 10.688 0.334
46.8056 12.125 0.355
46.8261 13.573 0.376
46.8465 15.396 0.400
46.8670 16.333 0.412
46.8875 15.323 0.400
46.9079 14.125 0.384
46.9284 14.063 0.383
46.9488 15.438 0.401
46.9693 16.823 0.419
46.9898 17.104 0.422
47.0102 16.865 0.419
47.0307 17.615 0.428
47.0512 17.781 0.430
47.0716 18.333 0.437
47.0921 19.427 0.450
47.1125 20.510 0.462
47.1330 19.979 0.456
47.1535 19.917 0.455
47.1739 18.385 0.438
47.1944 17.885 0.432
47.2149 18.885 0.444
47.2353 17.823 0.431
47.2558 16.438 0.414
47.2762 15.563 0.403
47.2967 16.292 0.412
47.3172 14.427 0.388
47.3376 13.792 0.379
47.3581 13.552 0.376
47.3786 13.719 0.378
47.3990 13.302 0.372
47.4195 13.156 0.370
47.4400 12.469 0.360
47.4604 12.708 0.364
47.4809 11.990 0.353
47.5013 12.052 0.354
47.5218 11.854 0.351
47.5423 11.594 0.348
47.5627 11.563 0.347
47.5832 11.594 0.348
47.6037 11.021 0.339
47.6241 11.750 0.350
47.6446 11.656 0.348
47.6650 11.375 0.344
47.6855 11.927 0.352
47.7060 12.271 0.358
47.7264 11.677 0.349
47.7469 11.177 0.341
47.7674 10.990 0.338
47.7878 11.250 0.342
47.8083 10.885 0.337
47.8287 10.604 0.332
47.8492 10.615 0.333
47.8697 10.240 0.327
47.8901 9.917 0.321
47.9106 9.688 0.318
47.9311 10.021 0.323
47.9515 9.167 0.309
47.9720 9.500 0.315
47.9924 8.375 0.295
48.0129 8.563 0.299
48.0334 9.042 0.307
48.0538 8.813 0.303
48.0743 8.323 0.294
48.0948 8.417 0.296
48.1152 8.073 0.290
48.1357 7.906 0.287
48.1561 7.677 0.283
48.1766 8.031 0.289
48.1971 7.813 0.285
48.2175 7.896 0.287
48.2380 7.875 0.286
48.2585 7.438 0.278
48.2789 7.198 0.274
48.2994 7.292 0.276
48.3199 7.771 0.285
48.3403 8.073 0.290
48.3608 7.542 0.280
48.3812 7.281 0.275
48.4017 6.917 0.268
48.4222 7.479 0.279
48.4426 7.875 0.286
48.4631 7.802 0.285
48.4836 7.875 0.286
48.5040 8.135 0.291
48.5245 7.719 0.284
48.5449 7.740 0.284
48.5654 7.990 0.288
48.5859 7.594 0.281
48.6063 7.490 0.279
48.6268 7.792 0.285
48.6473 7.760 0.284
48.6677 7.510 0.280
48.6882 7.771 0.285
48.7086 7.375 0.277
48.7291 7.208 0.274
48.7496 7.354 0.277
48.7700 7.073 0.271
48.7905 7.635 0.282
48.8110 7.219 0.274
48.8314 7.458 0.279
48.8519 7.479 0.279
48.8723 7.438 0.278
48.8928 7.167 0.273
48.9133 7.792 0.285
48.9337 7.615 0.282
48.9542 7.573 0.281
48.9747 7.969 0.288
48.9951 7.781 0.285
49.0156 7.885 0.287
49.0360 7.708 0.283
49.0565 7.448 0.279
49.0770 8.406 0.296
49.0974 8.021 0.289
49.1179 7.490 0.279
49.1384 7.792 0.285
49.1588 7.375 0.277
49.1793 7.615 0.282
49.1998 7.417 0.278
49.2202 8.260 0.293
49.2407 7.573 0.281
49.2611 7.948 0.288
49.2816 7.635 0.282
49.3021 7.865 0.286
49.3225 8.146 0.291
49.3430 8.313 0.294
49.3635 8.188 0.292
49.3839 7.781 0.285
49.4044 8.115 0.291
49.4248 9.156 0.309
49.4453 8.698 0.301
49.4658 9.135 0.308
49.4862 9.594 0.316
49.5067 9.094 0.308
49.5272 9.313 0.311
49.5476 9.229 0.310
49.5681 9.469 0.314
49.5885 9.708 0.318
49.6090 9.417 0.313
49.6295 9.635 0.317
49.6499 10.208 0.326
49.6704 9.500 0.315
49.6909 10.146 0.325
49.7113 10.063 0.324
49.7318 9.667 0.317
49.7522 9.740 0.319
49.7727 10.167 0.325
49.7932 10.146 0.325
49.8136 10.156 0.325
49.8341 11.135 0.341
49.8546 10.677 0.333
49.8750 10.375 0.329
49.8955 10.490 0.331
49.9159 10.083 0.324
49.9364 10.396 0.329
49.9569 10.323 0.328
49.9773 10.177 0.326
49.9978 10.396 0.329
50.0183 10.260 0.327
50.0387 10.042 0.323
50.0592 9.688 0.318
50.0797 10.083 0.324
50.1001 9.094 0.308
50.1206 9.063 0.307
50.1410 8.771 0.302
50.1615 8.469 0.297
50.1820 9.073 0.307
50.2024 8.333 0.295
50.2229 8.396 0.296
50.2434 7.948 0.288
50.2638 8.188 0.292
50.2843 8.448 0.297
50.3047 8.177 0.292
50.3252 7.802 0.285
50.3457 7.990 0.288
50.3661 7.719 0.284
50.3866 8.198 0.292
50.4071 7.958 0.288
50.4275 7.740 0.284
50.4480 7.656 0.282
50.4684 8.302 0.294
50.4889 8.552 0.298
50.5094 8.000 0.289
50.5298 8.073 0.290
50.5503 8.448 0.297
50.5708 8.010 0.289
50.5912 8.698 0.301
50.6117 8.844 0.304
50.6321 8.302 0.294
50.6526 8.250 0.293
50.6731 8.563 0.299
50.6935 9.042 0.307
50.7140 10.135 0.325
50.7345 10.479 0.330
50.7549 12.448 0.360
50.7754 13.229 0.371
50.7959 15.406 0.401
50.8163 16.250 0.411
50.8368 14.896 0.394
50.8572 11.802 0.351
50.8777 11.479 0.346
50.8982 11.813 0.351
50.9186 11.979 0.353
50.9391 12.323 0.358
50.9596 11.760 0.350
50.9800 10.385 0.329
51.0005 9.448 0.314
51.0209 9.052 0.307
51.0414 8.792 0.303
51.0619 7.865 0.286
51.0823 7.469 0.279
51.1028 7.677 0.283
51.1233 7.292 0.276
51.1437 6.885 0.268
51.1642 7.375 0.277
51.1846 7.146 0.273
51.2051 6.927 0.269
51.2256 7.531 0.280
51.2460 6.813 0.266
51.2665 6.990 0.270
51.2870 6.990 0.270
51.3074 7.594 0.281
51.3279 6.677 0.264
51.3483 7.177 0.273
51.3688 6.625 0.263
51.3893 7.177 0.273
51.4097 7.115 0.272
51.4302 7.094 0.272
51.4507 7.458 0.279
51.4711 7.740 0.284
51.4916 7.448 0.279
51.5120 7.354 0.277
51.5325 7.958 0.288
51.5530 8.083 0.290
51.5734 9.375 0.313
51.5939 9.510 0.315
51.6144 11.521 0.346
51.6348 13.667 0.377
51.6553 15.969 0.408
51.6758 20.854 0.466
51.6962 29.354 0.553
51.7167 29.906 0.558
51.7371 25.406 0.514
51.7576 22.760 0.487
51.7781 19.896 0.455
51.7985 18.531 0.439
51.8190 20.604 0.463
51.8395 23.771 0.498
51.8599 23.302 0.493
51.8804 19.208 0.447
51.9008 16.823 0.419
51.9213 14.156 0.384
51.9418 12.042 0.354
51.9622 11.198 0.342
51.9827 11.115 0.340
52.0032 9.167 0.309
52.0236 10.052 0.324
52.0441 8.167 0.292
52.0645 8.250 0.293
52.0850 7.604 0.281
52.1055 7.042 0.271
52.1259 7.521 0.280
52.1464 6.906 0.268
52.1669 6.750 0.265
52.1873 7.104 0.272
52.2078 6.635 0.263
52.2282 6.635 0.263
52.2487 7.188 0.274
52.2692 6.729 0.265
52.2896 6.792 0.266
52.3101 6.583 0.262
52.3306 6.938 0.269
52.3510 6.542 0.261
52.3715 6.750 0.265
52.3919 6.125 0.253
52.4124 6.479 0.260
52.4329 6.240 0.255
52.4533 6.167 0.253
52.4738 6.510 0.260
52.4943 6.594 0.262
52.5147 6.490 0.260
52.5352 6.469 0.260
52.5557 6.417 0.259
52.5761 6.885 0.268
52.5966 6.031 0.251
52.6170 7.000 0.270
52.6375 6.698 0.264
52.6580 6.500 0.260
52.6784 6.656 0.263
52.6989 6.500 0.260
52.7194 6.948 0.269
52.7398 6.177 0.254
52.7603 6.667 0.264
52.7807 6.375 0.258
52.8012 6.396 0.258
52.8217 7.260 0.275
52.8421 6.625 0.263
52.8626 7.042 0.271
52.8831 7.146 0.273
52.9035 6.865 0.267
52.9240 6.510 0.260
52.9444 6.802 0.266
52.9649 6.844 0.267
52.9854 6.708 0.264
53.0058 6.948 0.269
53.0263 6.729 0.265
53.0468 6.875 0.268
53.0672 7.552 0.280
53.0877 6.760 0.265
53.1081 7.021 0.270
53.1286 7.240 0.275
53.1491 7.219 0.274
53.1695 7.219 0.274
53.1900 7.115 0.272
53.2105 6.896 0.268
53.2309 7.354 0.277
53.2514 6.969 0.269
53.2718 7.354 0.277
53.2923 7.125 0.272
53.3128 7.177 0.273
53.3332 6.979 0.270
53.3537 7.406 0.278
53.3742 6.969 0.269
53.3946 7.219 0.274
53.4151 7.052 0.271
53.4356 6.542 0.261
53.4560 7.094 0.272
53.4765 6.771 0.266
53.4969 6.646 0.263
53.5174 6.667 0.264
53.5379 7.073 0.271
53.5583 6.396 0.258
53.5788 6.521 0.261
53.5993 6.885 0.268
53.6197 6.427 0.259
53.6402 6.615 0.262
53.6606 6.375 0.258
53.6811 7.240 0.275
53.7016 6.427 0.259
53.7220 6.854 0.267
53.7425 6.281 0.256
53.7630 6.656 0.263
53.7834 6.490 0.260
53.8039 7.052 0.271
53.8243 6.760 0.265
53.8448 6.427 0.259
53.8653 6.698 0.264
53.8857 6.885 0.268
53.9062 6.813 0.266
53.9267 6.938 0.269
53.9471 7.698 0.283
53.9676 6.990 0.270
53.9880 6.906 0.268
54.0085 7.021 0.270
54.0290 7.177 0.273
54.0494 7.708 0.283
54.0699 7.219 0.274
54.0904 7.813 0.285
54.1108 7.240 0.275
54.1313 6.917 0.268
54.1517 7.344 0.277
54.1722 7.885 0.287
54.1927 7.917 0.287
54.2131 7.719 0.284
54.2336 8.042 0.289
54.2541 8.000 0.289
54.2745 8.635 0.300
54.2950 8.885 0.304
54.3155 9.542 0.315
54.3359 9.615 0.316
54.3564 10.104 0.324
54.3768 9.688 0.318
54.3973 9.156 0.309
54.4178 8.875 0.304
54.4382 8.313 0.294
54.4587 8.354 0.295
54.4792 8.052 0.290
54.4996 8.354 0.295
54.5201 8.167 0.292
54.5405 8.052 0.290
54.5610 7.479 0.279
54.5815 6.906 0.268
54.6019 6.604 0.262
54.6224 6.354 0.257
54.6429 6.271 0.256
54.6633 6.563 0.261
54.6838 6.594 0.262
54.7042 6.323 0.257
54.7247 6.635 0.263
54.7452 6.240 0.255
54.7656 6.042 0.251
54.7861 6.542 0.261
54.8066 6.458 0.259
54.8270 5.750 0.245
54.8475 6.135 0.253
54.8679 6.302 0.256
54.8884 6.385 0.258
54.9089 6.625 0.263
54.9293 6.458 0.259
54.9498 6.490 0.260
54.9703 6.063 0.251
54.9907 6.833 0.267
55.0112 6.458 0.259
55.0317 6.542 0.261
55.0521 6.625 0.263
55.0726 6.490 0.260
55.0930 6.844 0.267
55.1135 7.125 0.272
55.1340 6.865 0.267
55.1544 6.583 0.262
55.1749 6.594 0.262
55.1954 6.792 0.266
55.2158 6.531 0.261
55.2363 6.740 0.265
55.2567 6.594 0.262
55.2772 6.646 0.263
55.2977 6.427 0.259
55.3181 6.365 0.257
55.3386 6.760 0.265
55.3591 6.167 0.253
55.3795 6.250 0.255
55.4000 6.635 0.263
55.4204 6.094 0.252
55.4409 6.802 0.266
55.4614 6.198 0.254
55.4818 6.281 0.256
55.5023 6.667 0.264
55.5228 6.219 0.255
55.5432 6.073 0.252
55.5637 6.448 0.259
55.5841 6.802 0.266
55.6046 6.938 0.269
55.6251 6.333 0.257
55.6455 6.135 0.253
55.6660 6.521 0.261
55.6865 5.792 0.246
55.7069 6.865 0.267
55.7274 6.344 0.257
55.7478 6.531 0.261
55.7683 6.240 0.255
55.7888 6.563 0.261
55.8092 6.781 0.266
55.8297 7.052 0.271
55.8502 6.729 0.265
55.8706 7.323 0.276
55.8911 7.823 0.285
55.9116 6.948 0.269
55.9320 7.479 0.279
55.9525 7.010 0.270
55.9729 7.521 0.280
55.9934 7.813 0.285
56.0139 7.146 0.273
56.0343 6.833 0.267
56.0548 7.781 0.285
56.0753 7.344 0.277
56.0957 7.292 0.276
56.1162 7.906 0.287
56.1366 7.156 0.273
56.1571 7.135 0.273
56.1776 7.323 0.276
56.1980 7.438 0.278
56.2185 7.448 0.279
56.2390 7.135 0.273
56.2594 7.938 0.288
56.2799 7.938 0.288
56.3003 8.156 0.291
56.3208 8.896 0.304
56.3413 10.156 0.325
56.3617 11.656 0.348
56.3822 12.740 0.364
56.4027 13.917 0.381
56.4231 14.365 0.387
56.4436 14.292 0.386
56.4640 13.896 0.380
56.4845 12.521 0.361
56.5050 13.385 0.373
56.5254 13.396 0.374
56.5459 14.510 0.389
56.5664 14.604 0.390
56.5868 13.313 0.372
56.6073 12.031 0.354
56.6277 11.292 0.343
56.6482 9.781 0.319
56.6687 9.865 0.321
56.6891 9.188 0.309
56.7096 9.625 0.317
56.7301 8.531 0.298
56.7505 8.438 0.296
56.7710 7.458 0.279
56.7915 7.010 0.270
56.8119 7.000 0.270
56.8324 6.833 0.267
56.8528 6.958 0.269
56.8733 6.667 0.264
56.8938 7.333 0.276
56.9142 7.021 0.270
56.9347 6.990 0.270
56.9552 6.760 0.265
56.9756 6.865 0.267
56.9961 6.896 0.268
57.0165 6.542 0.261
57.0370 6.833 0.267
57.0575 6.917 0.268
57.0779 6.604 0.262
57.0984 6.604 0.262
57.1189 6.917 0.268
57.1393 6.594 0.262
57.1598 5.906 0.248
57.1802 6.635 0.263
57.2007 5.917 0.248
57.2212 6.354 0.257
57.2416 6.458 0.259
57.2621 6.531 0.261
57.2826 6.281 0.256
57.3030 6.490 0.260
57.3235 6.896 0.268
57.3439 6.948 0.269
57.3644 7.208 0.274
57.3849 6.281 0.256
57.4053 6.979 0.270
57.4258 6.760 0.265
57.4463 6.990 0.270
57.4667 6.875 0.268
57.4872 6.719 0.265
57.5076 7.021 0.270
57.5281 6.750 0.265
57.5486 6.573 0.262
57.5690 6.958 0.269
57.5895 6.260 0.255
57.6100 6.469 0.260
57.6304 6.323 0.257
57.6509 6.469 0.260
57.6714 6.917 0.268
57.6918 6.188 0.254
57.7123 6.750 0.265
57.7327 5.927 0.248
57.7532 6.094 0.252
57.7737 6.760 0.265
57.7941 6.667 0.264
57.8146 6.229 0.255
57.8351 6.281 0.256
57.8555 6.594 0.262
57.8760 6.521 0.261
57.8964 6.333 0.257
57.9169 6.906 0.268
57.9374 6.719 0.265
57.9578 6.667 0.264
57.9783 7.031 0.271
57.9988 6.729 0.265
58.0192 7.156 0.273
58.0397 6.750 0.265
58.0601 7.063 0.271
58.0806 6.688 0.264
58.1011 6.240 0.255
58.1215 6.760 0.265
58.1420 7.292 0.276
58.1625 6.979 0.270
58.1829 6.865 0.267
58.2034 6.302 0.256
58.2238 6.760 0.265
58.2443 6.990 0.270
58.2648 6.719 0.265
58.2852 6.542 0.261
58.3057 7.219 0.274
58.3262 6.427 0.259
58.3466 6.208 0.254
58.3671 6.969 0.269
58.3875 6.760 0.265
58.4080 6.896 0.268
58.4285 6.927 0.269
58.4489 7.063 0.271
58.4694 7.094 0.272
58.4899 6.865 0.267
58.5103 6.906 0.268
58.5308 7.823 0.285
58.5513 7.635 0.282
58.5717 7.188 0.274
58.5922 7.115 0.272
58.6126 7.656 0.282
58.6331 7.396 0.278
58.6536 7.208 0.274
58.6740 7.406 0.278
58.6945 7.271 0.275
58.7150 7.510 0.280
58.7354 7.438 0.278
58.7559 6.969 0.269
58.7763 7.073 0.271
58.7968 6.448 0.259
58.8173 7.177 0.273
58.8377 7.104 0.272
58.8582 7.146 0.273
58.8787 7.167 0.273
58.8991 7.333 0.276
58.9196 6.542 0.261
58.9400 6.906 0.268
58.9605 7.135 0.273
58.9810 6.448 0.259
59.0014 6.708 0.264
59.0219 6.927 0.269
59.0424 6.510 0.260
59.0628 6.729 0.265
59.0833 7.208 0.274
59.1037 7.146 0.273
59.1242 7.448 0.279
59.1447 7.365 0.277
59.1651 7.344 0.277
59.1856 7.500 0.280
59.2061 7.229 0.274
59.2265 7.594 0.281
59.2470 8.021 0.289
59.2675 8.177 0.292
59.2879 8.365 0.295
59.3084 7.823 0.285
59.3288 8.146 0.291
59.3493 8.781 0.302
59.3698 8.875 0.304
59.3902 9.219 0.310
59.4107 8.771 0.302
59.4312 8.583 0.299
59.4516 8.760 0.302
59.4721 8.323 0.294
59.4925 8.240 0.293
59.5130 8.594 0.299
59.5335 8.833 0.303
59.5539 8.177 0.292
59.5744 8.479 0.297
59.5949 8.198 0.292
59.6153 8.229 0.293
59.6358 7.802 0.285
59.6562 7.073 0.271
59.6767 7.177 0.273
59.6972 7.083 0.272
59.7176 6.948 0.269
59.7381 7.240 0.275
59.7586 7.823 0.285
59.7790 8.115 0.291
59.7995 8.688 0.301
59.8199 9.219 0.310
59.8404 10.167 0.325
59.8609 10.010 0.323
59.8813 10.938 0.338
59.9018 9.750 0.319
59.9223 10.365 0.329
59.9427 11.552 0.347
59.9632 12.208 0.357
59.9836 12.271 0.358
60.0041 12.188 0.356
60.0246 12.073 0.355
60.0450 10.021 0.323
60.0655 9.906 0.321
60.0860 9.031 0.307
60.1064 10.104 0.324
60.1269 9.646 0.317
60.1474 8.938 0.305
60.1678 8.271 0.294
60.1883 8.500 0.298
60.2087 8.406 0.296
60.2292 7.177 0.273
60.2497 7.052 0.271
60.2701 6.917 0.268
60.2906 7.031 0.271
60.3111 6.604 0.262
60.3315 6.979 0.270
60.3520 6.688 0.264
60.3724 6.979 0.270
60.3929 7.000 0.270
60.4134 6.813 0.266
60.4338 7.229 0.274
60.4543 6.906 0.268
60.4748 6.833 0.267
60.4952 6.688 0.264
60.5157 7.104 0.272
60.5361 7.271 0.275
60.5566 7.240 0.275
60.5771 6.865 0.267
60.5975 7.354 0.277
60.6180 7.406 0.278
60.6385 6.833 0.267
60.6589 7.563 0.281
60.6794 7.104 0.272
60.6998 7.208 0.274
60.7203 7.688 0.283
60.7408 6.552 0.261
60.7612 7.115 0.272
60.7817 7.000 0.270
60.8022 6.750 0.265
60.8226 6.458 0.259
60.8431 6.469 0.260
60.8635 6.594 0.262
60.8840 6.521 0.261
60.9045 6.802 0.266
60.9249 6.865 0.267
60.9454 6.385 0.258
60.9659 7.010 0.270
60.9863 6.469 0.260
61.0068 6.656 0.263
61.0273 6.135 0.253
61.0477 6.583 0.262
61.0682 6.281 0.256
61.0886 6.583 0.262
61.1091 6.896 0.268
61.1296 6.573 0.262
61.1500 6.229 0.255
61.1705 5.729 0.244
61.1910 6.385 0.258
61.2114 6.281 0.256
61.2319 6.510 0.260
61.2523 5.958 0.249
61.2728 5.521 0.240
61.2933 6.406 0.258
61.3137 6.813 0.266
61.3342 5.646 0.243
61.3547 6.104 0.252
61.3751 6.656 0.263
61.3956 6.042 0.251
61.4160 6.240 0.255
61.4365 5.760 0.245
61.4570 6.135 0.253
61.4774 5.927 0.248
61.4979 5.948 0.249
61.5184 5.813 0.246
61.5388 5.802 0.246
61.5593 6.094 0.252
61.5797 6.010 0.250
61.6002 5.969 0.249
61.6207 6.104 0.252
61.6411 5.563 0.241
61.6616 6.292 0.256
61.6821 6.521 0.261
61.7025 5.594 0.241
61.7230 5.448 0.238
61.7434 6.188 0.254
61.7639 6.260 0.255
61.7844 5.896 0.248
61.8048 6.292 0.256
61.8253 5.531 0.240
61.8458 5.927 0.248
61.8662 6.146 0.253
61.8867 6.260 0.255
61.9072 6.104 0.252
61.9276 5.833 0.247
61.9481 6.302 0.256
61.9685 5.740 0.245
61.9890 6.427 0.259
62.0095 6.396 0.258
62.0299 6.208 0.254
62.0504 6.583 0.262
62.0709 7.604 0.281
62.0913 7.594 0.281
62.1118 8.354 0.295
62.1322 9.667 0.317
62.1527 10.063 0.324
62.1732 12.865 0.366
62.1936 13.292 0.372
62.2141 14.094 0.383
62.2346 13.354 0.373
62.2550 13.594 0.376
62.2755 13.167 0.370
62.2959 12.719 0.364
62.3164 12.448 0.360
62.3369 13.260 0.372
62.3573 14.979 0.395
62.3778 14.833 0.393
62.3983 14.458 0.388
62.4187 14.917 0.394
62.4392 14.073 0.383
62.4596 13.052 0.369
62.4801 12.531 0.361
62.5006 11.844 0.351
62.5210 11.510 0.346
62.5415 12.698 0.364
62.5620 12.313 0.358
62.5824 12.375 0.359
62.6029 11.583 0.347
62.6233 10.333 0.328
62.6438 10.042 0.323
62.6643 8.594 0.299
62.6847 8.479 0.297
62.7052 8.656 0.300
62.7257 8.229 0.293
62.7461 8.229 0.293
62.7666 8.104 0.291
62.7871 7.656 0.282
62.8075 6.813 0.266
62.8280 6.854 0.267
62.8484 6.750 0.265
62.8689 6.573 0.262
62.8894 6.635 0.263
62.9098 6.417 0.259
62.9303 6.146 0.253
62.9508 5.938 0.249
62.9712 5.917 0.248
62.9917 5.521 0.240
63.0121 5.906 0.248
63.0326 5.542 0.240
63.0531 6.146 0.253
63.0735 5.729 0.244
63.0940 5.927 0.248
63.1145 5.833 0.247
63.1349 5.552 0.240
63.1554 5.594 0.241
63.1758 5.906 0.248
63.1963 5.583 0.241
63.2168 5.583 0.241
63.2372 5.583 0.241
63.2577 5.604 0.242
63.2782 5.573 0.241
63.2986 5.552 0.240
63.3191 6.000 0.250
63.3395 5.583 0.241
63.3600 5.354 0.236
63.3805 5.323 0.235
63.4009 5.333 0.236
63.4214 6.042 0.251
63.4419 5.729 0.244
63.4623 5.979 0.250
63.4828 6.333 0.257
63.5033 6.417 0.259
63.5237 6.479 0.260
63.5442 6.979 0.270
63.5646 6.656 0.263
63.5851 7.156 0.273
63.6056 7.333 0.276
63.6260 7.010 0.270
63.6465 7.188 0.274
63.6670 7.354 0.277
63.6874 7.573 0.281
63.7079 7.375 0.277
63.7283 7.167 0.273
63.7488 7.302 0.276
63.7693 7.167 0.273
63.7897 7.115 0.272
63.8102 6.615 0.262
63.8307 6.854 0.267
63.8511 6.344 0.257
63.8716 6.240 0.255
63.8920 6.521 0.261
63.9125 6.698 0.264
63.9330 6.104 0.252
63.9534 6.063 0.251
63.9739 6.073 0.252
63.9944 6.375 0.258
64.0148 6.125 0.253
64.0353 6.104 0.252
64.0557 6.354 0.257
64.0762 6.542 0.261
64.0967 6.271 0.256
64.1171 6.479 0.260
64.1376 7.292 0.276
64.1581 7.323 0.276
64.1785 6.594 0.262
64.1990 7.104 0.272
64.2194 7.167 0.273
64.2399 7.490 0.279
64.2604 7.646 0.282
64.2808 7.344 0.277
64.3013 6.917 0.268
64.3218 6.958 0.269
64.3422 6.760 0.265
64.3627 6.958 0.269
64.3832 6.802 0.266
64.4036 6.604 0.262
64.4241 6.521 0.261
64.4445 6.385 0.258
64.4650 6.510 0.260
64.4855 6.042 0.251
64.5059 5.792 0.246
64.5264 6.052 0.251
64.5469 6.073 0.252
64.5673 5.844 0.247
64.5878 5.188 0.232
64.6082 5.313 0.235
64.6287 5.531 0.240
64.6492 5.323 0.235
64.6696 5.896 0.248
64.6901 5.375 0.237
64.7106 5.677 0.243
64.7310 5.240 0.234
64.7515 5.865 0.247
64.7719 5.656 0.243
64.7924 5.719 0.244
64.8129 5.302 0.235
64.8333 5.438 0.238
64.8538 5.583 0.241
64.8743 5.188 0.232
64.8947 5.375 0.237
64.9152 5.385 0.237
64.9356 5.573 0.241
64.9561 5.052 0.229
64.9766 5.208 0.233
64.9970 5.323 0.235
65.0175 5.500 0.239
65.0380 5.573 0.241
65.0584 5.990 0.250
65.0789 5.500 0.239
65.0993 5.625 0.242
65.1198 5.667 0.243
65.1403 5.625 0.242
65.1607 5.313 0.235
65.1812 5.302 0.235
65.2017 5.500 0.239
65.2221 5.885 0.248
65.2426 5.719 0.244
65.2631 5.854 0.247
65.2835 5.635 0.242
65.3040 5.479 0.239
65.3244 5.792 0.246
65.3449 5.771 0.245
65.3654 5.385 0.237
65.3858 5.844 0.247
65.4063 5.375 0.237
65.4268 5.042 0.229
65.4472 5.365 0.236
65.4677 5.302 0.235
65.4881 5.000 0.228
65.5086 5.146 0.232
65.5291 5.177 0.232
65.5495 5.417 0.238
65.5700 6.063 0.251
65.5905 5.927 0.248
65.6109 5.479 0.239
65.6314 5.469 0.239
65.6518 4.906 0.226
65.6723 5.365 0.236
65.6928 5.406 0.237
65.7132 5.573 0.241
65.7337 5.510 0.240
65.7542 5.323 0.235
65.7746 5.156 0.232
65.7951 5.250 0.234
65.8155 5.302 0.235
65.8360 5.490 0.239
65.8565 5.854 0.247
65.8769 5.469 0.239
65.8974 5.500 0.239
65.9179 5.344 0.236
65.9383 5.531 0.240
65.9588 5.333 0.236
65.9792 4.771 0.223
65.9997 5.417 0.238
66.0202 4.979 0.228
66.0406 5.552 0.240
66.0611 5.219 0.233
66.0816 5.802 0.246
66.1020 5.448 0.238
66.1225 5.500 0.239
66.1430 5.010 0.228
66.1634 5.302 0.235
66.1839 5.021 0.229
66.2043 5.854 0.247
66.2248 5.469 0.239
66.2453 5.333 0.236
66.2657 5.604 0.242
66.2862 4.948 0.227
66.3067 5.021 0.229
66.3271 5.177 0.232
66.3476 5.667 0.243
66.3680 5.365 0.236
66.3885 5.583 0.241
66.4090 5.646 0.243
66.4294 5.198 0.233
66.4499 5.729 0.244
66.4704 5.656 0.243
66.4908 5.750 0.245
66.5113 6.115 0.252
66.5317 5.365 0.236
66.5522 4.948 0.227
66.5727 5.438 0.238
66.5931 5.531 0.240
66.6136 5.229 0.233
66.6341 5.479 0.239
66.6545 5.469 0.239
66.6750 4.875 0.225
66.6954 5.365 0.236
66.7159 5.115 0.231
66.7364 5.083 0.230
66.7568 4.771 0.223
66.7773 5.042 0.229
66.7978 5.010 0.228
66.8182 5.094 0.230
66.8387 4.885 0.226
66.8591 5.073 0.230
66.8796 4.688 0.221
66.9001 4.865 0.225
66.9205 5.115 0.231
66.9410 4.917 0.226
66.9615 4.625 0.219
66.9819 5.240 0.234
67.0024 5.063 0.230
67.0229 5.188 0.232
67.0433 5.000 0.228
67.0638 4.958 0.227
67.0842 5.313 0.235
67.1047 5.260 0.234
67.1252 5.167 0.232
67.1456 5.531 0.240
67.1661 5.760 0.245
67.1866 5.833 0.247
67.2070 5.698 0.244
67.2275 6.698 0.264
67.2479 6.531 0.261
67.2684 6.354 0.257
67.2889 6.385 0.258
67.3093 5.646 0.243
67.3298 5.781 0.245
67.3503 6.042 0.251
67.3707 6.323 0.257
67.3912 6.385 0.258
67.4116 6.563 0.261
67.4321 6.010 0.250
67.4526 5.917 0.248
67.4730 5.344 0.236
67.4935 5.438 0.238
67.5140 5.740 0.245
67.5344 5.229 0.233
67.5549 5.385 0.237
67.5753 5.385 0.237
67.5958 5.354 0.236
67.6163 5.354 0.236
67.6367 5.354 0.236
67.6572 5.510 0.240
67.6777 5.104 0.231
67.6981 5.063 0.230
67.7186 5.333 0.236
67.7391 5.344 0.236
67.7595 4.948 0.227
67.7800 4.802 0.224
67.8004 5.417 0.238
67.8209 5.000 0.228
67.8414 5.250 0.234
67.8618 4.750 0.222
67.8823 4.958 0.227
67.9028 5.208 0.233
67.9232 4.698 0.221
67.9437 4.781 0.223
67.9641 4.833 0.224
67.9846 4.719 0.222
68.0051 5.250 0.234
68.0255 5.177 0.232
68.0460 4.865 0.225
68.0665 5.167 0.232
68.0869 5.760 0.245
68.1074 5.073 0.230
68.1278 5.521 0.240
68.1483 5.385 0.237
68.1688 5.083 0.230
68.1892 5.510 0.240
68.2097 5.490 0.239
68.2302 5.333 0.236
68.2506 5.313 0.235
68.2711 5.604 0.242
68.2915 6.000 0.250
68.3120 5.365 0.236
68.3325 5.927 0.248
68.3529 6.063 0.251
68.3734 5.604 0.242
68.3939 5.854 0.247
68.4143 5.635 0.242
68.4348 5.250 0.234
68.4552 5.000 0.228
68.4757 5.354 0.236
68.4962 5.552 0.240
68.5166 5.198 0.233
68.5371 5.271 0.234
68.5576 5.458 0.238
68.5780 4.990 0.228
68.5985 5.240 0.234
68.6190 4.719 0.222
68.6394 5.396 0.237
68.6599 5.167 0.232
68.6803 5.146 0.232
68.7008 5.031 0.229
68.7213 5.260 0.234
68.7417 5.104 0.231
68.7622 5.406 0.237
68.7827 5.146 0.232
68.8031 5.010 0.228
68.8236 5.115 0.231
68.8440 4.667 0.220
68.8645 5.427 0.238
68.8850 5.156 0.232
68.9054 5.208 0.233
68.9259 5.073 0.230
68.9464 5.000 0.228
68.9668 5.635 0.242
68.9873 4.906 0.226
69.0077 4.979 0.228
69.0282 4.594 0.219
69.0487 5.021 0.229
69.0691 5.073 0.230
69.0896 5.594 0.241
69.1101 5.417 0.238
69.1305 5.094 0.230
69.1510 5.177 0.232
69.1714 4.771 0.223
69.1919 5.010 0.228
69.2124 5.104 0.231
69.2328 4.698 0.221
69.2533 5.469 0.239
69.2738 5.198 0.233
69.2942 5.177 0.232
69.3147 5.167 0.232
69.3351 4.698 0.221
69.3556 5.552 0.240
69.3761 5.052 0.229
69.3965 4.792 0.223
69.4170 4.917 0.226
69.4375 5.365 0.236
69.4579 4.917 0.226
69.4784 4.938 0.227
69.4989 5.104 0.231
69.5193 5.052 0.229
69.5398 5.406 0.237
69.5602 5.292 0.235
69.5807 5.156 0.232
69.6012 5.385 0.237
69.6216 5.031 0.229
69.6421 5.417 0.238
69.6626 5.396 0.237
69.6830 5.385 0.237
69.7035 5.708 0.244
69.7239 5.771 0.245
69.7444 5.802 0.246
69.7649 5.979 0.250
69.7853 5.656 0.243
69.8058 5.313 0.235
69.8263 5.552 0.240
69.8467 5.135 0.231
69.8672 4.885 0.226
69.8876 5.156 0.232
69.9081 5.354 0.236
69.9286 5.240 0.234
69.9490 5.083 0.230
69.9695 5.052 0.229
69.9900 5.052 0.229
70.0104 4.844 0.225
70.0309 4.938 0.227
70.0513 5.292 0.235
70.0718 5.427 0.238
70.0923 5.083 0.230
70.1127 5.302 0.235
70.1332 4.573 0.218
70.1537 5.271 0.234
70.1741 5.000 0.228
70.1946 4.979 0.228
70.2150 4.740 0.222
70.2355 4.885 0.226
70.2560 4.510 0.217
70.2764 4.490 0.216
70.2969 4.563 0.218
70.3174 4.979 0.228
70.3378 4.750 0.222
70.3583 4.458 0.216
70.3788 5.042 0.229
70.3992 4.677 0.221
70.4197 4.646 0.220
70.4401 4.698 0.221
70.4606 4.719 0.222
70.4811 4.635 0.220
70.5015 4.208 0.209
70.5220 4.448 0.215
70.5425 4.635 0.220
70.5629 4.635 0.220
70.5834 4.594 0.219
70.6038 4.875 0.225
70.6243 4.573 0.218
70.6448 5.021 0.229
70.6652 4.802 0.224
70.6857 4.698 0.221
70.7062 4.542 0.218
70.7266 4.667 0.220
70.7471 4.792 0.223
70.7675 5.010 0.228
70.7880 4.729 0.222
70.8085 5.135 0.231
70.8289 4.521 0.217
70.8494 4.969 0.228
70.8699 4.740 0.222
70.8903 5.229 0.233
70.9108 4.708 0.221
70.9312 5.458 0.238
70.9517 5.146 0.232
70.9722 5.010 0.228
70.9926 4.865 0.225
71.0131 4.990 0.228
71.0336 5.083 0.230
71.0540 4.854 0.225
71.0745 5.323 0.235
71.0949 5.729 0.244
71.1154 5.333 0.236
71.1359 5.177 0.232
71.1563 5.354 0.236
71.1768 4.990 0.228
71.1973 5.271 0.234
71.2177 4.854 0.225
71.2382 5.260 0.234
71.2587 5.385 0.237
71.2791 5.073 0.230
71.2996 5.427 0.238
71.3200 5.281 0.235
71.3405 4.802 0.224
71.3610 5.031 0.229
71.3814 5.292 0.235
71.4019 4.813 0.224
71.4224 5.177 0.232
71.4428 5.104 0.231
71.4633 4.698 0.221
71.4837 5.177 0.232
71.5042 5.313 0.235
71.5247 5.198 0.233
71.5451 4.948 0.227
71.5656 5.531 0.240
71.5861 5.000 0.228
71.6065 5.510 0.240
71.6270 5.552 0.240
71.6474 5.563 0.241
71.6679 5.521 0.240
71.6884 5.688 0.243
71.7088 6.063 0.251
71.7293 6.063 0.251
71.7498 5.969 0.249
71.7702 5.740 0.245
71.7907 5.688 0.243
71.8111 6.021 0.250
71.8316 5.115 0.231
71.8521 5.281 0.235
71.8725 5.240 0.234
71.8930 5.281 0.235
71.9135 5.594 0.241
71.9339 5.323 0.235
71.9544 5.313 0.235
71.9749 4.677 0.221
71.9953 4.656 0.220
72.0158 5.042 0.229
72.0362 5.344 0.236
72.0567 5.500 0.239
72.0772 5.177 0.232
72.0976 4.708 0.221
72.1181 4.844 0.225
72.1386 4.563 0.218
72.1590 5.010 0.228
72.1795 5.021 0.229
72.1999 5.000 0.228
72.2204 4.563 0.218
72.2409 5.208 0.233
72.2613 4.958 0.227
72.2818 4.417 0.214
72.3023 4.990 0.228
72.3227 4.948 0.227
72.3432 5.344 0.236
72.3636 4.802 0.224
72.3841 5.052 0.229
72.4046 4.813 0.224
72.4250 4.729 0.222
72.4455 4.531 0.217
72.4660 4.438 0.215
72.4864 4.844 0.225
72.5069 5.167 0.232
72.5273 5.063 0.230
72.5478 5.281 0.235
72.5683 5.073 0.230
72.5887 4.573 0.218
72.6092 4.969 0.228
72.6297 5.021 0.229
72.6501 4.510 0.217
72.6706 4.438 0.215
72.6910 4.646 0.220
72.7115 4.583 0.219
72.7320 4.344 0.213
72.7524 4.323 0.212
72.7729 4.552 0.218
72.7934 5.021 0.229
72.8138 4.906 0.226
72.8343 4.542 0.218
72.8548 4.167 0.208
72.8752 4.635 0.220
72.8957 4.677 0.221
72.9161 4.688 0.221
72.9366 4.792 0.223
72.9571 4.927 0.227
72.9775 4.646 0.220
72.9980 4.500 0.217
73.0185 4.719 0.222
73.0389 4.479 0.216
73.0594 4.552 0.218
73.0798 4.260 0.211
73.1003 4.313 0.212
73.1208 4.344 0.213
73.1412 4.573 0.218
73.1617 4.510 0.217
73.1822 4.531 0.217
73.2026 4.271 0.211
73.2231 4.646 0.220
73.2435 4.500 0.217
73.2640 4.177 0.209
73.2845 4.240 0.210
73.3049 4.438 0.215
73.3254 4.302 0.212
73.3459 4.563 0.218
73.3663 4.323 0.212
73.3868 4.771 0.223
73.4072 4.177 0.209
73.4277 4.760 0.223
73.4482 4.167 0.208
73.4686 4.573 0.218
73.4891 4.115 0.207
73.5096 4.521 0.217
73.5300 4.406 0.214
73.5505 4.260 0.211
73.5709 4.531 0.217
73.5914 4.052 0.205
73.6119 4.156 0.208
73.6323 4.406 0.214
73.6528 3.938 0.203
73.6733 4.427 0.215
73.6937 4.125 0.207
73.7142 4.521 0.217
73.7347 4.604 0.219
73.7551 4.260 0.211
73.7756 3.979 0.204
73.7960 4.031 0.205
73.8165 4.104 0.207
73.8370 4.448 0.215
73.8574 3.958 0.203
73.8779 4.208 0.209
73.8984 4.167 0.208
73.9188 4.521 0.217
73.9393 4.125 0.207
73.9597 4.229 0.210
73.9802 4.198 0.209
74.0007 4.021 0.205
74.0211 4.302 0.212
74.0416 4.198 0.209
74.0621 4.021 0.205
74.0825 4.000 0.204
74.1030 4.104 0.207
74.1234 4.448 0.215
74.1439 4.302 0.212
74.1644 4.458 0.216
74.1848 4.188 0.209
74.2053 4.344 0.213
74.2258 4.292 0.211
74.2462 3.948 0.203
74.2667 4.510 0.217
74.2871 4.094 0.207
74.3076 4.406 0.214
74.3281 4.365 0.213
74.3485 4.438 0.215
74.3690 4.292 0.211
74.3895 4.198 0.209
74.4099 4.292 0.211
74.4304 4.135 0.208
74.4508 4.135 0.208
74.4713 4.438 0.215
74.4918 4.448 0.215
74.5122 4.365 0.213
74.5327 4.156 0.208
74.5532 4.396 0.214
74.5736 4.406 0.214
74.5941 4.594 0.219
74.6146 4.510 0.217
74.6350 4.250 0.210
74.6555 4.427 0.215
74.6759 4.115 0.207
74.6964 3.813 0.199
74.7169 4.302 0.212
74.7373 4.688 0.221
74.7578 4.240 0.210
74.7783 4.542 0.218
74.7987 4.281 0.211
74.8192 4.052 0.205
74.8396 4.302 0.212
74.8601 4.229 0.210
74.8806 4.448 0.215
74.9010 4.302 0.212
74.9215 3.917 0.202
74.9420 4.479 0.216
74.9624 4.260 0.211
74.9829 3.896 0.201
75.0033 4.083 0.206
75.0238 3.792 0.199
75.0443 4.021 0.205
75.0647 4.448 0.215
75.0852 4.188 0.209
75.1057 4.073 0.206
75.1261 4.010 0.204
75.1466 4.219 0.210
75.1670 4.177 0.209
75.1875 4.396 0.214
75.2080 4.135 0.208
75.2284 4.271 0.211
75.2489 4.458 0.216
75.2694 4.052 0.205
75.2898 4.448 0.215
75.3103 4.135 0.208
75.3307 4.073 0.206
75.3512 4.125 0.207
75.3717 4.010 0.204
75.3921 4.292 0.211
75.4126 4.302 0.212
75.4331 4.083 0.206
75.4535 4.448 0.215
75.4740 4.042 0.205
75.4945 4.000 0.204
75.5149 4.229 0.210
75.5354 4.146 0.208
75.5558 4.021 0.205
75.5763 4.417 0.214
75.5968 4.104 0.207
75.6172 4.604 0.219
75.6377 4.094 0.207
75.6582 4.302 0.212
75.6786 4.229 0.210
75.6991 3.802 0.199
75.7195 4.188 0.209
75.7400 4.563 0.218
75.7605 4.083 0.206
75.7809 4.396 0.214
75.8014 3.958 0.203
75.8219 4.552 0.218
75.8423 4.021 0.205
75.8628 3.510 0.191
75.8832 3.844 0.200
75.9037 4.240 0.210
75.9242 3.969 0.203
75.9446 4.135 0.208
75.9651 4.219 0.210
75.9856 4.677 0.221
76.0060 3.760 0.198
76.0265 3.854 0.200
76.0469 4.219 0.210
76.0674 3.708 0.197
76.0879 4.021 0.205
76.1083 4.292 0.211
76.1288 4.198 0.209
76.1493 4.198 0.209
76.1697 4.135 0.208
76.1902 3.615 0.194
76.2106 3.979 0.204
76.2311 4.104 0.207
76.2516 4.198 0.209
76.2720 3.948 0.203
76.2925 3.750 0.198
76.3130 4.208 0.209
76.3334 4.448 0.215
76.3539 4.271 0.211
76.3744 3.906 0.202
76.3948 3.833 0.200
76.4153 4.167 0.208
76.4357 3.813 0.199
76.4562 4.125 0.207
76.4767 4.438 0.215
76.4971 3.854 0.200
76.5176 3.854 0.200
76.5381 3.885 0.201
76.5585 4.052 0.205
76.5790 4.229 0.210
76.5994 3.948 0.203
76.6199 4.219 0.210
76.6404 3.719 0.197
76.6608 3.979 0.204
76.6813 4.073 0.206
76.7018 4.406 0.214
76.7222 4.073 0.206
76.7427 4.417 0.214
76.7631 4.323 0.212
76.7836 4.198 0.209
76.8041 4.333 0.212
76.8245 3.813 0.199
76.8450 4.240 0.210
76.8655 4.625 0.219
76.8859 3.896 0.201
76.9064 4.146 0.208
76.9268 3.958 0.203
76.9473 4.146 0.208
76.9678 4.021 0.205
76.9882 4.073 0.206
77.0087 4.323 0.212
77.0292 4.260 0.211
77.0496 4.135 0.208
77.0701 4.083 0.206
77.0906 3.958 0.203
77.1110 4.417 0.214
77.1315 4.135 0.208
77.1519 4.094 0.207
77.1724 4.073 0.206
77.1929 4.177 0.209
77.2133 3.917 0.202
77.2338 4.031 0.205
77.2543 4.052 0.205
77.2747 3.813 0.199
77.2952 4.167 0.208
77.3156 3.813 0.199
77.3361 4.115 0.207
77.3566 3.792 0.199
77.3770 3.969 0.203
77.3975 4.281 0.211
77.4180 4.115 0.207
77.4384 3.896 0.201
77.4589 4.344 0.213
77.4793 4.313 0.212
77.4998 4.667 0.220
77.5203 4.375 0.213
77.5407 4.344 0.213
77.5612 4.438 0.215
77.5817 4.229 0.210
77.6021 4.438 0.215
77.6226 4.083 0.206
77.6430 4.292 0.211
77.6635 4.417 0.214
77.6840 4.365 0.213
77.7044 4.271 0.211
77.7249 4.240 0.210
77.7454 4.417 0.214
77.7658 4.271 0.211
77.7863 4.396 0.214
77.8067 4.375 0.213
77.8272 3.875 0.201
77.8477 4.229 0.210
77.8681 4.385 0.214
77.8886 4.208 0.209
77.9091 4.490 0.216
77.9295 4.177 0.209
77.9500 3.833 0.200
77.9705 4.146 0.208
77.9909 4.333 0.212
78.0114 4.323 0.212
78.0318 4.313 0.212
78.0523 4.438 0.215
78.0728 4.188 0.209
78.0932 4.542 0.218
78.1137 4.073 0.206
78.1342 3.781 0.198
78.1546 4.083 0.206
78.1751 4.125 0.207
78.1955 4.427 0.215
78.2160 4.510 0.217
78.2365 4.021 0.205
78.2569 3.740 0.197
78.2774 4.250 0.210
78.2979 4.333 0.212
78.3183 4.510 0.217
78.3388 4.010 0.204
78.3592 4.063 0.206
78.3797 3.938 0.203
78.4002 3.729 0.197
78.4206 4.354 0.213
78.4411 3.875 0.201
78.4616 4.125 0.207
78.4820 4.198 0.209
78.5025 4.427 0.215
78.5229 4.292 0.211
78.5434 4.135 0.208
78.5639 4.250 0.210
78.5843 4.104 0.207
78.6048 3.813 0.199
78.6253 4.198 0.209
78.6457 4.219 0.210
78.6662 3.917 0.202
78.6866 4.313 0.212
78.7071 4.063 0.206
78.7276 3.938 0.203
78.7480 4.104 0.207
78.7685 4.396 0.214
78.7890 4.313 0.212
78.8094 4.292 0.211
78.8299 4.417 0.214
78.8504 4.438 0.215
78.8708 4.333 0.212
78.8913 4.385 0.214
78.9117 4.365 0.213
78.9322 4.313 0.212
78.9527 4.594 0.219
78.9731 4.583 0.219
78.9936 4.573 0.218
79.0141 4.375 0.213
79.0345 4.500 0.217
79.0550 4.969 0.228
79.0754 4.594 0.219
79.0959 4.885 0.226
79.1164 4.698 0.221
79.1368 4.792 0.223
79.1573 5.021 0.229
79.1778 4.365 0.213
79.1982 4.656 0.220
79.2187 4.521 0.217
79.2391 5.104 0.231
79.2596 4.948 0.227
79.2801 4.604 0.219
79.3005 4.979 0.228
79.3210 4.979 0.228
79.3415 4.865 0.225
79.3619 4.615 0.219
79.3824 4.656 0.220
79.4028 4.760 0.223
79.4233 4.490 0.216
79.4438 4.760 0.223
79.4642 4.406 0.214
79.4847 4.979 0.228
79.5052 4.875 0.225
79.5256 4.865 0.225
79.5461 4.333 0.212
79.5665 4.740 0.222
79.5870 4.333 0.212
79.6075 4.625 0.219
79.6279 4.698 0.221
79.6484 4.469 0.216
79.6689 4.854 0.225
79.6893 4.313 0.212
79.7098 4.646 0.220
79.7303 4.760 0.223
79.7507 4.635 0.220
79.7712 4.354 0.213
79.7916 5.177 0.232
79.8121 4.208 0.209
79.8326 4.813 0.224
79.8530 4.635 0.220
79.8735 4.438 0.215
79.8940 4.844 0.225
79.9144 4.844 0.225
79.9349 4.750 0.222
79.9553 4.500 0.217
79.9758 5.135 0.231
79.9963 5.177 0.232
