'Id: "" Comment: "" Operator: "Lab Manager" Anode: "Cu" Scantype: "Locked Coupled" TimePerStep: "96" X: "0" Y: "0" Z: "0" 
5.0001 38.063 0.630
5.0206 37.302 0.623
5.0410 38.135 0.630
5.0615 37.229 0.623
5.0820 37.417 0.624
5.1024 36.646 0.618
5.1229 37.740 0.627
5.1433 36.760 0.619
5.1638 36.729 0.619
5.1843 35.792 0.611
5.2047 35.729 0.610
5.2252 36.198 0.614
5.2457 36.094 0.613
5.2661 34.948 0.603
5.2866 35.010 0.604
5.3070 34.781 0.602
5.3275 35.427 0.607
5.3480 34.250 0.597
5.3684 34.188 0.597
5.3889 33.510 0.591
5.4094 33.615 0.592
5.4298 33.896 0.594
5.4503 33.281 0.589
5.4707 33.031 0.587
5.4912 33.688 0.592
5.5117 32.719 0.584
5.5321 32.917 0.586
5.5526 32.125 0.578
5.5731 31.865 0.576
5.5935 31.698 0.575
5.6140 32.000 0.577
5.6344 31.698 0.575
5.6549 31.740 0.575
5.6754 30.760 0.566
5.6958 31.729 0.575
5.7163 30.438 0.563
5.7368 30.104 0.560
5.7572 30.854 0.567
5.7777 30.885 0.567
5.7981 29.240 0.552
5.8186 29.385 0.553
5.8391 28.719 0.547
5.8595 30.292 0.562
5.8800 29.406 0.553
5.9005 29.771 0.557
5.9209 28.813 0.548
5.9414 28.698 0.547
5.9619 28.417 0.544
5.9823 28.583 0.546
6.0028 28.323 0.543
6.0232 28.521 0.545
6.0437 28.865 0.548
6.0642 28.052 0.541
6.0846 28.885 0.549
6.1051 27.604 0.536
6.1256 27.792 0.538
6.1460 27.323 0.533
6.1665 26.323 0.524
6.1869 27.615 0.536
6.2074 27.917 0.539
6.2279 26.646 0.527
6.2483 26.875 0.529
6.2688 26.844 0.529
6.2893 25.510 0.515
6.3097 26.490 0.525
6.3302 26.365 0.524
6.3506 26.688 0.527
6.3711 26.833 0.529
6.3916 25.490 0.515
6.4120 25.458 0.515
6.4325 25.823 0.519
6.4530 26.240 0.523
6.4734 25.802 0.518
6.4939 25.531 0.516
6.5143 25.052 0.511
6.5348 24.802 0.508
6.5553 24.292 0.503
6.5757 24.135 0.501
6.5962 24.281 0.503
6.6167 24.542 0.506
6.6371 24.885 0.509
6.6576 23.823 0.498
6.6780 23.760 0.497
6.6985 24.479 0.505
6.7190 23.385 0.494
6.7394 23.646 0.496
6.7599 23.510 0.495
6.7804 22.854 0.488
6.8008 23.646 0.496
6.8213 23.302 0.493
6.8418 22.938 0.489
6.8622 22.740 0.487
6.8827 23.156 0.491
6.9031 23.958 0.500
6.9236 22.521 0.484
6.9441 23.177 0.491
6.9645 22.510 0.484
6.9850 23.198 0.492
7.0055 21.469 0.473
7.0259 22.708 0.486
7.0464 22.313 0.482
7.0668 21.615 0.475
7.0873 21.906 0.478
7.1078 22.260 0.482
7.1282 21.615 0.475
7.1487 21.010 0.468
7.1692 21.344 0.472
7.1896 21.521 0.473
7.2101 22.615 0.485
7.2305 21.271 0.471
7.2510 21.271 0.471
7.2715 20.917 0.467
7.2919 21.063 0.468
7.3124 21.146 0.469
7.3329 20.458 0.462
7.3533 20.094 0.458
7.3738 20.146 0.458
7.3942 20.646 0.464
7.4147 20.490 0.462
7.4352 19.552 0.451
7.4556 20.760 0.465
7.4761 19.417 0.450
7.4966 19.615 0.452
7.5170 20.073 0.457
7.5375 20.594 0.463
7.5580 20.458 0.462
7.5784 19.208 0.447
7.5989 20.229 0.459
7.6193 19.323 0.449
7.6398 19.844 0.455
7.6603 19.604 0.452
7.6807 19.615 0.452
7.7012 19.229 0.448
7.7217 19.271 0.448
7.7421 19.927 0.456
7.7626 19.583 0.452
7.7830 19.292 0.448
7.8035 19.417 0.450
7.8240 19.177 0.447
7.8444 19.292 0.448
7.8649 20.063 0.457
7.8854 19.260 0.448
7.9058 18.958 0.444
7.9263 19.260 0.448
7.9467 19.271 0.448
7.9672 19.292 0.448
7.9877 18.510 0.439
8.0081 18.740 0.442
8.0286 19.354 0.449
8.0491 19.010 0.445
8.0695 19.094 0.446
8.0900 18.750 0.442
8.1104 19.188 0.447
8.1309 18.833 0.443
8.1514 18.656 0.441
8.1718 18.948 0.444
8.1923 18.656 0.441
8.2128 18.708 0.441
8.2332 18.344 0.437
8.2537 18.260 0.436
8.2741 18.552 0.440
8.2946 17.948 0.432
8.3151 18.781 0.442
8.3355 18.771 0.442
8.3560 18.896 0.444
8.3765 18.177 0.435
8.3969 18.250 0.436
8.4174 19.115 0.446
8.4379 18.917 0.444
8.4583 18.313 0.437
8.4788 17.896 0.432
8.4992 18.219 0.436
8.5197 19.000 0.445
8.5402 18.646 0.441
8.5606 18.229 0.436
8.5811 18.240 0.436
8.6016 19.052 0.445
8.6220 19.271 0.448
8.6425 19.354 0.449
8.6629 18.802 0.443
8.6834 18.854 0.443
8.7039 18.479 0.439
8.7243 19.865 0.455
8.7448 19.833 0.455
8.7653 20.729 0.465
8.7857 19.813 0.454
8.8062 19.677 0.453
8.8266 21.635 0.475
8.8471 22.083 0.480
8.8676 21.698 0.475
8.8880 22.031 0.479
8.9085 23.219 0.492
8.9290 23.063 0.490
8.9494 23.917 0.499
8.9699 25.490 0.515
8.9903 25.802 0.518
9.0108 28.198 0.542
9.0313 29.479 0.554
9.0517 30.792 0.566
9.0722 33.802 0.593
9.0927 36.042 0.613
9.1131 38.563 0.634
9.1336 39.552 0.642
9.1540 40.781 0.652
9.1745 37.594 0.626
9.1950 33.885 0.594
9.2154 28.604 0.546
9.2359 25.885 0.519
9.2564 23.167 0.491
9.2768 21.490 0.473
9.2973 20.823 0.466
9.3178 20.542 0.463
9.3382 19.469 0.450
9.3587 18.781 0.442
9.3791 18.917 0.444
9.3996 19.521 0.451
9.4201 18.969 0.445
9.4405 19.552 0.451
9.4610 19.354 0.449
9.4815 19.458 0.450
9.5019 19.417 0.450
9.5224 18.240 0.436
9.5428 19.271 0.448
9.5633 18.656 0.441
9.5838 18.542 0.439
9.6042 18.698 0.441
9.6247 18.938 0.444
9.6452 18.219 0.436
9.6656 18.135 0.435
9.6861 18.500 0.439
9.7065 18.083 0.434
9.7270 18.521 0.439
9.7475 17.760 0.430
9.7679 18.365 0.437
9.7884 18.250 0.436
9.8089 18.396 0.438
9.8293 18.281 0.436
9.8498 18.656 0.441
9.8702 17.594 0.428
9.8907 17.500 0.427
9.9112 18.406 0.438
9.9316 18.083 0.434
9.9521 18.531 0.439
9.9726 18.500 0.439
9.9930 18.146 0.435
10.0135 18.792 0.442
10.0339 18.479 0.439
10.0544 19.229 0.448
10.0749 18.458 0.438
10.0953 18.719 0.442
10.1158 18.438 0.438
10.1363 17.396 0.426
10.1567 18.021 0.433
10.1772 17.771 0.430
10.1977 17.896 0.432
10.2181 18.865 0.443
10.2386 18.229 0.436
10.2590 18.125 0.435
10.2795 17.458 0.426
10.3000 18.208 0.436
10.3204 17.813 0.431
10.3409 18.208 0.436
10.3614 18.385 0.438
10.3818 18.792 0.442
10.4023 17.833 0.431
10.4227 18.406 0.438
10.4432 18.052 0.434
10.4637 18.667 0.441
10.4841 18.010 0.433
10.5046 17.740 0.430
10.5251 17.979 0.433
10.5455 18.438 0.438
10.5660 18.490 0.439
10.5864 18.219 0.436
10.6069 18.031 0.433
10.6274 17.875 0.432
10.6478 17.896 0.432
10.6683 17.552 0.428
10.6888 17.927 0.432
10.7092 18.188 0.435
10.7297 18.490 0.439
10.7501 18.271 0.436
10.7706 17.708 0.429
10.7911 17.885 0.432
10.8115 17.563 0.428
10.8320 17.760 0.430
10.8525 17.719 0.430
10.8729 17.542 0.427
10.8934 17.979 0.433
10.9138 17.677 0.429
10.9343 18.417 0.438
10.9548 18.167 0.435
10.9752 17.563 0.428
10.9957 17.552 0.428
11.0162 17.750 0.430
11.0366 17.010 0.421
11.0571 18.135 0.435
11.0776 17.813 0.431
11.0980 18.490 0.439
11.1185 17.385 0.426
11.1389 18.677 0.441
11.1594 18.302 0.437
11.1799 17.885 0.432
11.2003 17.667 0.429
11.2208 17.646 0.429
11.2413 18.427 0.438
11.2617 17.740 0.430
11.2822 18.073 0.434
11.3026 17.448 0.426
11.3231 17.615 0.428
11.3436 16.979 0.421
11.3640 17.448 0.426
11.3845 17.385 0.426
11.4050 17.531 0.427
11.4254 17.448 0.426
11.4459 17.750 0.430
11.4663 17.458 0.426
11.4868 17.521 0.427
11.5073 17.323 0.425
11.5277 17.510 0.427
11.5482 17.323 0.425
11.5687 17.479 0.427
11.5891 18.125 0.435
11.6096 17.885 0.432
11.6300 17.448 0.426
11.6505 17.729 0.430
11.6710 17.813 0.431
11.6914 17.802 0.431
11.7119 18.042 0.434
11.7324 17.833 0.431
11.7528 18.146 0.435
11.7733 17.490 0.427
11.7938 17.594 0.428
11.8142 17.708 0.429
11.8347 17.667 0.429
11.8551 17.313 0.425
11.8756 17.896 0.432
11.8961 17.385 0.426
11.9165 17.250 0.424
11.9370 17.208 0.423
11.9575 17.625 0.428
11.9779 17.438 0.426
11.9984 18.313 0.437
12.0188 17.781 0.430
12.0393 18.323 0.437
12.0598 18.344 0.437
12.0802 18.010 0.433
12.1007 18.146 0.435
12.1212 18.427 0.438
12.1416 18.479 0.439
12.1621 18.427 0.438
12.1825 18.667 0.441
12.2030 18.219 0.436
12.2235 17.854 0.431
12.2439 18.125 0.435
12.2644 17.250 0.424
12.2849 17.917 0.432
12.3053 17.031 0.421
12.3258 17.052 0.421
12.3462 16.615 0.416
12.3667 17.177 0.423
12.3872 17.323 0.425
12.4076 16.198 0.411
12.4281 16.125 0.410
12.4486 17.625 0.428
12.4690 16.958 0.420
12.4895 16.219 0.411
12.5099 16.552 0.415
12.5304 15.781 0.405
12.5509 16.031 0.409
12.5713 16.698 0.417
12.5918 16.823 0.419
12.6123 16.531 0.415
12.6327 16.771 0.418
12.6532 16.094 0.409
12.6737 15.969 0.408
12.6941 16.375 0.413
12.7146 16.510 0.415
12.7350 16.823 0.419
12.7555 16.729 0.417
12.7760 16.188 0.411
12.7964 16.010 0.408
12.8169 15.667 0.404
12.8374 16.469 0.414
12.8578 15.854 0.406
12.8783 16.667 0.417
12.8987 15.542 0.402
12.9192 16.740 0.418
12.9397 16.208 0.411
12.9601 16.177 0.411
12.9806 16.365 0.413
13.0011 16.958 0.420
13.0215 16.292 0.412
13.0420 16.156 0.410
13.0624 15.990 0.408
13.0829 16.438 0.414
13.1034 16.302 0.412
13.1238 15.677 0.404
13.1443 16.146 0.410
13.1648 15.927 0.407
13.1852 15.438 0.401
13.2057 15.385 0.400
13.2261 16.354 0.413
13.2466 16.406 0.413
13.2671 15.604 0.403
13.2875 15.458 0.401
13.3080 15.302 0.399
13.3285 15.198 0.398
13.3489 15.490 0.402
13.3694 15.313 0.399
13.3898 15.000 0.395
13.4103 16.385 0.413
13.4308 15.625 0.403
13.4512 16.010 0.408
13.4717 15.260 0.399
13.4922 15.729 0.405
13.5126 15.677 0.404
13.5331 14.625 0.390
13.5536 14.979 0.395
13.5740 15.500 0.402
13.5945 16.688 0.417
13.6149 16.281 0.412
13.6354 15.125 0.397
13.6559 14.885 0.394
13.6763 15.188 0.398
13.6968 14.802 0.393
13.7173 16.250 0.411
13.7377 16.125 0.410
13.7582 15.427 0.401
13.7786 15.260 0.399
13.7991 15.104 0.397
13.8196 15.427 0.401
13.8400 16.167 0.410
13.8605 14.969 0.395
13.8810 16.073 0.409
13.9014 15.198 0.398
13.9219 15.615 0.403
13.9423 15.052 0.396
13.9628 15.458 0.401
13.9833 15.708 0.405
14.0037 15.281 0.399
14.0242 15.135 0.397
14.0447 15.677 0.404
14.0651 15.521 0.402
14.0856 15.625 0.403
14.1060 15.521 0.402
14.1265 15.760 0.405
14.1470 14.927 0.394
14.1674 14.469 0.388
14.1879 15.698 0.404
14.2084 14.979 0.395
14.2288 14.896 0.394
14.2493 14.917 0.394
14.2697 15.521 0.402
14.2902 15.260 0.399
14.3107 14.594 0.390
14.3311 15.104 0.397
14.3516 14.771 0.392
14.3721 14.958 0.395
14.3925 14.573 0.390
14.4130 15.063 0.396
14.4335 15.792 0.406
14.4539 15.115 0.397
14.4744 14.646 0.391
14.4948 14.635 0.390
14.5153 14.552 0.389
14.5358 15.219 0.398
14.5562 15.104 0.397
14.5767 14.490 0.389
14.5972 15.052 0.396
14.6176 14.979 0.395
14.6381 15.594 0.403
14.6585 14.865 0.393
14.6790 14.313 0.386
14.6995 15.323 0.400
14.7199 14.615 0.390
14.7404 15.333 0.400
14.7609 14.594 0.390
14.7813 14.552 0.389
14.8018 14.865 0.393
14.8222 15.458 0.401
14.8427 15.313 0.399
14.8632 14.250 0.385
14.8836 15.260 0.399
14.9041 16.271 0.412
14.9246 16.156 0.410
14.9450 16.573 0.415
14.9655 15.521 0.402
14.9859 15.625 0.403
15.0064 14.323 0.386
15.0269 15.031 0.396
15.0473 14.656 0.391
15.0678 14.875 0.394
15.0883 14.625 0.390
15.1087 15.000 0.395
15.1292 15.073 0.396
15.1496 14.365 0.387
15.1701 14.917 0.394
15.1906 14.479 0.388
15.2110 14.781 0.392
15.2315 14.458 0.388
15.2520 13.917 0.381
15.2724 14.365 0.387
15.2929 14.510 0.389
15.3134 14.563 0.389
15.3338 15.063 0.396
15.3543 15.260 0.399
15.3747 14.885 0.394
15.3952 15.354 0.400
15.4157 15.792 0.406
15.4361 15.344 0.400
15.4566 15.531 0.402
15.4771 15.229 0.398
15.4975 15.385 0.400
15.5180 15.438 0.401
15.5384 15.583 0.403
15.5589 15.844 0.406
15.5794 15.813 0.406
15.5998 16.260 0.412
15.6203 15.906 0.407
15.6408 15.479 0.402
15.6612 16.750 0.418
15.6817 18.104 0.434
15.7021 18.146 0.435
15.7226 18.302 0.437
15.7431 19.406 0.450
15.7635 20.677 0.464
15.7840 21.438 0.473
15.8045 22.646 0.486
15.8249 23.844 0.498
15.8454 24.479 0.505
15.8658 24.552 0.506
15.8863 24.240 0.502
15.9068 23.740 0.497
15.9272 21.563 0.474
15.9477 20.031 0.457
15.9682 18.219 0.436
15.9886 17.385 0.426
16.0091 16.833 0.419
16.0296 16.292 0.412
16.0500 16.417 0.414
16.0705 16.115 0.410
16.0909 15.615 0.403
16.1114 16.313 0.412
16.1319 15.917 0.407
16.1523 15.188 0.398
16.1728 15.521 0.402
16.1933 15.417 0.401
16.2137 15.396 0.400
16.2342 15.427 0.401
16.2546 15.021 0.396
16.2751 14.979 0.395
16.2956 14.510 0.389
16.3160 14.344 0.387
16.3365 15.438 0.401
16.3570 14.885 0.394
16.3774 15.396 0.400
16.3979 14.708 0.391
16.4183 14.958 0.395
16.4388 14.896 0.394
16.4593 14.740 0.392
16.4797 14.490 0.389
16.5002 15.052 0.396
16.5207 14.865 0.393
16.5411 15.427 0.401
16.5616 14.802 0.393
16.5820 15.177 0.398
16.6025 15.063 0.396
16.6230 15.083 0.396
16.6434 14.656 0.391
16.6639 14.406 0.387
16.6844 15.167 0.397
16.7048 14.635 0.390
16.7253 14.594 0.390
16.7457 15.021 0.396
16.7662 14.354 0.387
16.7867 14.865 0.393
16.8071 14.625 0.390
16.8276 14.531 0.389
16.8481 14.802 0.393
16.8685 15.438 0.401
16.8890 15.271 0.399
16.9095 14.625 0.390
16.9299 14.354 0.387
16.9504 15.000 0.395
16.9708 14.760 0.392
16.9913 14.823 0.393
17.0118 15.219 0.398
17.0322 15.031 0.396
17.0527 13.781 0.379
17.0732 14.833 0.393
17.0936 14.396 0.387
17.1141 14.354 0.387
17.1345 13.875 0.380
17.1550 15.010 0.395
17.1755 15.156 0.397
17.1959 14.750 0.392
17.2164 15.125 0.397
17.2369 15.531 0.402
17.2573 14.302 0.386
17.2778 14.573 0.390
17.2982 14.250 0.385
17.3187 15.396 0.400
17.3392 15.583 0.403
17.3596 15.438 0.401
17.3801 15.073 0.396
17.4006 15.146 0.397
17.4210 15.104 0.397
17.4415 16.167 0.410
17.4619 15.510 0.402
17.4824 15.406 0.401
17.5029 15.698 0.404
17.5233 15.708 0.405
17.5438 16.031 0.409
17.5643 16.104 0.410
17.5847 16.031 0.409
17.6052 15.021 0.396
17.6256 15.573 0.403
17.6461 15.750 0.405
17.6666 15.813 0.406
17.6870 16.083 0.409
17.7075 16.052 0.409
17.7280 16.594 0.416
17.7484 16.677 0.417
17.7689 17.594 0.428
17.7894 18.125 0.435
17.8098 18.240 0.436
17.8303 19.031 0.445
17.8507 20.344 0.460
17.8712 20.958 0.467
17.8917 21.885 0.477
17.9121 22.750 0.487
17.9326 25.135 0.512
17.9531 27.510 0.535
17.9735 29.406 0.553
17.9940 32.229 0.579
18.0144 40.771 0.652
18.0349 47.042 0.700
18.0554 55.156 0.758
18.0758 58.583 0.781
18.0963 53.417 0.746
18.1168 45.000 0.685
18.1372 34.000 0.595
18.1577 27.385 0.534
18.1781 22.094 0.480
18.1986 20.354 0.460
18.2191 18.281 0.436
18.2395 17.583 0.428
18.2600 16.813 0.418
18.2805 17.271 0.424
18.3009 17.135 0.422
18.3214 16.396 0.413
18.3418 16.750 0.418
18.3623 15.865 0.407
18.3828 16.260 0.412
18.4032 15.521 0.402
18.4237 15.438 0.401
18.4442 16.042 0.409
18.4646 15.823 0.406
18.4851 16.146 0.410
18.5055 15.313 0.399
18.5260 15.677 0.404
18.5465 15.302 0.399
18.5669 15.260 0.399
18.5874 15.000 0.395
18.6079 15.396 0.400
18.6283 15.177 0.398
18.6488 15.458 0.401
18.6693 15.427 0.401
18.6897 15.146 0.397
18.7102 15.760 0.405
18.7306 15.646 0.404
18.7511 16.208 0.411
18.7716 16.927 0.420
18.7920 17.115 0.422
18.8125 16.625 0.416
18.8330 16.917 0.420
18.8534 18.042 0.434
18.8739 18.188 0.435
18.8943 18.031 0.433
18.9148 18.844 0.443
18.9353 18.938 0.444
18.9557 19.427 0.450
18.9762 18.885 0.444
18.9967 18.417 0.438
19.0171 18.635 0.441
19.0376 19.333 0.449
19.0580 18.885 0.444
19.0785 17.990 0.433
19.0990 17.073 0.422
19.1194 17.448 0.426
19.1399 16.677 0.417
19.1604 15.667 0.404
19.1808 15.708 0.405
19.2013 15.115 0.397
19.2217 15.292 0.399
19.2422 15.260 0.399
19.2627 15.177 0.398
19.2831 15.052 0.396
19.3036 15.625 0.403
19.3241 14.760 0.392
19.3445 14.302 0.386
19.3650 15.500 0.402
19.3854 14.510 0.389
19.4059 15.219 0.398
19.4264 14.760 0.392
19.4468 15.323 0.400
19.4673 14.667 0.391
19.4878 15.458 0.401
19.5082 14.302 0.386
19.5287 15.208 0.398
19.5492 14.281 0.386
19.5696 14.906 0.394
19.5901 14.063 0.383
19.6105 15.365 0.400
19.6310 14.667 0.391
19.6515 15.188 0.398
19.6719 15.385 0.400
19.6924 14.344 0.387
19.7129 14.260 0.385
19.7333 14.479 0.388
19.7538 13.885 0.380
19.7742 15.563 0.403
19.7947 15.167 0.397
19.8152 14.844 0.393
19.8356 14.260 0.385
19.8561 14.979 0.395
19.8766 15.094 0.397
19.8970 15.198 0.398
19.9175 15.417 0.401
19.9379 15.219 0.398
19.9584 14.656 0.391
19.9789 15.583 0.403
19.9993 15.365 0.400
20.0198 14.698 0.391
20.0403 15.490 0.402
20.0607 15.896 0.407
20.0812 15.115 0.397
20.1016 15.365 0.400
20.1221 15.344 0.400
20.1426 15.583 0.403
20.1630 15.604 0.403
20.1835 15.146 0.397
20.2040 15.958 0.408
20.2244 15.104 0.397
20.2449 14.917 0.394
20.2654 14.656 0.391
20.2858 14.813 0.393
20.3063 15.104 0.397
20.3267 14.354 0.387
20.3472 15.177 0.398
20.3677 14.938 0.394
20.3881 15.083 0.396
20.4086 14.500 0.389
20.4291 14.333 0.386
20.4495 15.219 0.398
20.4700 14.448 0.388
20.4904 15.281 0.399
20.5109 15.354 0.400
20.5314 14.667 0.391
20.5518 14.344 0.387
20.5723 15.115 0.397
20.5928 15.156 0.397
20.6132 15.198 0.398
20.6337 15.073 0.396
20.6541 14.323 0.386
20.6746 15.385 0.400
20.6951 15.313 0.399
20.7155 14.958 0.395
20.7360 14.281 0.386
20.7565 14.510 0.389
20.7769 15.354 0.400
20.7974 14.625 0.390
20.8178 15.021 0.396
20.8383 14.688 0.391
20.8588 14.521 0.389
20.8792 14.583 0.390
20.8997 14.583 0.390
20.9202 15.604 0.403
20.9406 14.417 0.388
20.9611 15.792 0.406
20.9815 14.469 0.388
21.0020 15.427 0.401
21.0225 15.323 0.400
21.0429 15.021 0.396
21.0634 15.521 0.402
21.0839 15.469 0.401
21.1043 14.906 0.394
21.1248 15.510 0.402
21.1453 15.115 0.397
21.1657 15.573 0.403
21.1862 15.333 0.400
21.2066 14.833 0.393
21.2271 14.750 0.392
21.2476 14.458 0.388
21.2680 15.417 0.401
21.2885 14.729 0.392
21.3090 14.771 0.392
21.3294 14.125 0.384
21.3499 15.031 0.396
21.3703 14.604 0.390
21.3908 14.396 0.387
21.4113 15.313 0.399
21.4317 15.604 0.403
21.4522 14.510 0.389
21.4727 15.417 0.401
21.4931 14.771 0.392
21.5136 15.031 0.396
21.5340 15.188 0.398
21.5545 14.854 0.393
21.5750 15.188 0.398
21.5954 14.885 0.394
21.6159 14.813 0.393
21.6364 14.573 0.390
21.6568 15.031 0.396
21.6773 14.625 0.390
21.6977 14.656 0.391
21.7182 14.990 0.395
21.7387 15.333 0.400
21.7591 15.188 0.398
21.7796 15.083 0.396
21.8001 15.844 0.406
21.8205 16.146 0.410
21.8410 16.198 0.411
21.8614 15.490 0.402
21.8819 15.292 0.399
21.9024 15.708 0.405
21.9228 15.594 0.403
21.9433 15.323 0.400
21.9638 15.698 0.404
21.9842 15.479 0.402
22.0047 14.625 0.390
22.0252 14.781 0.392
22.0456 14.667 0.391
22.0661 14.896 0.394
22.0865 15.344 0.400
22.1070 15.469 0.401
22.1275 15.458 0.401
22.1479 15.250 0.399
22.1684 14.865 0.393
22.1889 14.635 0.390
22.2093 14.823 0.393
22.2298 15.260 0.399
22.2502 15.760 0.405
22.2707 15.125 0.397
22.2912 15.313 0.399
22.3116 15.292 0.399
22.3321 14.563 0.389
22.3526 14.667 0.391
22.3730 14.958 0.395
22.3935 14.865 0.393
22.4139 15.813 0.406
22.4344 14.792 0.393
22.4549 14.958 0.395
22.4753 15.167 0.397
22.4958 14.781 0.392
22.5163 15.458 0.401
22.5367 15.115 0.397
22.5572 14.729 0.392
22.5776 15.125 0.397
22.5981 15.615 0.403
22.6186 14.750 0.392
22.6390 15.323 0.400
22.6595 14.938 0.394
22.6800 14.958 0.395
22.7004 15.281 0.399
22.7209 14.594 0.390
22.7413 15.646 0.404
22.7618 15.781 0.405
22.7823 16.490 0.414
22.8027 16.844 0.419
22.8232 16.354 0.413
22.8437 17.594 0.428
22.8641 17.563 0.428
22.8846 18.448 0.438
22.9051 19.948 0.456
22.9255 20.927 0.467
22.9460 20.927 0.467
22.9664 22.396 0.483
22.9869 22.479 0.484
23.0074 22.583 0.485
23.0278 22.823 0.488
23.0483 22.448 0.484
23.0688 21.573 0.474
23.0892 22.260 0.482
23.1097 20.260 0.459
23.1301 19.698 0.453
23.1506 19.250 0.448
23.1711 19.323 0.449
23.1915 18.156 0.435
23.2120 16.854 0.419
23.2325 17.177 0.423
23.2529 15.688 0.404
23.2734 15.896 0.407
23.2938 15.906 0.407
23.3143 15.208 0.398
23.3348 15.396 0.400
23.3552 15.281 0.399
23.3757 14.479 0.388
23.3962 14.792 0.393
23.4166 14.688 0.391
23.4371 14.115 0.383
23.4575 14.323 0.386
23.4780 15.229 0.398
23.4985 15.208 0.398
23.5189 14.563 0.389
23.5394 15.292 0.399
23.5599 14.104 0.383
23.5803 14.052 0.383
23.6008 13.813 0.379
23.6212 14.417 0.388
23.6417 13.875 0.380
23.6622 14.188 0.384
23.6826 14.552 0.389
23.7031 13.708 0.378
23.7236 14.917 0.394
23.7440 14.292 0.386
23.7645 13.594 0.376
23.7850 13.979 0.382
23.8054 14.427 0.388
23.8259 13.438 0.374
23.8463 14.052 0.383
23.8668 14.073 0.383
23.8873 13.333 0.373
23.9077 14.115 0.383
23.9282 14.135 0.384
23.9487 13.708 0.378
23.9691 13.750 0.378
23.9896 13.719 0.378
24.0100 13.688 0.378
24.0305 14.000 0.382
24.0510 14.302 0.386
24.0714 13.396 0.374
24.0919 14.354 0.387
24.1124 14.229 0.385
24.1328 14.469 0.388
24.1533 14.094 0.383
24.1737 14.260 0.385
24.1942 13.250 0.372
24.2147 14.500 0.389
24.2351 14.302 0.386
24.2556 14.646 0.391
24.2761 14.823 0.393
24.2965 14.229 0.385
24.3170 15.135 0.397
24.3374 15.104 0.397
24.3579 15.667 0.404
24.3784 14.885 0.394
24.3988 15.000 0.395
24.4193 14.667 0.391
24.4398 15.063 0.396
24.4602 14.594 0.390
24.4807 14.573 0.390
24.5012 14.010 0.382
24.5216 15.021 0.396
24.5421 14.865 0.393
24.5625 14.156 0.384
24.5830 14.833 0.393
24.6035 14.073 0.383
24.6239 14.781 0.392
24.6444 14.531 0.389
24.6649 14.552 0.389
24.6853 15.531 0.402
24.7058 15.135 0.397
24.7262 14.844 0.393
24.7467 15.469 0.401
24.7672 15.052 0.396
24.7876 16.010 0.408
24.8081 15.469 0.401
24.8286 15.750 0.405
24.8490 15.542 0.402
24.8695 15.083 0.396
24.8899 15.427 0.401
24.9104 14.990 0.395
24.9309 15.188 0.398
24.9513 15.313 0.399
24.9718 14.104 0.383
24.9923 14.271 0.386
25.0127 14.583 0.390
25.0332 14.167 0.384
25.0536 14.240 0.385
25.0741 14.281 0.386
25.0946 14.240 0.385
25.1150 14.198 0.385
25.1355 14.938 0.394
25.1560 14.010 0.382
25.1764 14.042 0.382
25.1969 14.188 0.384
25.2173 14.010 0.382
25.2378 14.104 0.383
25.2583 14.073 0.383
25.2787 14.844 0.393
25.2992 13.510 0.375
25.3197 13.865 0.380
25.3401 14.198 0.385
25.3606 14.583 0.390
25.3811 14.521 0.389
25.4015 14.563 0.389
25.4220 14.083 0.383
25.4424 14.594 0.390
25.4629 13.885 0.380
25.4834 15.344 0.400
25.5038 14.417 0.388
25.5243 14.760 0.392
25.5448 15.271 0.399
25.5652 15.208 0.398
25.5857 15.417 0.401
25.6061 16.583 0.416
25.6266 15.542 0.402
25.6471 16.677 0.417
25.6675 16.083 0.409
25.6880 17.083 0.422
25.7085 16.719 0.417
25.7289 16.583 0.416
25.7494 16.260 0.412
25.7698 16.531 0.415
25.7903 16.156 0.410
25.8108 16.125 0.410
25.8312 15.802 0.406
25.8517 15.042 0.396
25.8722 15.135 0.397
25.8926 15.177 0.398
25.9131 14.125 0.384
25.9335 14.219 0.385
25.9540 14.354 0.387
25.9745 14.385 0.387
25.9949 14.115 0.383
26.0154 14.010 0.382
26.0359 14.000 0.382
26.0563 14.073 0.383
26.0768 13.844 0.380
26.0972 14.292 0.386
26.1177 13.906 0.381
26.1382 13.781 0.379
26.1586 14.042 0.382
26.1791 14.281 0.386
26.1996 13.281 0.372
26.2200 13.698 0.378
26.2405 13.615 0.377
26.2610 13.646 0.377
26.2814 14.969 0.395
26.3019 14.333 0.386
26.3223 15.031 0.396
26.3428 13.938 0.381
26.3633 15.031 0.396
26.3837 14.333 0.386
26.4042 14.010 0.382
26.4247 13.406 0.374
26.4451 13.958 0.381
26.4656 13.927 0.381
26.4860 14.667 0.391
26.5065 14.010 0.382
26.5270 14.375 0.387
26.5474 14.365 0.387
26.5679 15.354 0.400
26.5884 14.885 0.394
26.6088 14.750 0.392
26.6293 15.031 0.396
26.6497 15.333 0.400
26.6702 15.073 0.396
26.6907 15.385 0.400
26.7111 14.938 0.394
26.7316 15.510 0.402
26.7521 14.250 0.385
26.7725 14.125 0.384
26.7930 14.417 0.388
26.8134 14.760 0.392
26.8339 15.365 0.400
26.8544 14.563 0.389
26.8748 14.240 0.385
26.8953 13.906 0.381
26.9158 14.510 0.389
26.9362 13.917 0.381
26.9567 14.260 0.385
26.9771 15.094 0.397
26.9976 14.677 0.391
27.0181 14.448 0.388
27.0385 14.802 0.393
27.0590 13.896 0.380
27.0795 14.031 0.382
27.0999 14.052 0.383
27.1204 14.052 0.383
27.1409 14.583 0.390
27.1613 14.313 0.386
27.1818 14.365 0.387
27.2022 14.802 0.393
27.2227 14.177 0.384
27.2432 14.708 0.391
27.2636 14.260 0.385
27.2841 15.125 0.397
27.3046 14.615 0.390
27.3250 14.906 0.394
27.3455 14.927 0.394
27.3659 15.125 0.397
27.3864 15.031 0.396
27.4069 15.438 0.401
27.4273 15.583 0.403
27.4478 15.646 0.404
27.4683 16.396 0.413
27.4887 17.021 0.421
27.5092 15.594 0.403
27.5296 16.771 0.418
27.5501 16.740 0.418
27.5706 16.271 0.412
27.5910 16.000 0.408
27.6115 16.583 0.416
27.6320 16.333 0.412
27.6524 17.021 0.421
27.6729 16.979 0.421
27.6933 16.583 0.416
27.7138 16.313 0.412
27.7343 15.313 0.399
27.7547 16.198 0.411
27.7752 15.854 0.406
27.7957 15.333 0.400
27.8161 14.792 0.393
27.8366 15.646 0.404
27.8570 15.458 0.401
27.8775 14.979 0.395
27.8980 16.490 0.414
27.9184 14.990 0.395
27.9389 15.188 0.398
27.9594 15.667 0.404
27.9798 14.938 0.394
28.0003 15.802 0.406
28.0208 15.760 0.405
28.0412 15.813 0.406
28.0617 15.635 0.404
28.0821 16.156 0.410
28.1026 15.677 0.404
28.1231 15.125 0.397
28.1435 14.719 0.392
28.1640 15.208 0.398
28.1845 15.708 0.405
28.2049 15.052 0.396
28.2254 15.781 0.405
28.2458 15.656 0.404
28.2663 15.365 0.400
28.2868 15.990 0.408
28.3072 16.229 0.411
28.3277 15.677 0.404
28.3482 15.635 0.404
28.3686 15.719 0.405
28.3891 15.969 0.408
28.4095 17.188 0.423
28.4300 15.250 0.399
28.4505 15.604 0.403
28.4709 16.260 0.412
28.4914 16.156 0.410
28.5119 16.740 0.418
28.5323 16.552 0.415
28.5528 16.948 0.420
28.5732 17.615 0.428
28.5937 18.240 0.436
28.6142 18.844 0.443
28.6346 19.677 0.453
28.6551 21.781 0.476
28.6756 21.417 0.472
28.6960 22.531 0.484
28.7165 22.073 0.480
28.7370 21.052 0.468
28.7574 21.677 0.475
28.7779 20.656 0.464
28.7983 19.740 0.453
28.8188 19.396 0.449
28.8393 19.208 0.447
28.8597 19.229 0.448
28.8802 18.833 0.443
28.9007 18.948 0.444
28.9211 19.417 0.450
28.9416 19.354 0.449
28.9620 19.646 0.452
28.9825 19.823 0.454
29.0030 20.781 0.465
29.0234 20.188 0.459
29.0439 21.271 0.471
29.0644 21.917 0.478
29.0848 22.031 0.479
29.1053 23.635 0.496
29.1257 23.760 0.497
29.1462 24.073 0.501
29.1667 24.625 0.506
29.1871 25.188 0.512
29.2076 25.750 0.518
29.2281 26.615 0.527
29.2485 26.792 0.528
29.2690 28.740 0.547
29.2894 27.823 0.538
29.3099 29.167 0.551
29.3304 31.604 0.574
29.3508 32.792 0.584
29.3713 35.406 0.607
29.3918 39.448 0.641
29.4122 45.927 0.692
29.4327 48.833 0.713
29.4531 48.500 0.711
29.4736 45.802 0.691
29.4941 42.688 0.667
29.5145 39.865 0.644
29.5350 35.885 0.611
29.5555 32.333 0.580
29.5759 29.719 0.556
29.5964 27.458 0.535
29.6169 25.198 0.512
29.6373 24.979 0.510
29.6578 24.813 0.508
29.6782 23.385 0.494
29.6987 23.688 0.497
29.7192 22.802 0.487
29.7396 22.167 0.481
29.7601 21.969 0.478
29.7806 22.260 0.482
29.8010 21.490 0.473
29.8215 21.406 0.472
29.8419 21.302 0.471
29.8624 20.990 0.468
29.8829 21.365 0.472
29.9033 21.969 0.478
29.9238 20.958 0.467
29.9443 20.292 0.460
29.9647 20.396 0.461
29.9852 20.542 0.463
30.0056 21.333 0.471
30.0261 20.417 0.461
30.0466 20.875 0.466
30.0670 21.313 0.471
30.0875 21.948 0.478
30.1080 21.542 0.474
30.1284 20.094 0.458
30.1489 19.688 0.453
30.1693 19.500 0.451
30.1898 19.906 0.455
30.2103 19.417 0.450
30.2307 18.510 0.439
30.2512 19.250 0.448
30.2717 18.167 0.435
30.2921 18.344 0.437
30.3126 17.813 0.431
30.3330 18.010 0.433
30.3535 17.781 0.430
30.3740 18.510 0.439
30.3944 18.021 0.433
30.4149 18.563 0.440
30.4354 18.385 0.438
30.4558 17.333 0.425
30.4763 17.656 0.429
30.4968 18.188 0.435
30.5172 17.646 0.429
30.5377 18.250 0.436
30.5581 16.792 0.418
30.5786 17.802 0.431
30.5991 17.615 0.428
30.6195 18.000 0.433
30.6400 17.396 0.426
30.6605 17.208 0.423
30.6809 17.229 0.424
30.7014 17.417 0.426
30.7218 17.135 0.422
30.7423 18.021 0.433
30.7628 16.896 0.420
30.7832 17.656 0.429
30.8037 16.729 0.417
30.8242 17.125 0.422
30.8446 16.396 0.413
30.8651 17.177 0.423
30.8855 17.500 0.427
30.9060 17.177 0.423
30.9265 17.542 0.427
30.9469 16.698 0.417
30.9674 16.958 0.420
30.9879 17.177 0.423
31.0083 17.396 0.426
31.0288 17.469 0.427
31.0492 18.188 0.435
31.0697 17.958 0.433
31.0902 17.469 0.427
31.1106 17.396 0.426
31.1311 17.167 0.423
31.1516 17.688 0.429
31.1720 16.490 0.414
31.1925 16.792 0.418
31.2129 17.073 0.422
31.2334 17.354 0.425
31.2539 16.438 0.414
31.2743 16.990 0.421
31.2948 15.615 0.403
31.3153 16.167 0.410
31.3357 16.010 0.408
31.3562 16.021 0.409
31.3767 15.729 0.405
31.3971 16.156 0.410
31.4176 15.740 0.405
31.4380 15.771 0.405
31.4585 16.313 0.412
31.4790 16.469 0.414
31.4994 15.917 0.407
31.5199 16.135 0.410
31.5404 16.188 0.411
31.5608 17.000 0.421
31.5813 16.938 0.420
31.6017 16.313 0.412
31.6222 16.563 0.415
31.6427 16.448 0.414
31.6631 16.490 0.414
31.6836 17.313 0.425
31.7041 16.531 0.415
31.7245 17.167 0.423
31.7450 16.656 0.417
31.7654 17.281 0.424
31.7859 17.729 0.430
31.8064 17.542 0.427
31.8268 17.802 0.431
31.8473 17.635 0.429
31.8678 17.740 0.430
31.8882 17.604 0.428
31.9087 18.333 0.437
31.9291 18.583 0.440
31.9496 18.115 0.434
31.9701 18.333 0.437
31.9905 18.208 0.436
32.0110 19.167 0.447
32.0315 19.552 0.451
32.0519 19.771 0.454
32.0724 20.479 0.462
32.0928 21.667 0.475
32.1133 22.406 0.483
32.1338 24.156 0.502
32.1542 25.438 0.515
32.1747 25.354 0.514
32.1952 25.542 0.516
32.2156 26.813 0.528
32.2361 28.385 0.544
32.2566 26.708 0.527
32.2770 25.698 0.517
32.2975 25.698 0.517
32.3179 24.490 0.505
32.3384 24.021 0.500
32.3589 23.031 0.490
32.3793 24.875 0.509
32.3998 24.188 0.502
32.4203 23.865 0.499
32.4407 23.594 0.496
32.4612 22.885 0.488
32.4816 22.969 0.489
32.5021 23.427 0.494
32.5226 23.844 0.498
32.5430 25.271 0.513
32.5635 25.594 0.516
32.5840 25.583 0.516
32.6044 25.573 0.516
32.6249 24.813 0.508
32.6453 24.156 0.502
32.6658 23.156 0.491
32.6863 21.448 0.473
32.7067 19.458 0.450
32.7272 19.729 0.453
32.7477 18.740 0.442
32.7681 18.135 0.435
32.7886 18.427 0.438
32.8090 16.625 0.416
32.8295 16.552 0.415
32.8500 16.750 0.418
32.8704 16.313 0.412
32.8909 16.698 0.417
32.9114 16.302 0.412
32.9318 16.031 0.409
32.9523 16.115 0.410
32.9728 16.448 0.414
32.9932 16.729 0.417
33.0137 16.708 0.417
33.0341 16.625 0.416
33.0546 16.750 0.418
33.0751 16.760 0.418
33.0955 16.375 0.413
33.1160 17.281 0.424
33.1365 17.042 0.421
33.1569 17.583 0.428
33.1774 17.573 0.428
33.1978 19.167 0.447
33.2183 17.781 0.430
33.2388 19.646 0.452
33.2592 19.885 0.455
33.2797 21.167 0.470
33.3002 20.865 0.466
33.3206 19.625 0.452
33.3411 19.260 0.448
33.3615 19.323 0.449
33.3820 18.313 0.437
33.4025 17.073 0.422
33.4229 17.604 0.428
33.4434 16.385 0.413
33.4639 16.021 0.409
33.4843 16.385 0.413
33.5048 16.604 0.416
33.5252 16.167 0.410
33.5457 16.646 0.416
33.5662 16.250 0.411
33.5866 16.844 0.419
33.6071 16.469 0.414
33.6276 16.688 0.417
33.6480 16.844 0.419
33.6685 16.167 0.410
33.6889 16.313 0.412
33.7094 16.146 0.410
33.7299 15.688 0.404
33.7503 16.427 0.414
33.7708 16.510 0.415
33.7913 16.906 0.420
33.8117 18.635 0.441
33.8322 19.063 0.446
33.8527 18.792 0.442
33.8731 19.083 0.446
33.8936 19.313 0.449
33.9140 20.781 0.465
33.9345 19.802 0.454
33.9550 20.885 0.466
33.9754 21.698 0.475
33.9959 23.417 0.494
34.0164 25.396 0.514
34.0368 26.000 0.520
34.0573 31.740 0.575
34.0777 34.490 0.599
34.0982 38.125 0.630
34.1187 38.823 0.636
34.1391 36.229 0.614
34.1596 34.417 0.599
34.1801 31.865 0.576
34.2005 30.417 0.563
34.2210 27.906 0.539
34.2414 24.354 0.504
34.2619 21.885 0.477
34.2824 21.302 0.471
34.3028 21.844 0.477
34.3233 22.188 0.481
34.3438 20.854 0.466
34.3642 22.479 0.484
34.3847 21.042 0.468
34.4051 20.271 0.460
34.4256 19.948 0.456
34.4461 18.740 0.442
34.4665 18.146 0.435
34.4870 17.271 0.424
34.5075 16.719 0.417
34.5279 15.510 0.402
34.5484 15.198 0.398
34.5688 15.094 0.397
34.5893 14.573 0.390
34.6098 13.656 0.377
34.6302 13.448 0.374
34.6507 14.010 0.382
34.6712 13.604 0.376
34.6916 13.656 0.377
34.7121 14.010 0.382
34.7326 13.708 0.378
34.7530 14.531 0.389
34.7735 13.188 0.371
34.7939 13.760 0.379
34.8144 14.073 0.383
34.8349 13.188 0.371
34.8553 14.250 0.385
34.8758 14.396 0.387
34.8963 13.667 0.377
34.9167 14.229 0.385
34.9372 14.833 0.393
34.9576 14.198 0.385
34.9781 15.875 0.407
34.9986 15.438 0.401
35.0190 16.281 0.412
35.0395 17.125 0.422
35.0600 16.302 0.412
35.0804 16.417 0.414
35.1009 16.729 0.417
35.1213 16.302 0.412
35.1418 16.229 0.411
35.1623 16.094 0.409
35.1827 15.823 0.406
35.2032 15.958 0.408
35.2237 15.969 0.408
35.2441 16.188 0.411
35.2646 14.885 0.394
35.2850 15.260 0.399
35.3055 15.146 0.397
35.3260 14.396 0.387
35.3464 14.583 0.390
35.3669 13.896 0.380
35.3874 14.490 0.389
35.4078 13.188 0.371
35.4283 13.719 0.378
35.4487 12.698 0.364
35.4692 13.292 0.372
35.4897 12.688 0.364
35.5101 12.563 0.362
35.5306 12.302 0.358
35.5511 11.958 0.353
35.5715 13.021 0.368
35.5920 13.010 0.368
35.6125 13.188 0.371
35.6329 12.844 0.366
35.6534 12.958 0.367
35.6738 12.521 0.361
35.6943 12.635 0.363
35.7148 12.594 0.362
35.7352 12.760 0.365
35.7557 12.833 0.366
35.7762 12.531 0.361
35.7966 12.802 0.365
35.8171 12.292 0.358
35.8375 12.365 0.359
35.8580 12.458 0.360
35.8785 12.042 0.354
35.8989 12.302 0.358
35.9194 12.740 0.364
35.9399 12.958 0.367
35.9603 13.583 0.376
35.9808 13.500 0.375
36.0012 13.521 0.375
36.0217 14.010 0.382
36.0422 14.094 0.383
36.0626 12.563 0.362
36.0831 13.448 0.374
36.1036 13.688 0.378
36.1240 12.042 0.354
36.1445 13.448 0.374
36.1649 12.458 0.360
36.1854 12.323 0.358
36.2059 12.969 0.368
36.2263 12.698 0.364
36.2468 12.604 0.362
36.2673 12.198 0.356
36.2877 13.260 0.372
36.3082 13.229 0.371
36.3286 12.260 0.357
36.3491 12.063 0.354
36.3696 12.365 0.359
36.3900 12.104 0.355
36.4105 12.781 0.365
36.4310 12.427 0.360
36.4514 12.479 0.361
36.4719 11.698 0.349
36.4924 12.385 0.359
36.5128 12.427 0.360
36.5333 11.833 0.351
36.5537 11.938 0.353
36.5742 11.313 0.343
36.5947 11.563 0.347
36.6151 12.167 0.356
36.6356 11.917 0.352
36.6561 11.990 0.353
36.6765 11.698 0.349
36.6970 12.781 0.365
36.7174 11.292 0.343
36.7379 12.281 0.358
36.7584 12.302 0.358
36.7788 12.156 0.356
36.7993 11.677 0.349
36.8198 11.396 0.345
36.8402 11.969 0.353
36.8607 11.698 0.349
36.8811 11.917 0.352
36.9016 11.927 0.352
36.9221 11.438 0.345
36.9425 11.260 0.342
36.9630 11.646 0.348
36.9835 11.156 0.341
37.0039 11.594 0.348
37.0244 11.615 0.348
37.0448 11.531 0.347
37.0653 11.208 0.342
37.0858 11.563 0.347
37.1062 10.917 0.337
37.1267 12.156 0.356
37.1472 11.729 0.350
37.1676 11.948 0.353
37.1881 11.594 0.348
37.2085 11.906 0.352
37.2290 11.594 0.348
37.2495 11.979 0.353
37.2699 11.833 0.351
37.2904 11.948 0.353
37.3109 11.854 0.351
37.3313 11.865 0.352
37.3518 11.833 0.351
37.3723 12.750 0.364
37.3927 11.969 0.353
37.4132 12.990 0.368
37.4336 11.792 0.350
37.4541 11.771 0.350
37.4746 11.573 0.347
37.4950 11.781 0.350
37.5155 11.750 0.350
37.5360 10.792 0.335
37.5564 10.698 0.334
37.5769 11.771 0.350
37.5973 11.146 0.341
37.6178 11.021 0.339
37.6383 10.365 0.329
37.6587 11.333 0.344
37.6792 11.667 0.349
37.6997 10.698 0.334
37.7201 10.677 0.333
37.7406 11.083 0.340
37.7610 10.240 0.327
37.7815 11.052 0.339
37.8020 11.146 0.341
37.8224 10.500 0.331
37.8429 11.146 0.341
37.8634 11.000 0.339
37.8838 10.656 0.333
37.9043 10.521 0.331
37.9247 11.229 0.342
37.9452 10.635 0.333
37.9657 10.521 0.331
37.9861 11.083 0.340
38.0066 10.646 0.333
38.0271 10.521 0.331
38.0475 10.469 0.330
38.0680 9.948 0.322
38.0885 11.156 0.341
38.1089 10.844 0.336
38.1294 11.208 0.342
38.1498 10.708 0.334
38.1703 10.406 0.329
38.1908 10.333 0.328
38.2112 10.323 0.328
38.2317 10.510 0.331
38.2522 10.646 0.333
38.2726 10.375 0.329
38.2931 10.813 0.336
38.3135 10.719 0.334
38.3340 10.667 0.333
38.3545 10.542 0.331
38.3749 10.708 0.334
38.3954 11.396 0.345
38.4159 10.813 0.336
38.4363 10.854 0.336
38.4568 10.115 0.325
38.4772 10.656 0.333
38.4977 10.719 0.334
38.5182 10.292 0.327
38.5386 10.115 0.325
38.5591 10.781 0.335
38.5796 9.979 0.322
38.6000 10.448 0.330
38.6205 10.625 0.333
38.6409 11.375 0.344
38.6614 10.906 0.337
38.6819 11.313 0.343
38.7023 12.010 0.354
38.7228 11.458 0.345
38.7433 10.885 0.337
38.7637 11.646 0.348
38.7842 10.875 0.337
38.8046 11.427 0.345
38.8251 11.573 0.347
38.8456 11.052 0.339
38.8660 10.938 0.338
38.8865 10.896 0.337
38.9070 10.604 0.332
38.9274 10.854 0.336
38.9479 10.063 0.324
38.9684 10.406 0.329
38.9888 10.333 0.328
39.0093 10.844 0.336
39.0297 9.792 0.319
39.0502 10.677 0.333
39.0707 10.438 0.330
39.0911 10.969 0.338
39.1116 11.010 0.339
39.1321 10.885 0.337
39.1525 10.583 0.332
39.1730 10.510 0.331
39.1934 10.896 0.337
39.2139 10.469 0.330
39.2344 10.927 0.337
39.2548 10.583 0.332
39.2753 11.146 0.341
39.2958 11.385 0.344
39.3162 11.250 0.342
39.3367 11.292 0.343
39.3571 12.156 0.356
39.3776 12.073 0.355
39.3981 12.229 0.357
39.4185 12.552 0.362
39.4390 13.271 0.372
39.4595 13.615 0.377
39.4799 13.115 0.370
39.5004 13.031 0.368
39.5208 13.354 0.373
39.5413 12.531 0.361
39.5618 11.708 0.349
39.5822 11.969 0.353
39.6027 12.177 0.356
39.6232 12.208 0.357
39.6436 10.938 0.338
39.6641 10.646 0.333
39.6845 10.948 0.338
39.7050 10.625 0.333
39.7255 10.531 0.331
39.7459 9.896 0.321
39.7664 10.417 0.329
39.7869 10.708 0.334
39.8073 10.542 0.331
39.8278 10.438 0.330
39.8483 10.375 0.329
39.8687 10.667 0.333
39.8892 9.979 0.322
39.9096 10.021 0.323
39.9301 10.146 0.325
39.9506 9.990 0.323
39.9710 10.302 0.328
39.9915 10.906 0.337
40.0120 10.198 0.326
40.0324 10.021 0.323
40.0529 9.781 0.319
40.0733 9.594 0.316
40.0938 9.802 0.320
40.1143 9.667 0.317
40.1347 9.448 0.314
40.1552 10.073 0.324
40.1757 10.052 0.324
40.1961 10.229 0.326
40.2166 10.208 0.326
40.2370 9.854 0.320
40.2575 9.823 0.320
40.2780 10.031 0.323
40.2984 10.281 0.327
40.3189 10.344 0.328
40.3394 10.583 0.332
40.3598 10.385 0.329
40.3803 9.573 0.316
40.4007 10.521 0.331
40.4212 10.198 0.326
40.4417 9.958 0.322
40.4621 10.021 0.323
40.4826 10.594 0.332
40.5031 10.542 0.331
40.5235 10.667 0.333
40.5440 10.667 0.333
40.5644 11.125 0.340
40.5849 11.500 0.346
40.6054 10.771 0.335
40.6258 10.052 0.324
40.6463 10.427 0.330
40.6668 11.125 0.340
40.6872 10.917 0.337
40.7077 11.281 0.343
40.7282 11.906 0.352
40.7486 11.500 0.346
40.7691 11.188 0.341
40.7895 11.823 0.351
40.8100 12.771 0.365
40.8305 12.688 0.364
40.8509 12.719 0.364
40.8714 13.427 0.374
40.8919 13.448 0.374
40.9123 13.813 0.379
40.9328 13.792 0.379
40.9532 14.042 0.382
40.9737 13.198 0.371
40.9942 14.771 0.392
41.0146 14.802 0.393
41.0351 14.250 0.385
41.0556 15.125 0.397
41.0760 15.146 0.397
41.0965 14.177 0.384
41.1169 14.531 0.389
41.1374 14.771 0.392
41.1579 15.438 0.401
41.1783 15.281 0.399
41.1988 15.406 0.401
41.2193 15.104 0.397
41.2397 15.969 0.408
41.2602 15.531 0.402
41.2806 15.573 0.403
41.3011 15.448 0.401
41.3216 15.302 0.399
41.3420 15.219 0.398
41.3625 14.385 0.387
41.3830 14.500 0.389
41.4034 13.958 0.381
41.4239 13.906 0.381
41.4443 13.229 0.371
41.4648 12.281 0.358
41.4853 11.917 0.352
41.5057 11.385 0.344
41.5262 11.865 0.352
41.5467 11.958 0.353
41.5671 12.125 0.355
41.5876 12.302 0.358
41.6081 12.146 0.356
41.6285 12.406 0.359
41.6490 11.719 0.349
41.6694 11.573 0.347
41.6899 11.531 0.347
41.7104 11.875 0.352
41.7308 11.563 0.347
41.7513 12.052 0.354
41.7718 10.583 0.332
41.7922 11.344 0.344
41.8127 10.802 0.335
41.8331 10.438 0.330
41.8536 11.427 0.345
41.8741 11.635 0.348
41.8945 12.115 0.355
41.9150 11.948 0.353
41.9355 11.646 0.348
41.9559 11.844 0.351
41.9764 12.177 0.356
41.9968 12.531 0.361
42.0173 11.531 0.347
42.0378 13.031 0.368
42.0582 11.719 0.349
42.0787 12.073 0.355
42.0992 12.240 0.357
42.1196 12.656 0.363
42.1401 12.458 0.360
42.1605 12.104 0.355
42.1810 11.438 0.345
42.2015 11.604 0.348
42.2219 11.135 0.341
42.2424 11.344 0.344
42.2629 11.240 0.342
42.2833 10.750 0.335
42.3038 10.656 0.333
42.3243 11.260 0.342
42.3447 11.521 0.346
42.3652 11.760 0.350
42.3856 11.490 0.346
42.4061 11.240 0.342
42.4266 11.104 0.340
42.4470 11.813 0.351
42.4675 11.552 0.347
42.4880 12.865 0.366
42.5084 11.792 0.350
42.5289 13.146 0.370
42.5493 13.063 0.369
42.5698 12.781 0.365
42.5903 12.469 0.360
42.6107 12.052 0.354
42.6312 12.750 0.364
42.6517 12.906 0.367
42.6721 12.052 0.354
42.6926 11.469 0.346
42.7130 12.167 0.356
42.7335 11.469 0.346
42.7540 11.583 0.347
42.7744 11.573 0.347
42.7949 11.792 0.350
42.8154 11.125 0.340
42.8358 10.802 0.335
42.8563 11.104 0.340
42.8767 10.875 0.337
42.8972 10.708 0.334
42.9177 11.250 0.342
42.9381 10.979 0.338
42.9586 10.813 0.336
42.9791 10.906 0.337
42.9995 10.323 0.328
43.0200 10.906 0.337
43.0404 10.844 0.336
43.0609 10.958 0.338
43.0814 11.125 0.340
43.1018 11.365 0.344
43.1223 11.854 0.351
43.1428 12.250 0.357
43.1632 11.500 0.346
43.1837 12.500 0.361
43.2042 12.417 0.360
43.2246 12.354 0.359
43.2451 11.958 0.353
43.2655 11.542 0.347
43.2860 12.396 0.359
43.3065 11.604 0.348
43.3269 12.271 0.358
43.3474 11.979 0.353
43.3679 11.938 0.353
43.3883 11.177 0.341
43.4088 11.844 0.351
43.4292 11.667 0.349
43.4497 12.260 0.357
43.4702 11.146 0.341
43.4906 11.760 0.350
43.5111 12.198 0.356
43.5316 11.271 0.343
43.5520 11.979 0.353
43.5725 11.854 0.351
43.5929 12.344 0.359
43.6134 11.958 0.353
43.6339 11.948 0.353
43.6543 12.177 0.356
43.6748 12.333 0.358
43.6953 11.510 0.346
43.7157 12.167 0.356
43.7362 11.719 0.349
43.7566 11.302 0.343
43.7771 10.719 0.334
43.7976 11.031 0.339
43.8180 11.021 0.339
43.8385 11.094 0.340
43.8590 11.375 0.344
43.8794 11.604 0.348
43.8999 10.927 0.337
43.9203 10.823 0.336
43.9408 11.531 0.347
43.9613 10.833 0.336
43.9817 10.854 0.336
44.0022 11.146 0.341
44.0227 11.688 0.349
44.0431 11.729 0.350
44.0636 11.188 0.341
44.0841 11.531 0.347
44.1045 11.885 0.352
44.1250 11.385 0.344
44.1454 11.177 0.341
44.1659 11.292 0.343
44.1864 11.031 0.339
44.2068 11.156 0.341
44.2273 11.146 0.341
44.2478 11.563 0.347
44.2682 11.875 0.352
44.2887 11.042 0.339
44.3091 11.042 0.339
44.3296 10.792 0.335
44.3501 11.635 0.348
44.3705 10.917 0.337
44.3910 10.677 0.333
44.4115 10.906 0.337
44.4319 11.365 0.344
44.4524 10.823 0.336
44.4728 10.542 0.331
44.4933 11.177 0.341
44.5138 10.229 0.326
44.5342 10.792 0.335
44.5547 11.271 0.343
44.5752 10.604 0.332
44.5956 11.948 0.353
44.6161 10.542 0.331
44.6365 11.250 0.342
44.6570 11.000 0.339
44.6775 10.990 0.338
44.6979 11.063 0.339
44.7184 10.990 0.338
44.7389 11.229 0.342
44.7593 11.198 0.342
44.7798 10.823 0.336
44.8002 10.490 0.331
44.8207 10.448 0.330
44.8412 10.771 0.335
44.8616 10.448 0.330
44.8821 10.656 0.333
44.9026 10.750 0.335
44.9230 10.083 0.324
44.9435 10.396 0.329
44.9640 10.125 0.325
44.9844 10.531 0.331
45.0049 10.438 0.330
45.0253 10.354 0.328
45.0458 10.021 0.323
45.0663 9.500 0.315
45.0867 10.135 0.325
45.1072 9.979 0.322
45.1277 10.010 0.323
45.1481 10.240 0.327
45.1686 10.448 0.330
45.1890 10.125 0.325
45.2095 10.135 0.325
45.2300 10.156 0.325
45.2504 10.500 0.331
45.2709 10.479 0.330
45.2914 10.427 0.330
45.3118 9.490 0.314
45.3323 10.510 0.331
45.3527 10.333 0.328
45.3732 9.698 0.318
45.3937 10.208 0.326
45.4141 10.396 0.329
45.4346 10.479 0.330
45.4551 10.167 0.325
45.4755 10.875 0.337
45.4960 9.802 0.320
45.5164 10.323 0.328
45.5369 10.813 0.336
45.5574 10.375 0.329
45.5778 10.573 0.332
45.5983 10.438 0.330
45.6188 10.323 0.328
45.6392 10.385 0.329
45.6597 9.760 0.319
45.6801 10.833 0.336
45.7006 11.167 0.341
45.7211 11.156 0.341
45.7415 11.083 0.340
45.7620 10.740 0.334
45.7825 10.740 0.334
45.8029 11.406 0.345
45.8234 11.177 0.341
45.8439 11.594 0.348
45.8643 11.073 0.340
45.8848 10.729 0.334
45.9052 11.490 0.346
45.9257 10.490 0.331
45.9462 10.594 0.332
45.9666 10.615 0.333
45.9871 10.698 0.334
46.0076 10.760 0.335
46.0280 10.625 0.333
46.0485 9.719 0.318
46.0689 10.073 0.324
46.0894 10.094 0.324
46.1099 10.344 0.328
46.1303 10.802 0.335
46.1508 9.865 0.321
46.1713 9.958 0.322
46.1917 9.885 0.321
46.2122 10.198 0.326
46.2326 9.708 0.318
46.2531 9.615 0.316
46.2736 9.948 0.322
46.2940 10.583 0.332
46.3145 9.583 0.316
46.3350 10.000 0.323
46.3554 9.927 0.322
46.3759 10.250 0.327
46.3963 10.229 0.326
46.4168 10.698 0.334
46.4373 10.354 0.328
46.4577 9.885 0.321
46.4782 9.771 0.319
46.4987 10.198 0.326
46.5191 10.135 0.325
46.5396 10.188 0.326
46.5601 10.510 0.331
46.5805 10.542 0.331
46.6010 9.688 0.318
46.6214 10.417 0.329
46.6419 10.667 0.333
46.6624 10.760 0.335
46.6828 10.823 0.336
46.7033 11.552 0.347
46.7238 11.844 0.351
46.7442 10.823 0.336
46.7647 11.167 0.341
46.7851 12.219 0.357
46.8056 11.333 0.344
46.8261 12.000 0.354
46.8465 12.052 0.354
46.8670 11.833 0.351
46.8875 11.885 0.352
46.9079 11.938 0.353
46.9284 12.635 0.363
46.9488 12.594 0.362
46.9693 13.042 0.369
46.9898 13.729 0.378
47.0102 14.375 0.387
47.0307 15.219 0.398
47.0512 15.292 0.399
47.0716 16.438 0.414
47.0921 16.771 0.418
47.1125 17.354 0.425
47.1330 17.729 0.430
47.1535 17.719 0.430
47.1739 17.240 0.424
47.1944 17.698 0.429
47.2149 17.031 0.421
47.2353 15.833 0.406
47.2558 16.073 0.409
47.2762 15.542 0.402
47.2967 15.021 0.396
47.3172 14.042 0.382
47.3376 14.125 0.384
47.3581 14.000 0.382
47.3786 13.052 0.369
47.3990 13.698 0.378
47.4195 12.906 0.367
47.4400 12.813 0.365
47.4604 12.969 0.368
47.4809 13.146 0.370
47.5013 12.531 0.361
47.5218 12.823 0.365
47.5423 13.438 0.374
47.5627 13.240 0.371
47.5832 13.188 0.371
47.6037 12.677 0.363
47.6241 12.240 0.357
47.6446 12.573 0.362
47.6650 12.344 0.359
47.6855 12.333 0.358
47.7060 12.365 0.359
47.7264 12.010 0.354
47.7469 11.719 0.349
47.7674 11.438 0.345
47.7878 11.875 0.352
47.8083 11.531 0.347
47.8287 11.406 0.345
47.8492 11.104 0.340
47.8697 11.208 0.342
47.8901 11.906 0.352
47.9106 10.927 0.337
47.9311 10.375 0.329
47.9515 10.510 0.331
47.9720 10.698 0.334
47.9924 10.313 0.328
48.0129 10.406 0.329
48.0334 11.021 0.339
48.0538 10.458 0.330
48.0743 10.406 0.329
48.0948 10.427 0.330
48.1152 9.813 0.320
48.1357 10.198 0.326
48.1561 9.750 0.319
48.1766 9.594 0.316
48.1971 10.073 0.324
48.2175 9.177 0.309
48.2380 10.135 0.325
48.2585 9.396 0.313
48.2789 9.708 0.318
48.2994 10.104 0.324
48.3199 9.667 0.317
48.3403 10.031 0.323
48.3608 10.188 0.326
48.3812 10.406 0.329
48.4017 9.958 0.322
48.4222 10.115 0.325
48.4426 10.302 0.328
48.4631 10.354 0.328
48.4836 10.781 0.335
48.5040 11.083 0.340
48.5245 10.563 0.332
48.5449 10.958 0.338
48.5654 11.656 0.348
48.5859 11.156 0.341
48.6063 11.198 0.342
48.6268 10.948 0.338
48.6473 11.052 0.339
48.6677 10.875 0.337
48.6882 10.365 0.329
48.7086 10.729 0.334
48.7291 10.417 0.329
48.7496 10.281 0.327
48.7700 9.729 0.318
48.7905 9.833 0.320
48.8110 9.875 0.321
48.8314 9.927 0.322
48.8519 9.792 0.319
48.8723 9.667 0.317
48.8928 10.031 0.323
48.9133 10.052 0.324
48.9337 10.083 0.324
48.9542 9.969 0.322
48.9747 10.000 0.323
48.9951 10.156 0.325
49.0156 9.708 0.318
49.0360 9.833 0.320
49.0565 10.208 0.326
49.0770 9.542 0.315
49.0974 10.615 0.333
49.1179 10.510 0.331
49.1384 9.969 0.322
49.1588 10.073 0.324
49.1793 10.156 0.325
49.1998 9.885 0.321
49.2202 10.125 0.325
49.2407 10.208 0.326
49.2611 10.552 0.332
49.2816 10.813 0.336
49.3021 10.688 0.334
49.3225 10.479 0.330
49.3430 10.833 0.336
49.3635 12.083 0.355
49.3839 11.063 0.339
49.4044 11.094 0.340
49.4248 11.719 0.349
49.4453 11.573 0.347
49.4658 11.823 0.351
49.4862 11.802 0.351
49.5067 11.333 0.344
49.5272 12.260 0.357
49.5476 12.417 0.360
49.5681 12.229 0.357
49.5885 12.031 0.354
49.6090 11.969 0.353
49.6295 12.458 0.360
49.6499 11.542 0.347
49.6704 11.719 0.349
49.6909 12.188 0.356
49.7113 12.125 0.355
49.7318 12.781 0.365
49.7522 12.594 0.362
49.7727 12.167 0.356
49.7932 13.156 0.370
49.8136 12.313 0.358
49.8341 12.750 0.364
49.8546 13.396 0.374
49.8750 12.698 0.364
49.8955 12.583 0.362
49.9159 13.552 0.376
49.9364 12.469 0.360
49.9569 13.438 0.374
49.9773 13.021 0.368
49.9978 13.031 0.368
50.0183 12.833 0.366
50.0387 12.375 0.359
50.0592 12.240 0.357
50.0797 12.594 0.362
50.1001 12.813 0.365
50.1206 12.979 0.368
50.1410 12.010 0.354
50.1615 12.146 0.356
50.1820 12.344 0.359
50.2024 11.865 0.352
50.2229 11.521 0.346
50.2434 11.000 0.339
50.2638 11.604 0.348
50.2843 12.052 0.354
50.3047 11.323 0.343
50.3252 11.698 0.349
50.3457 11.344 0.344
50.3661 10.094 0.324
50.3866 10.313 0.328
50.4071 10.281 0.327
50.4275 10.917 0.337
50.4480 11.198 0.342
50.4684 10.990 0.338
50.4889 10.896 0.337
50.5094 11.260 0.342
50.5298 11.125 0.340
50.5503 10.875 0.337
50.5708 10.385 0.329
50.5912 11.167 0.341
50.6117 11.094 0.340
50.6321 11.073 0.340
50.6526 10.948 0.338
50.6731 11.083 0.340
50.6935 11.458 0.345
50.7140 11.677 0.349
50.7345 13.167 0.370
50.7549 14.208 0.385
50.7754 14.813 0.393
50.7959 16.688 0.417
50.8163 16.000 0.408
50.8368 15.021 0.396
50.8572 13.563 0.376
50.8777 13.719 0.378
50.8982 13.115 0.370
50.9186 13.479 0.375
50.9391 13.479 0.375
50.9596 13.198 0.371
50.9800 12.823 0.365
51.0005 11.438 0.345
51.0209 11.365 0.344
51.0414 10.844 0.336
51.0619 11.063 0.339
51.0823 9.583 0.316
51.1028 10.208 0.326
51.1233 10.385 0.329
51.1437 9.438 0.314
51.1642 10.115 0.325
51.1846 9.531 0.315
51.2051 9.146 0.309
51.2256 9.073 0.307
51.2460 9.260 0.311
51.2665 9.167 0.309
51.2870 9.083 0.308
51.3074 8.979 0.306
51.3279 8.667 0.300
51.3483 9.156 0.309
51.3688 8.844 0.304
51.3893 8.677 0.301
51.4097 8.781 0.302
51.4302 9.135 0.308
51.4507 9.531 0.315
51.4711 8.948 0.305
51.4916 9.146 0.309
51.5120 8.552 0.298
51.5325 8.688 0.301
51.5530 8.760 0.302
51.5734 9.229 0.310
51.5939 9.313 0.311
51.6144 9.563 0.316
51.6348 9.813 0.320
51.6553 10.781 0.335
51.6758 11.427 0.345
51.6962 11.958 0.353
51.7167 11.490 0.346
51.7371 11.813 0.351
51.7576 10.906 0.337
51.7781 10.844 0.336
51.7985 10.594 0.332
51.8190 11.000 0.339
51.8395 12.021 0.354
51.8599 10.958 0.338
51.8804 11.229 0.342
51.9008 10.688 0.334
51.9213 9.698 0.318
51.9418 9.948 0.322
51.9622 10.156 0.325
51.9827 9.333 0.312
52.0032 9.417 0.313
52.0236 9.781 0.319
52.0441 9.313 0.311
52.0645 9.323 0.312
52.0850 9.188 0.309
52.1055 9.385 0.313
52.1259 8.479 0.297
52.1464 8.906 0.305
52.1669 8.396 0.296
52.1873 8.885 0.304
52.2078 8.646 0.300
52.2282 9.260 0.311
52.2487 8.917 0.305
52.2692 8.823 0.303
52.2896 8.865 0.304
52.3101 8.240 0.293
52.3306 8.885 0.304
52.3510 8.479 0.297
52.3715 8.510 0.298
52.3919 8.844 0.304
52.4124 8.510 0.298
52.4329 8.292 0.294
52.4533 8.604 0.299
52.4738 8.938 0.305
52.4943 8.688 0.301
52.5147 8.354 0.295
52.5352 9.104 0.308
52.5557 8.719 0.301
52.5761 8.875 0.304
52.5966 8.708 0.301
52.6170 8.542 0.298
52.6375 9.250 0.310
52.6580 8.865 0.304
52.6784 8.865 0.304
52.6989 8.708 0.301
52.7194 8.865 0.304
52.7398 8.583 0.299
52.7603 8.740 0.302
52.7807 8.583 0.299
52.8012 8.396 0.296
52.8217 8.667 0.300
52.8421 8.188 0.292
52.8626 8.771 0.302
52.8831 8.667 0.300
52.9035 8.958 0.305
52.9240 8.604 0.299
52.9444 8.833 0.303
52.9649 9.146 0.309
52.9854 8.542 0.298
53.0058 9.417 0.313
53.0263 8.594 0.299
53.0468 8.813 0.303
53.0672 8.708 0.301
53.0877 8.594 0.299
53.1081 8.948 0.305
53.1286 7.938 0.288
53.1491 8.615 0.300
53.1695 9.188 0.309
53.1900 8.719 0.301
53.2105 8.469 0.297
53.2309 8.521 0.298
53.2514 8.667 0.300
53.2718 8.688 0.301
53.2923 8.792 0.303
53.3128 8.688 0.301
53.3332 9.167 0.309
53.3537 9.073 0.307
53.3742 7.885 0.287
53.3946 8.906 0.305
53.4151 8.375 0.295
53.4356 9.354 0.312
53.4560 9.042 0.307
53.4765 8.802 0.303
53.4969 8.500 0.298
53.5174 8.750 0.302
53.5379 9.083 0.308
53.5583 8.219 0.293
53.5788 8.292 0.294
53.5993 9.448 0.314
53.6197 8.552 0.298
53.6402 8.406 0.296
53.6606 8.458 0.297
53.6811 8.365 0.295
53.7016 8.667 0.300
53.7220 9.000 0.306
53.7425 8.552 0.298
53.7630 8.323 0.294
53.7834 8.938 0.305
53.8039 8.656 0.300
53.8243 9.073 0.307
53.8448 8.375 0.295
53.8653 8.917 0.305
53.8857 8.792 0.303
53.9062 8.865 0.304
53.9267 8.708 0.301
53.9471 8.146 0.291
53.9676 8.625 0.300
53.9880 8.333 0.295
54.0085 8.958 0.305
54.0290 9.271 0.311
54.0494 8.927 0.305
54.0699 8.938 0.305
54.0904 8.990 0.306
54.1108 8.323 0.294
54.1313 8.771 0.302
54.1517 9.031 0.307
54.1722 9.135 0.308
54.1927 8.667 0.300
54.2131 9.708 0.318
54.2336 10.052 0.324
54.2541 9.625 0.317
54.2745 9.615 0.316
54.2950 10.333 0.328
54.3155 11.094 0.340
54.3359 11.396 0.345
54.3564 10.906 0.337
54.3768 11.219 0.342
54.3973 10.781 0.335
54.4178 10.583 0.332
54.4382 9.948 0.322
54.4587 10.063 0.324
54.4792 9.938 0.322
54.4996 9.417 0.313
54.5201 9.823 0.320
54.5405 9.604 0.316
54.5610 10.063 0.324
54.5815 9.490 0.314
54.6019 9.177 0.309
54.6224 8.948 0.305
54.6429 9.469 0.314
54.6633 8.688 0.301
54.6838 9.219 0.310
54.7042 8.573 0.299
54.7247 8.448 0.297
54.7452 9.000 0.306
54.7656 8.802 0.303
54.7861 8.594 0.299
54.8066 7.969 0.288
54.8270 8.281 0.294
54.8475 8.385 0.296
54.8679 8.219 0.293
54.8884 8.542 0.298
54.9089 9.292 0.311
54.9293 9.333 0.312
54.9498 8.615 0.300
54.9703 8.917 0.305
54.9907 8.594 0.299
55.0112 9.510 0.315
55.0317 8.833 0.303
55.0521 9.490 0.314
55.0726 9.073 0.307
55.0930 9.427 0.313
55.1135 9.833 0.320
55.1340 9.594 0.316
55.1544 9.573 0.316
55.1749 9.958 0.322
55.1954 9.365 0.312
55.2158 9.781 0.319
55.2363 9.958 0.322
55.2567 9.083 0.308
55.2772 9.583 0.316
55.2977 9.083 0.308
55.3181 9.594 0.316
55.3386 8.813 0.303
55.3591 9.781 0.319
55.3795 9.406 0.313
55.4000 9.667 0.317
55.4204 9.490 0.314
55.4409 9.438 0.314
55.4614 9.250 0.310
55.4818 9.521 0.315
55.5023 8.938 0.305
55.5228 9.104 0.308
55.5432 8.615 0.300
55.5637 9.073 0.307
55.5841 9.365 0.312
55.6046 9.260 0.311
55.6251 8.500 0.298
55.6455 8.615 0.300
55.6660 7.781 0.285
55.6865 8.906 0.305
55.7069 8.917 0.305
55.7274 8.448 0.297
55.7478 8.583 0.299
55.7683 8.594 0.299
55.7888 8.729 0.302
55.8092 8.646 0.300
55.8297 8.531 0.298
55.8502 8.302 0.294
55.8706 8.531 0.298
55.8911 7.906 0.287
55.9116 8.396 0.296
55.9320 8.094 0.290
55.9525 8.656 0.300
55.9729 8.302 0.294
55.9934 7.740 0.284
56.0139 8.521 0.298
56.0343 8.135 0.291
56.0548 8.135 0.291
56.0753 8.573 0.299
56.0957 8.375 0.295
56.1162 8.823 0.303
56.1366 8.479 0.297
56.1571 8.115 0.291
56.1776 8.552 0.298
56.1980 8.354 0.295
56.2185 7.813 0.285
56.2390 8.552 0.298
56.2594 8.490 0.297
56.2799 7.688 0.283
56.3003 7.969 0.288
56.3208 8.531 0.298
56.3413 8.698 0.301
56.3617 8.875 0.304
56.3822 8.896 0.304
56.4027 9.542 0.315
56.4231 8.354 0.295
56.4436 9.167 0.309
56.4640 8.656 0.300
56.4845 9.302 0.311
56.5050 9.625 0.317
56.5254 9.240 0.310
56.5459 9.615 0.316
56.5664 9.729 0.318
56.5868 9.750 0.319
56.6073 9.406 0.313
56.6277 9.552 0.315
56.6482 8.833 0.303
56.6687 8.448 0.297
56.6891 9.354 0.312
56.7096 8.656 0.300
56.7301 8.469 0.297
56.7505 8.656 0.300
56.7710 8.729 0.302
56.7915 8.990 0.306
56.8119 8.771 0.302
56.8324 8.417 0.296
56.8528 8.479 0.297
56.8733 8.344 0.295
56.8938 8.479 0.297
56.9142 8.521 0.298
56.9347 8.240 0.293
56.9552 8.250 0.293
56.9756 8.083 0.290
56.9961 8.958 0.305
57.0165 8.479 0.297
57.0370 8.771 0.302
57.0575 8.281 0.294
57.0779 7.948 0.288
57.0984 8.406 0.296
57.1189 8.000 0.289
57.1393 8.375 0.295
57.1598 7.906 0.287
57.1802 8.073 0.290
57.2007 8.323 0.294
57.2212 7.969 0.288
57.2416 7.781 0.285
57.2621 8.354 0.295
57.2826 8.375 0.295
57.3030 8.010 0.289
57.3235 8.010 0.289
57.3439 8.302 0.294
57.3644 8.344 0.295
57.3849 8.740 0.302
57.4053 7.750 0.284
57.4258 8.906 0.305
57.4463 8.615 0.300
57.4667 8.104 0.291
57.4872 8.458 0.297
57.5076 8.052 0.290
57.5281 8.635 0.300
57.5486 8.615 0.300
57.5690 8.198 0.292
57.5895 8.271 0.294
57.6100 8.688 0.301
57.6304 8.021 0.289
57.6509 7.990 0.288
57.6714 7.906 0.287
57.6918 7.771 0.285
57.7123 8.042 0.289
57.7327 7.500 0.280
57.7532 7.917 0.287
57.7737 8.427 0.296
57.7941 7.635 0.282
57.8146 7.906 0.287
57.8351 7.729 0.284
57.8555 7.688 0.283
57.8760 7.729 0.284
57.8964 8.104 0.291
57.9169 7.302 0.276
57.9374 7.573 0.281
57.9578 8.271 0.294
57.9783 8.417 0.296
57.9988 8.240 0.293
58.0192 8.208 0.292
58.0397 8.188 0.292
58.0601 8.083 0.290
58.0806 7.969 0.288
58.1011 7.740 0.284
58.1215 7.948 0.288
58.1420 7.729 0.284
58.1625 8.323 0.294
58.1829 7.885 0.287
58.2034 7.969 0.288
58.2238 8.677 0.301
58.2443 7.781 0.285
58.2648 7.979 0.288
58.2852 7.333 0.276
58.3057 8.167 0.292
58.3262 7.615 0.282
58.3466 7.948 0.288
58.3671 7.938 0.288
58.3875 7.813 0.285
58.4080 8.177 0.292
58.4285 8.313 0.294
58.4489 7.510 0.280
58.4694 8.177 0.292
58.4899 7.104 0.272
58.5103 8.469 0.297
58.5308 8.240 0.293
58.5513 7.896 0.287
58.5717 7.844 0.286
58.5922 8.260 0.293
58.6126 8.969 0.306
58.6331 8.125 0.291
58.6536 8.365 0.295
58.6740 8.344 0.295
58.6945 8.542 0.298
58.7150 8.302 0.294
58.7354 9.083 0.308
58.7559 7.979 0.288
58.7763 8.260 0.293
58.7968 8.073 0.290
58.8173 8.167 0.292
58.8377 8.396 0.296
58.8582 8.271 0.294
58.8787 8.396 0.296
58.8991 7.656 0.282
58.9196 8.333 0.295
58.9400 8.177 0.292
58.9605 8.000 0.289
58.9810 8.448 0.297
59.0014 7.823 0.285
59.0219 7.969 0.288
59.0424 8.250 0.293
59.0628 7.792 0.285
59.0833 8.313 0.294
59.1037 7.875 0.286
59.1242 7.938 0.288
59.1447 7.729 0.284
59.1651 7.573 0.281
59.1856 8.052 0.290
59.2061 8.031 0.289
59.2265 8.000 0.289
59.2470 8.292 0.294
59.2675 7.927 0.287
59.2879 8.115 0.291
59.3084 9.000 0.306
59.3288 8.406 0.296
59.3493 8.833 0.303
59.3698 9.156 0.309
59.3902 9.385 0.313
59.4107 9.010 0.306
59.4312 9.115 0.308
59.4516 8.875 0.304
59.4721 8.573 0.299
59.4925 8.604 0.299
59.5130 8.188 0.292
59.5335 8.563 0.299
59.5539 8.375 0.295
59.5744 8.656 0.300
59.5949 8.479 0.297
59.6153 8.229 0.293
59.6358 8.208 0.292
59.6562 8.292 0.294
59.6767 8.031 0.289
59.6972 8.313 0.294
59.7176 7.823 0.285
59.7381 7.604 0.281
59.7586 7.656 0.282
59.7790 7.823 0.285
59.7995 7.323 0.276
59.8199 7.740 0.284
59.8404 7.802 0.285
59.8609 7.604 0.281
59.8813 8.229 0.293
59.9018 7.948 0.288
59.9223 8.167 0.292
59.9427 7.500 0.280
59.9632 7.990 0.288
59.9836 8.021 0.289
60.0041 8.198 0.292
60.0246 8.125 0.291
60.0450 7.979 0.288
60.0655 8.167 0.292
60.0860 7.396 0.278
60.1064 7.990 0.288
60.1269 7.771 0.285
60.1474 7.573 0.281
60.1678 8.083 0.290
60.1883 7.948 0.288
60.2087 8.292 0.294
60.2292 7.792 0.285
60.2497 7.667 0.283
60.2701 7.750 0.284
60.2906 7.500 0.280
60.3111 8.177 0.292
60.3315 7.427 0.278
60.3520 8.042 0.289
60.3724 8.365 0.295
60.3929 7.708 0.283
60.4134 8.094 0.290
60.4338 7.646 0.282
60.4543 7.781 0.285
60.4748 7.667 0.283
60.4952 8.063 0.290
60.5157 8.604 0.299
60.5361 7.594 0.281
60.5566 7.521 0.280
60.5771 7.604 0.281
60.5975 7.792 0.285
60.6180 7.969 0.288
60.6385 7.906 0.287
60.6589 8.219 0.293
60.6794 7.979 0.288
60.6998 7.708 0.283
60.7203 7.750 0.284
60.7408 8.281 0.294
60.7612 7.885 0.287
60.7817 8.510 0.298
60.8022 7.594 0.281
60.8226 7.938 0.288
60.8431 8.281 0.294
60.8635 7.594 0.281
60.8840 8.125 0.291
60.9045 7.667 0.283
60.9249 7.979 0.288
60.9454 7.781 0.285
60.9659 8.094 0.290
60.9863 7.667 0.283
61.0068 7.250 0.275
61.0273 7.177 0.273
61.0477 7.240 0.275
61.0682 7.104 0.272
61.0886 7.469 0.279
61.1091 7.260 0.275
61.1296 7.167 0.273
61.1500 7.552 0.280
61.1705 7.406 0.278
61.1910 7.448 0.279
61.2114 7.688 0.283
61.2319 7.115 0.272
61.2523 7.344 0.277
61.2728 7.396 0.278
61.2933 7.240 0.275
61.3137 7.417 0.278
61.3342 7.427 0.278
61.3547 7.365 0.277
61.3751 7.438 0.278
61.3956 7.594 0.281
61.4160 7.854 0.286
61.4365 7.167 0.273
61.4570 7.583 0.281
61.4774 7.563 0.281
61.4979 7.417 0.278
61.5184 8.021 0.289
61.5388 7.250 0.275
61.5593 7.156 0.273
61.5797 7.229 0.274
61.6002 7.490 0.279
61.6207 6.823 0.267
61.6411 7.250 0.275
61.6616 7.750 0.284
61.6821 6.927 0.269
61.7025 7.198 0.274
61.7230 6.927 0.269
61.7434 7.031 0.271
61.7639 7.135 0.273
61.7844 7.229 0.274
61.8048 7.542 0.280
61.8253 6.833 0.267
61.8458 6.635 0.263
61.8662 7.292 0.276
61.8867 7.104 0.272
61.9072 6.875 0.268
61.9276 6.458 0.259
61.9481 7.073 0.271
61.9685 6.917 0.268
61.9890 7.135 0.273
62.0095 7.302 0.276
62.0299 7.396 0.278
62.0504 6.823 0.267
62.0709 7.958 0.288
62.0913 7.135 0.273
62.1118 6.990 0.270
62.1322 8.042 0.289
62.1527 7.042 0.271
62.1732 7.448 0.279
62.1936 7.927 0.287
62.2141 8.688 0.301
62.2346 8.135 0.291
62.2550 7.688 0.283
62.2755 8.365 0.295
62.2959 8.115 0.291
62.3164 8.188 0.292
62.3369 8.656 0.300
62.3573 8.073 0.290
62.3778 8.802 0.303
62.3983 8.625 0.300
62.4187 8.729 0.302
62.4392 8.875 0.304
62.4596 8.156 0.291
62.4801 8.948 0.305
62.5006 8.698 0.301
62.5210 8.969 0.306
62.5415 8.958 0.305
62.5620 8.979 0.306
62.5824 8.750 0.302
62.6029 8.760 0.302
62.6233 8.760 0.302
62.6438 8.708 0.301
62.6643 8.302 0.294
62.6847 8.479 0.297
62.7052 7.865 0.286
62.7257 8.271 0.294
62.7461 7.813 0.285
62.7666 7.719 0.284
62.7871 7.979 0.288
62.8075 7.542 0.280
62.8280 7.510 0.280
62.8484 7.594 0.281
62.8689 7.260 0.275
62.8894 7.135 0.273
62.9098 6.927 0.269
62.9303 6.698 0.264
62.9508 7.344 0.277
62.9712 6.833 0.267
62.9917 6.500 0.260
63.0121 6.594 0.262
63.0326 6.948 0.269
63.0531 7.094 0.272
63.0735 6.604 0.262
63.0940 6.604 0.262
63.1145 7.208 0.274
63.1349 6.542 0.261
63.1554 6.656 0.263
63.1758 6.688 0.264
63.1963 6.448 0.259
63.2168 6.573 0.262
63.2372 6.521 0.261
63.2577 6.438 0.259
63.2782 6.802 0.266
63.2986 6.771 0.266
63.3191 7.260 0.275
63.3395 6.458 0.259
63.3600 6.792 0.266
63.3805 6.490 0.260
63.4009 6.604 0.262
63.4214 7.177 0.273
63.4419 6.760 0.265
63.4623 7.042 0.271
63.4828 6.573 0.262
63.5033 6.979 0.270
63.5237 6.448 0.259
63.5442 6.719 0.265
63.5646 6.927 0.269
63.5851 6.427 0.259
63.6056 6.823 0.267
63.6260 6.375 0.258
63.6465 6.552 0.261
63.6670 6.792 0.266
63.6874 6.729 0.265
63.7079 6.698 0.264
63.7283 6.781 0.266
63.7488 6.844 0.267
63.7693 6.510 0.260
63.7897 6.688 0.264
63.8102 6.438 0.259
63.8307 6.573 0.262
63.8511 6.635 0.263
63.8716 6.802 0.266
63.8920 6.354 0.257
63.9125 6.688 0.264
63.9330 6.854 0.267
63.9534 7.073 0.271
63.9739 6.521 0.261
63.9944 7.177 0.273
64.0148 7.521 0.280
64.0353 7.542 0.280
64.0557 6.740 0.265
64.0762 6.438 0.259
64.0967 7.031 0.271
64.1171 7.198 0.274
64.1376 7.740 0.284
64.1581 7.427 0.278
64.1785 7.073 0.271
64.1990 7.875 0.286
64.2194 7.833 0.286
64.2399 7.104 0.272
64.2604 7.375 0.277
64.2808 7.500 0.280
64.3013 7.917 0.287
64.3218 7.073 0.271
64.3422 7.698 0.283
64.3627 7.427 0.278
64.3832 7.396 0.278
64.4036 7.052 0.271
64.4241 7.240 0.275
64.4445 7.146 0.273
64.4650 7.115 0.272
64.4855 7.375 0.277
64.5059 6.802 0.266
64.5264 7.156 0.273
64.5469 6.906 0.268
64.5673 6.510 0.260
64.5878 6.844 0.267
64.6082 7.031 0.271
64.6287 6.594 0.262
64.6492 7.063 0.271
64.6696 6.698 0.264
64.6901 6.927 0.269
64.7106 7.188 0.274
64.7310 6.625 0.263
64.7515 6.896 0.268
64.7719 6.583 0.262
64.7924 7.042 0.271
64.8129 6.750 0.265
64.8333 5.958 0.249
64.8538 6.990 0.270
64.8743 6.927 0.269
64.8947 6.656 0.263
64.9152 6.708 0.264
64.9356 6.344 0.257
64.9561 6.729 0.265
64.9766 6.635 0.263
64.9970 5.844 0.247
65.0175 6.521 0.261
65.0380 6.271 0.256
65.0584 6.188 0.254
65.0789 5.948 0.249
65.0993 6.531 0.261
65.1198 6.469 0.260
65.1403 6.354 0.257
65.1607 6.031 0.251
65.1812 6.292 0.256
65.2017 6.719 0.265
65.2221 6.979 0.270
65.2426 5.990 0.250
65.2631 6.031 0.251
65.2835 6.375 0.258
65.3040 6.198 0.254
65.3244 6.490 0.260
65.3449 6.854 0.267
65.3654 6.104 0.252
65.3858 5.885 0.248
65.4063 7.021 0.270
65.4268 6.125 0.253
65.4472 6.281 0.256
65.4677 6.552 0.261
65.4881 6.021 0.250
65.5086 6.063 0.251
65.5291 6.635 0.263
65.5495 6.000 0.250
65.5700 6.396 0.258
65.5905 6.417 0.259
65.6109 6.552 0.261
65.6314 6.521 0.261
65.6518 6.552 0.261
65.6723 6.417 0.259
65.6928 6.260 0.255
65.7132 6.313 0.256
65.7337 6.458 0.259
65.7542 6.375 0.258
65.7746 6.583 0.262
65.7951 6.198 0.254
65.8155 6.313 0.256
65.8360 6.010 0.250
65.8565 6.354 0.257
65.8769 6.354 0.257
65.8974 6.729 0.265
65.9179 6.146 0.253
65.9383 5.917 0.248
65.9588 6.635 0.263
65.9792 6.146 0.253
65.9997 7.354 0.277
66.0202 6.604 0.262
66.0406 6.438 0.259
66.0611 6.302 0.256
66.0816 6.260 0.255
66.1020 6.250 0.255
66.1225 6.250 0.255
66.1430 6.427 0.259
66.1634 6.271 0.256
66.1839 6.542 0.261
66.2043 5.802 0.246
66.2248 6.250 0.255
66.2453 6.177 0.254
66.2657 6.333 0.257
66.2862 6.073 0.252
66.3067 5.906 0.248
66.3271 6.115 0.252
66.3476 6.188 0.254
66.3680 6.750 0.265
66.3885 6.365 0.257
66.4090 6.354 0.257
66.4294 6.125 0.253
66.4499 6.677 0.264
66.4704 6.010 0.250
66.4908 6.156 0.253
66.5113 6.667 0.264
66.5317 6.594 0.262
66.5522 6.781 0.266
66.5727 5.990 0.250
66.5931 6.240 0.255
66.6136 6.531 0.261
66.6341 6.188 0.254
66.6545 6.125 0.253
66.6750 6.365 0.257
66.6954 6.719 0.265
66.7159 6.229 0.255
66.7364 5.948 0.249
66.7568 5.948 0.249
66.7773 6.208 0.254
66.7978 6.396 0.258
66.8182 5.729 0.244
66.8387 6.583 0.262
66.8591 6.281 0.256
66.8796 6.635 0.263
66.9001 6.292 0.256
66.9205 6.063 0.251
66.9410 6.396 0.258
66.9615 5.979 0.250
66.9819 5.667 0.243
67.0024 6.000 0.250
67.0229 6.021 0.250
67.0433 6.760 0.265
67.0638 6.031 0.251
67.0842 6.792 0.266
67.1047 6.385 0.258
67.1252 5.813 0.246
67.1456 6.021 0.250
67.1661 6.438 0.259
67.1866 6.250 0.255
67.2070 5.760 0.245
67.2275 6.396 0.258
67.2479 6.333 0.257
67.2684 6.115 0.252
67.2889 6.521 0.261
67.3093 6.094 0.252
67.3298 6.333 0.257
67.3503 6.448 0.259
67.3707 6.344 0.257
67.3912 6.542 0.261
67.4116 6.615 0.262
67.4321 6.698 0.264
67.4526 6.510 0.260
67.4730 6.208 0.254
67.4935 6.656 0.263
67.5140 6.156 0.253
67.5344 6.521 0.261
67.5549 6.208 0.254
67.5753 6.813 0.266
67.5958 6.583 0.262
67.6163 6.188 0.254
67.6367 6.313 0.256
67.6572 6.281 0.256
67.6777 6.917 0.268
67.6981 5.979 0.250
67.7186 5.917 0.248
67.7391 6.302 0.256
67.7595 5.823 0.246
67.7800 6.250 0.255
67.8004 6.198 0.254
67.8209 5.844 0.247
67.8414 5.875 0.247
67.8618 5.781 0.245
67.8823 5.823 0.246
67.9028 5.698 0.244
67.9232 6.438 0.259
67.9437 6.198 0.254
67.9641 5.760 0.245
67.9846 6.042 0.251
68.0051 5.760 0.245
68.0255 5.458 0.238
68.0460 5.708 0.244
68.0665 6.875 0.268
68.0869 5.573 0.241
68.1074 6.438 0.259
68.1278 5.479 0.239
68.1483 5.927 0.248
68.1688 5.927 0.248
68.1892 5.646 0.243
68.2097 5.573 0.241
68.2302 5.740 0.245
68.2506 6.063 0.251
68.2711 5.948 0.249
68.2915 5.823 0.246
68.3120 5.917 0.248
68.3325 5.896 0.248
68.3529 6.479 0.260
68.3734 5.938 0.249
68.3939 5.417 0.238
68.4143 6.010 0.250
68.4348 5.979 0.250
68.4552 6.479 0.260
68.4757 6.104 0.252
68.4962 5.969 0.249
68.5166 5.760 0.245
68.5371 5.750 0.245
68.5576 5.781 0.245
68.5780 5.948 0.249
68.5985 5.885 0.248
68.6190 5.500 0.239
68.6394 5.688 0.243
68.6599 5.865 0.247
68.6803 5.719 0.244
68.7008 5.708 0.244
68.7213 6.094 0.252
68.7417 6.167 0.253
68.7622 5.875 0.247
68.7827 6.156 0.253
68.8031 5.833 0.247
68.8236 6.167 0.253
68.8440 6.021 0.250
68.8645 5.958 0.249
68.8850 5.823 0.246
68.9054 5.740 0.245
68.9259 6.167 0.253
68.9464 6.313 0.256
68.9668 6.115 0.252
68.9873 6.354 0.257
69.0077 5.885 0.248
69.0282 6.000 0.250
69.0487 6.125 0.253
69.0691 5.677 0.243
69.0896 5.594 0.241
69.1101 5.771 0.245
69.1305 6.063 0.251
69.1510 5.615 0.242
69.1714 5.885 0.248
69.1919 6.031 0.251
69.2124 6.188 0.254
69.2328 6.042 0.251
69.2533 5.896 0.248
69.2738 5.719 0.244
69.2942 5.823 0.246
69.3147 5.802 0.246
69.3351 5.802 0.246
69.3556 6.083 0.252
69.3761 5.427 0.238
69.3965 5.813 0.246
69.4170 5.677 0.243
69.4375 5.813 0.246
69.4579 5.896 0.248
69.4784 5.708 0.244
69.4989 5.688 0.243
69.5193 5.573 0.241
69.5398 5.271 0.234
69.5602 5.906 0.248
69.5807 6.010 0.250
69.6012 5.615 0.242
69.6216 5.698 0.244
69.6421 5.844 0.247
69.6626 5.667 0.243
69.6830 6.104 0.252
69.7035 6.115 0.252
69.7239 6.323 0.257
69.7444 6.042 0.251
69.7649 6.125 0.253
69.7853 6.219 0.255
69.8058 6.115 0.252
69.8263 6.198 0.254
69.8467 5.958 0.249
69.8672 5.750 0.245
69.8876 6.167 0.253
69.9081 5.729 0.244
69.9286 6.115 0.252
69.9490 5.917 0.248
69.9695 6.260 0.255
69.9900 5.688 0.243
70.0104 5.948 0.249
70.0309 6.292 0.256
70.0513 5.917 0.248
70.0718 5.688 0.243
70.0923 5.750 0.245
70.1127 5.604 0.242
70.1332 5.344 0.236
70.1537 5.823 0.246
70.1741 5.552 0.240
70.1946 5.708 0.244
70.2150 5.979 0.250
70.2355 5.375 0.237
70.2560 5.771 0.245
70.2764 6.188 0.254
70.2969 5.635 0.242
70.3174 5.875 0.247
70.3378 5.865 0.247
70.3583 6.052 0.251
70.3788 5.677 0.243
70.3992 5.781 0.245
70.4197 5.844 0.247
70.4401 5.396 0.237
70.4606 6.031 0.251
70.4811 5.771 0.245
70.5015 6.135 0.253
70.5220 5.740 0.245
70.5425 5.750 0.245
70.5629 5.573 0.241
70.5834 6.135 0.253
70.6038 5.479 0.239
70.6243 5.667 0.243
70.6448 5.927 0.248
70.6652 5.854 0.247
70.6857 5.927 0.248
70.7062 5.604 0.242
70.7266 5.365 0.236
70.7471 5.604 0.242
70.7675 5.427 0.238
70.7880 5.552 0.240
70.8085 5.969 0.249
70.8289 5.729 0.244
70.8494 5.688 0.243
70.8699 5.865 0.247
70.8903 5.781 0.245
70.9108 5.906 0.248
70.9312 5.354 0.236
70.9517 5.646 0.243
70.9722 5.958 0.249
70.9926 5.479 0.239
71.0131 5.375 0.237
71.0336 5.833 0.247
71.0540 5.865 0.247
71.0745 5.479 0.239
71.0949 5.875 0.247
71.1154 5.875 0.247
71.1359 5.302 0.235
71.1563 5.833 0.247
71.1768 5.927 0.248
71.1973 5.781 0.245
71.2177 5.667 0.243
71.2382 5.521 0.240
71.2587 5.510 0.240
71.2791 5.760 0.245
71.2996 5.719 0.244
71.3200 5.958 0.249
71.3405 5.302 0.235
71.3610 5.563 0.241
71.3814 5.656 0.243
71.4019 5.615 0.242
71.4224 6.073 0.252
71.4428 5.677 0.243
71.4633 5.854 0.247
71.4837 6.219 0.255
71.5042 5.604 0.242
71.5247 6.417 0.259
71.5451 6.083 0.252
71.5656 5.667 0.243
71.5861 5.625 0.242
71.6065 6.042 0.251
71.6270 6.146 0.253
71.6474 6.219 0.255
71.6679 6.167 0.253
71.6884 6.021 0.250
71.7088 6.583 0.262
71.7293 6.281 0.256
71.7498 6.531 0.261
71.7702 6.604 0.262
71.7907 6.438 0.259
71.8111 6.417 0.259
71.8316 5.958 0.249
71.8521 6.740 0.265
71.8725 6.677 0.264
71.8930 5.917 0.248
71.9135 5.854 0.247
71.9339 5.958 0.249
71.9544 5.896 0.248
71.9749 5.885 0.248
71.9953 6.125 0.253
72.0158 6.063 0.251
72.0362 5.979 0.250
72.0567 6.052 0.251
72.0772 5.510 0.240
72.0976 5.479 0.239
72.1181 5.313 0.235
72.1386 5.760 0.245
72.1590 5.583 0.241
72.1795 5.792 0.246
72.1999 5.469 0.239
72.2204 5.635 0.242
72.2409 5.729 0.244
72.2613 5.979 0.250
72.2818 5.490 0.239
72.3023 5.594 0.241
72.3227 5.063 0.230
72.3432 5.281 0.235
72.3636 6.260 0.255
72.3841 5.854 0.247
72.4046 5.073 0.230
72.4250 5.698 0.244
72.4455 5.740 0.245
72.4660 5.823 0.246
72.4864 5.740 0.245
72.5069 5.385 0.237
72.5273 5.375 0.237
72.5478 5.688 0.243
72.5683 5.563 0.241
72.5887 5.396 0.237
72.6092 5.646 0.243
72.6297 5.917 0.248
72.6501 4.750 0.222
72.6706 5.948 0.249
72.6910 5.438 0.238
72.7115 5.177 0.232
72.7320 5.417 0.238
72.7524 5.521 0.240
72.7729 5.906 0.248
72.7934 5.323 0.235
72.8138 5.177 0.232
72.8343 5.927 0.248
72.8548 5.396 0.237
72.8752 5.313 0.235
72.8957 5.313 0.235
72.9161 5.427 0.238
72.9366 5.146 0.232
72.9571 5.521 0.240
72.9775 5.604 0.242
72.9980 5.542 0.240
73.0185 5.625 0.242
73.0389 5.250 0.234
73.0594 5.385 0.237
73.0798 5.240 0.234
73.1003 5.094 0.230
73.1208 6.000 0.250
73.1412 5.677 0.243
73.1617 5.302 0.235
73.1822 5.250 0.234
73.2026 5.271 0.234
73.2231 5.115 0.231
73.2435 5.271 0.234
73.2640 5.521 0.240
73.2845 5.313 0.235
73.3049 5.396 0.237
73.3254 5.521 0.240
73.3459 5.156 0.232
73.3663 5.313 0.235
73.3868 5.906 0.248
73.4072 4.958 0.227
73.4277 5.021 0.229
73.4482 5.313 0.235
73.4686 5.469 0.239
73.4891 5.156 0.232
73.5096 5.344 0.236
73.5300 5.771 0.245
73.5505 5.635 0.242
73.5709 5.240 0.234
73.5914 5.594 0.241
73.6119 5.240 0.234
73.6323 5.781 0.245
73.6528 5.219 0.233
73.6733 5.354 0.236
73.6937 5.052 0.229
73.7142 5.281 0.235
73.7347 5.594 0.241
73.7551 5.698 0.244
73.7756 5.250 0.234
73.7960 5.333 0.236
73.8165 5.271 0.234
73.8370 5.198 0.233
73.8574 5.604 0.242
73.8779 5.427 0.238
73.8984 4.708 0.221
73.9188 5.083 0.230
73.9393 5.490 0.239
73.9597 5.313 0.235
73.9802 5.469 0.239
74.0007 5.240 0.234
74.0211 4.854 0.225
74.0416 5.479 0.239
74.0621 5.167 0.232
74.0825 5.229 0.233
74.1030 5.073 0.230
74.1234 4.708 0.221
74.1439 5.177 0.232
74.1644 4.823 0.224
74.1848 5.448 0.238
74.2053 5.104 0.231
74.2258 5.135 0.231
74.2462 5.396 0.237
74.2667 5.188 0.232
74.2871 5.125 0.231
74.3076 5.052 0.229
74.3281 5.000 0.228
74.3485 5.271 0.234
74.3690 5.323 0.235
74.3895 5.490 0.239
74.4099 5.115 0.231
74.4304 5.177 0.232
74.4508 5.104 0.231
74.4713 5.219 0.233
74.4918 4.875 0.225
74.5122 5.375 0.237
74.5327 5.344 0.236
74.5532 5.354 0.236
74.5736 4.917 0.226
74.5941 5.396 0.237
74.6146 4.938 0.227
74.6350 5.365 0.236
74.6555 5.052 0.229
74.6759 5.156 0.232
74.6964 5.740 0.245
74.7169 5.188 0.232
74.7373 5.104 0.231
74.7578 5.313 0.235
74.7783 5.406 0.237
74.7987 5.219 0.233
74.8192 5.292 0.235
74.8396 5.021 0.229
74.8601 5.052 0.229
74.8806 4.885 0.226
74.9010 5.625 0.242
74.9215 5.135 0.231
74.9420 5.260 0.234
74.9624 5.344 0.236
74.9829 4.792 0.223
75.0033 4.885 0.226
75.0238 5.302 0.235
75.0443 5.521 0.240
75.0647 4.917 0.226
75.0852 4.885 0.226
75.1057 5.510 0.240
75.1261 4.781 0.223
75.1466 5.042 0.229
75.1670 5.354 0.236
75.1875 4.896 0.226
75.2080 5.000 0.228
75.2284 4.938 0.227
75.2489 5.385 0.237
75.2694 5.063 0.230
75.2898 5.021 0.229
75.3103 4.938 0.227
75.3307 4.938 0.227
75.3512 5.021 0.229
75.3717 5.271 0.234
75.3921 5.260 0.234
75.4126 5.010 0.228
75.4331 5.417 0.238
75.4535 5.417 0.238
75.4740 4.990 0.228
75.4945 5.302 0.235
75.5149 4.958 0.227
75.5354 5.615 0.242
75.5558 5.125 0.231
75.5763 5.167 0.232
75.5968 5.344 0.236
75.6172 4.802 0.224
75.6377 5.083 0.230
75.6582 4.708 0.221
75.6786 4.948 0.227
75.6991 4.990 0.228
75.7195 5.156 0.232
75.7400 4.927 0.227
75.7605 5.229 0.233
75.7809 4.917 0.226
75.8014 5.073 0.230
75.8219 4.563 0.218
75.8423 5.281 0.235
75.8628 5.073 0.230
75.8832 4.854 0.225
75.9037 5.063 0.230
75.9242 5.375 0.237
75.9446 5.760 0.245
75.9651 4.979 0.228
75.9856 4.979 0.228
76.0060 5.042 0.229
76.0265 5.229 0.233
76.0469 5.250 0.234
76.0674 5.188 0.232
76.0879 5.208 0.233
76.1083 5.104 0.231
76.1288 4.948 0.227
76.1493 5.656 0.243
76.1697 5.250 0.234
76.1902 5.563 0.241
76.2106 5.594 0.241
76.2311 5.396 0.237
76.2516 5.365 0.236
76.2720 4.615 0.219
76.2925 5.292 0.235
76.3130 5.375 0.237
76.3334 5.635 0.242
76.3539 5.156 0.232
76.3744 5.302 0.235
76.3948 5.073 0.230
76.4153 5.510 0.240
76.4357 5.448 0.238
76.4562 5.531 0.240
76.4767 5.052 0.229
76.4971 5.229 0.233
76.5176 5.208 0.233
76.5381 5.667 0.243
76.5585 5.042 0.229
76.5790 5.552 0.240
76.5994 5.500 0.239
76.6199 4.969 0.228
76.6404 5.385 0.237
76.6608 5.385 0.237
76.6813 5.292 0.235
76.7018 5.302 0.235
76.7222 4.823 0.224
76.7427 5.240 0.234
76.7631 5.177 0.232
76.7836 5.250 0.234
76.8041 4.719 0.222
76.8245 4.948 0.227
76.8450 5.229 0.233
76.8655 5.344 0.236
76.8859 5.479 0.239
76.9064 4.792 0.223
76.9268 5.115 0.231
76.9473 5.271 0.234
76.9678 5.135 0.231
76.9882 5.229 0.233
77.0087 4.698 0.221
77.0292 5.229 0.233
77.0496 5.073 0.230
77.0701 5.177 0.232
77.0906 5.240 0.234
77.1110 5.427 0.238
77.1315 4.938 0.227
77.1519 5.229 0.233
77.1724 5.198 0.233
77.1929 5.104 0.231
77.2133 5.333 0.236
77.2338 5.427 0.238
77.2543 4.896 0.226
77.2747 5.104 0.231
77.2952 5.250 0.234
77.3156 5.448 0.238
77.3361 5.031 0.229
77.3566 5.063 0.230
77.3770 5.240 0.234
77.3975 5.240 0.234
77.4180 5.167 0.232
77.4384 5.292 0.235
77.4589 5.271 0.234
77.4793 5.052 0.229
77.4998 5.573 0.241
77.5203 4.896 0.226
77.5407 5.385 0.237
77.5612 5.229 0.233
77.5817 4.656 0.220
77.6021 5.281 0.235
77.6226 4.917 0.226
77.6430 5.396 0.237
77.6635 5.021 0.229
77.6840 5.344 0.236
77.7044 5.167 0.232
77.7249 5.104 0.231
77.7454 4.854 0.225
77.7658 5.063 0.230
77.7863 4.990 0.228
77.8067 5.198 0.233
77.8272 4.938 0.227
77.8477 5.323 0.235
77.8681 5.229 0.233
77.8886 5.198 0.233
77.9091 5.260 0.234
77.9295 5.219 0.233
77.9500 5.260 0.234
77.9705 5.000 0.228
77.9909 5.073 0.230
78.0114 5.146 0.232
78.0318 5.052 0.229
78.0523 4.990 0.228
78.0728 4.917 0.226
78.0932 5.177 0.232
78.1137 5.385 0.237
78.1342 5.646 0.243
78.1546 5.167 0.232
78.1751 4.917 0.226
78.1955 5.208 0.233
78.2160 4.823 0.224
78.2365 5.000 0.228
78.2569 5.292 0.235
78.2774 5.344 0.236
78.2979 5.021 0.229
78.3183 5.042 0.229
78.3388 5.229 0.233
78.3592 5.146 0.232
78.3797 4.958 0.227
78.4002 5.063 0.230
78.4206 5.042 0.229
78.4411 4.885 0.226
78.4616 4.594 0.219
78.4820 5.021 0.229
78.5025 4.854 0.225
78.5229 4.885 0.226
78.5434 4.896 0.226
78.5639 4.833 0.224
78.5843 5.260 0.234
78.6048 5.260 0.234
78.6253 5.323 0.235
78.6457 5.177 0.232
78.6662 4.896 0.226
78.6866 5.313 0.235
78.7071 5.000 0.228
78.7276 4.969 0.228
78.7480 5.042 0.229
78.7685 4.833 0.224
78.7890 4.969 0.228
78.8094 5.198 0.233
78.8299 5.260 0.234
78.8504 5.208 0.233
78.8708 4.896 0.226
78.8913 5.323 0.235
78.9117 5.375 0.237
78.9322 4.979 0.228
78.9527 5.229 0.233
78.9731 5.135 0.231
78.9936 5.698 0.244
79.0141 5.083 0.230
79.0345 5.219 0.233
79.0550 5.156 0.232
79.0754 5.010 0.228
79.0959 5.552 0.240
79.1164 5.219 0.233
79.1368 4.990 0.228
79.1573 5.208 0.233
79.1778 5.156 0.232
79.1982 5.167 0.232
79.2187 5.302 0.235
79.2391 5.125 0.231
79.2596 5.250 0.234
79.2801 5.615 0.242
79.3005 5.292 0.235
79.3210 5.625 0.242
79.3415 5.010 0.228
79.3619 5.031 0.229
79.3824 5.302 0.235
79.4028 5.531 0.240
79.4233 4.917 0.226
79.4438 5.125 0.231
79.4642 4.958 0.227
79.4847 5.563 0.241
79.5052 5.323 0.235
79.5256 5.365 0.236
79.5461 5.240 0.234
79.5665 5.500 0.239
79.5870 5.229 0.233
79.6075 4.729 0.222
79.6279 4.740 0.222
79.6484 5.104 0.231
79.6689 5.188 0.232
79.6893 4.927 0.227
79.7098 5.125 0.231
79.7303 5.292 0.235
79.7507 5.010 0.228
79.7712 5.167 0.232
79.7916 5.156 0.232
79.8121 5.104 0.231
79.8326 5.146 0.232
79.8530 5.281 0.235
79.8735 5.052 0.229
79.8940 4.927 0.227
79.9144 5.083 0.230
79.9349 5.063 0.230
79.9553 5.188 0.232
79.9758 5.260 0.234
79.9963 5.344 0.236
