'Id: "" Comment: "" Operator: "Lab Manager" Anode: "Cu" Scantype: "Locked Coupled" TimePerStep: "96" X: "0" Y: "0" Z: "0" 
5.0001 28.177 0.542
5.0206 29.021 0.550
5.0410 27.760 0.538
5.0615 28.604 0.546
5.0820 28.219 0.542
5.1024 28.750 0.547
5.1229 28.375 0.544
5.1433 27.229 0.533
5.1638 27.729 0.537
5.1843 27.417 0.534
5.2047 27.365 0.534
5.2252 27.510 0.535
5.2457 27.542 0.536
5.2661 27.531 0.536
5.2866 28.198 0.542
5.3070 27.135 0.532
5.3275 26.719 0.528
5.3480 26.198 0.522
5.3684 26.354 0.524
5.3889 26.115 0.522
5.4094 27.406 0.534
5.4298 25.708 0.517
5.4503 26.031 0.521
5.4707 25.521 0.516
5.4912 25.677 0.517
5.5117 25.354 0.514
5.5321 24.146 0.502
5.5526 25.417 0.515
5.5731 25.354 0.514
5.5935 25.417 0.515
5.6140 24.802 0.508
5.6344 25.042 0.511
5.6549 24.854 0.509
5.6754 24.854 0.509
5.6958 24.740 0.508
5.7163 23.667 0.497
5.7368 24.500 0.505
5.7572 24.000 0.500
5.7777 24.198 0.502
5.7981 22.969 0.489
5.8186 23.448 0.494
5.8391 23.438 0.494
5.8595 22.750 0.487
5.8800 23.729 0.497
5.9005 23.313 0.493
5.9209 23.198 0.492
5.9414 23.813 0.498
5.9619 22.552 0.485
5.9823 22.573 0.485
6.0028 22.771 0.487
6.0232 23.042 0.490
6.0437 22.135 0.480
6.0642 21.917 0.478
6.0846 22.438 0.483
6.1051 22.115 0.480
6.1256 21.406 0.472
6.1460 21.823 0.477
6.1665 22.438 0.483
6.1869 22.344 0.482
6.2074 22.375 0.483
6.2279 21.479 0.473
6.2483 21.250 0.470
6.2688 21.906 0.478
6.2893 21.531 0.474
6.3097 20.844 0.466
6.3302 21.104 0.469
6.3506 20.729 0.465
6.3711 20.375 0.461
6.3916 20.865 0.466
6.4120 20.563 0.463
6.4325 20.583 0.463
6.4530 20.781 0.465
6.4734 19.948 0.456
6.4939 20.177 0.458
6.5143 20.406 0.461
6.5348 20.042 0.457
6.5553 20.479 0.462
6.5757 20.396 0.461
6.5962 20.031 0.457
6.6167 19.646 0.452
6.6371 19.208 0.447
6.6576 20.385 0.461
6.6780 19.344 0.449
6.6985 19.615 0.452
6.7190 18.969 0.445
6.7394 18.917 0.444
6.7599 18.969 0.445
6.7804 18.531 0.439
6.8008 19.438 0.450
6.8213 18.531 0.439
6.8418 18.302 0.437
6.8622 18.854 0.443
6.8827 18.646 0.441
6.9031 17.781 0.430
6.9236 18.448 0.438
6.9441 18.344 0.437
6.9645 17.667 0.429
6.9850 18.240 0.436
7.0055 18.073 0.434
7.0259 17.969 0.433
7.0464 17.938 0.432
7.0668 17.479 0.427
7.0873 17.490 0.427
7.1078 18.438 0.438
7.1282 16.583 0.416
7.1487 17.292 0.424
7.1692 17.115 0.422
7.1896 17.688 0.429
7.2101 17.271 0.424
7.2305 16.604 0.416
7.2510 17.208 0.423
7.2715 17.438 0.426
7.2919 17.125 0.422
7.3124 16.469 0.414
7.3329 17.021 0.421
7.3533 17.135 0.422
7.3738 16.708 0.417
7.3942 16.146 0.410
7.4147 16.885 0.419
7.4352 17.521 0.427
7.4556 16.521 0.415
7.4761 16.260 0.412
7.4966 17.115 0.422
7.5170 16.677 0.417
7.5375 16.552 0.415
7.5580 16.490 0.414
7.5784 16.625 0.416
7.5989 16.365 0.413
7.6193 15.979 0.408
7.6398 16.677 0.417
7.6603 16.396 0.413
7.6807 15.865 0.407
7.7012 15.365 0.400
7.7217 16.177 0.411
7.7421 16.521 0.415
7.7626 16.125 0.410
7.7830 15.813 0.406
7.8035 16.521 0.415
7.8240 15.979 0.408
7.8444 16.052 0.409
7.8649 15.531 0.402
7.8854 15.594 0.403
7.9058 15.865 0.407
7.9263 14.969 0.395
7.9467 15.990 0.408
7.9672 16.875 0.419
7.9877 15.646 0.404
8.0081 15.667 0.404
8.0286 15.385 0.400
8.0491 16.406 0.413
8.0695 15.979 0.408
8.0900 15.781 0.405
8.1104 16.031 0.409
8.1309 15.792 0.406
8.1514 15.375 0.400
8.1718 15.365 0.400
8.1923 15.073 0.396
8.2128 15.375 0.400
8.2332 16.073 0.409
8.2537 15.438 0.401
8.2741 15.156 0.397
8.2946 15.781 0.405
8.3151 15.406 0.401
8.3355 15.208 0.398
8.3560 15.771 0.405
8.3765 16.229 0.411
8.3969 15.573 0.403
8.4174 15.354 0.400
8.4379 15.781 0.405
8.4583 14.969 0.395
8.4788 15.510 0.402
8.4992 15.448 0.401
8.5197 14.885 0.394
8.5402 15.854 0.406
8.5606 16.271 0.412
8.5811 15.406 0.401
8.6016 15.521 0.402
8.6220 15.604 0.403
8.6425 15.000 0.395
8.6629 16.115 0.410
8.6834 16.104 0.410
8.7039 16.583 0.416
8.7243 16.521 0.415
8.7448 16.083 0.409
8.7653 16.510 0.415
8.7857 17.063 0.422
8.8062 16.302 0.412
8.8266 17.260 0.424
8.8471 17.448 0.426
8.8676 16.927 0.420
8.8880 17.042 0.421
8.9085 17.833 0.431
8.9290 18.958 0.444
8.9494 20.052 0.457
8.9699 20.594 0.463
8.9903 20.917 0.467
9.0108 22.135 0.480
9.0313 22.833 0.488
9.0517 24.135 0.501
9.0722 25.677 0.517
9.0927 27.010 0.530
9.1131 28.521 0.545
9.1336 29.021 0.550
9.1540 29.333 0.553
9.1745 27.167 0.532
9.1950 24.000 0.500
9.2154 22.281 0.482
9.2359 20.073 0.457
9.2564 19.323 0.449
9.2768 17.188 0.423
9.2973 16.813 0.418
9.3178 16.750 0.418
9.3382 17.042 0.421
9.3587 16.500 0.415
9.3791 15.958 0.408
9.3996 16.219 0.411
9.4201 16.000 0.408
9.4405 16.313 0.412
9.4610 16.333 0.412
9.4815 16.167 0.410
9.5019 16.698 0.417
9.5224 16.135 0.410
9.5428 15.865 0.407
9.5633 16.198 0.411
9.5838 15.344 0.400
9.6042 15.729 0.405
9.6247 15.688 0.404
9.6452 16.292 0.412
9.6656 15.740 0.405
9.6861 15.479 0.402
9.7065 16.073 0.409
9.7270 15.094 0.397
9.7475 15.990 0.408
9.7679 15.615 0.403
9.7884 15.625 0.403
9.8089 16.042 0.409
9.8293 16.010 0.408
9.8498 15.948 0.408
9.8702 16.323 0.412
9.8907 15.354 0.400
9.9112 16.260 0.412
9.9316 15.646 0.404
9.9521 16.615 0.416
9.9726 15.635 0.404
9.9930 16.260 0.412
10.0135 15.385 0.400
10.0339 16.469 0.414
10.0544 15.865 0.407
10.0749 15.396 0.400
10.0953 15.854 0.406
10.1158 15.521 0.402
10.1363 15.792 0.406
10.1567 15.427 0.401
10.1772 15.802 0.406
10.1977 15.854 0.406
10.2181 15.552 0.402
10.2386 15.292 0.399
10.2590 15.438 0.401
10.2795 15.792 0.406
10.3000 16.073 0.409
10.3204 15.688 0.404
10.3409 15.844 0.406
10.3614 16.115 0.410
10.3818 15.427 0.401
10.4023 15.625 0.403
10.4227 15.510 0.402
10.4432 15.885 0.407
10.4637 15.927 0.407
10.4841 15.302 0.399
10.5046 16.000 0.408
10.5251 15.875 0.407
10.5455 15.865 0.407
10.5660 15.927 0.407
10.5864 15.323 0.400
10.6069 16.146 0.410
10.6274 15.875 0.407
10.6478 16.260 0.412
10.6683 16.469 0.414
10.6888 15.469 0.401
10.7092 15.979 0.408
10.7297 16.177 0.411
10.7501 16.125 0.410
10.7706 16.615 0.416
10.7911 16.510 0.415
10.8115 16.146 0.410
10.8320 16.490 0.414
10.8525 15.844 0.406
10.8729 15.302 0.399
10.8934 15.542 0.402
10.9138 16.208 0.411
10.9343 15.792 0.406
10.9548 15.740 0.405
10.9752 15.396 0.400
10.9957 15.260 0.399
11.0162 16.188 0.411
11.0366 15.531 0.402
11.0571 15.469 0.401
11.0776 15.375 0.400
11.0980 14.865 0.393
11.1185 14.927 0.394
11.1389 15.479 0.402
11.1594 15.240 0.398
11.1799 16.219 0.411
11.2003 15.146 0.397
11.2208 15.208 0.398
11.2413 15.833 0.406
11.2617 15.469 0.401
11.2822 15.531 0.402
11.3026 15.469 0.401
11.3231 16.313 0.412
11.3436 16.479 0.414
11.3640 15.771 0.405
11.3845 15.927 0.407
11.4050 15.802 0.406
11.4254 15.792 0.406
11.4459 14.792 0.393
11.4663 15.292 0.399
11.4868 15.115 0.397
11.5073 15.281 0.399
11.5277 15.823 0.406
11.5482 15.354 0.400
11.5687 14.813 0.393
11.5891 14.917 0.394
11.6096 15.781 0.405
11.6300 15.177 0.398
11.6505 15.646 0.404
11.6710 16.104 0.410
11.6914 15.708 0.405
11.7119 14.396 0.387
11.7324 14.313 0.386
11.7528 15.573 0.403
11.7733 15.427 0.401
11.7938 14.844 0.393
11.8142 15.219 0.398
11.8347 15.260 0.399
11.8551 15.458 0.401
11.8756 14.990 0.395
11.8961 15.354 0.400
11.9165 16.094 0.409
11.9370 16.104 0.410
11.9575 15.729 0.405
11.9779 16.156 0.410
11.9984 16.000 0.408
12.0188 16.708 0.417
12.0393 16.979 0.421
12.0598 16.719 0.417
12.0802 17.354 0.425
12.1007 17.229 0.424
12.1212 19.000 0.445
12.1416 18.000 0.433
12.1621 18.010 0.433
12.1825 17.083 0.422
12.2030 16.771 0.418
12.2235 16.281 0.412
12.2439 15.781 0.405
12.2644 14.865 0.393
12.2849 14.677 0.391
12.3053 15.188 0.398
12.3258 14.365 0.387
12.3462 14.115 0.383
12.3667 15.375 0.400
12.3872 14.917 0.394
12.4076 14.333 0.386
12.4281 13.823 0.379
12.4486 14.135 0.384
12.4690 14.427 0.388
12.4895 14.469 0.388
12.5099 14.583 0.390
12.5304 14.542 0.389
12.5509 14.042 0.382
12.5713 14.479 0.388
12.5918 14.240 0.385
12.6123 14.177 0.384
12.6327 13.917 0.381
12.6532 14.198 0.385
12.6737 13.833 0.380
12.6941 14.740 0.392
12.7146 14.573 0.390
12.7350 15.198 0.398
12.7555 13.854 0.380
12.7760 14.469 0.388
12.7964 14.802 0.393
12.8169 14.323 0.386
12.8374 13.833 0.380
12.8578 13.865 0.380
12.8783 13.802 0.379
12.8987 13.906 0.381
12.9192 14.875 0.394
12.9397 14.260 0.385
12.9601 14.656 0.391
12.9806 14.104 0.383
13.0011 14.177 0.384
13.0215 14.177 0.384
13.0420 14.260 0.385
13.0624 14.156 0.384
13.0829 13.698 0.378
13.1034 13.260 0.372
13.1238 14.406 0.387
13.1443 12.906 0.367
13.1648 13.583 0.376
13.1852 14.083 0.383
13.2057 13.708 0.378
13.2261 14.302 0.386
13.2466 13.948 0.381
13.2671 13.990 0.382
13.2875 13.427 0.374
13.3080 13.948 0.381
13.3285 13.792 0.379
13.3489 14.135 0.384
13.3694 13.865 0.380
13.3898 13.521 0.375
13.4103 14.885 0.394
13.4308 13.229 0.371
13.4512 13.688 0.378
13.4717 14.302 0.386
13.4922 13.781 0.379
13.5126 14.271 0.386
13.5331 12.969 0.368
13.5536 12.656 0.363
13.5740 13.260 0.372
13.5945 13.854 0.380
13.6149 13.396 0.374
13.6354 13.313 0.372
13.6559 13.365 0.373
13.6763 13.833 0.380
13.6968 13.167 0.370
13.7173 13.990 0.382
13.7377 14.333 0.386
13.7582 13.260 0.372
13.7786 14.083 0.383
13.7991 13.406 0.374
13.8196 13.552 0.376
13.8400 13.521 0.375
13.8605 14.063 0.383
13.8810 13.729 0.378
13.9014 13.531 0.375
13.9219 13.406 0.374
13.9423 13.177 0.370
13.9628 12.510 0.361
13.9833 13.500 0.375
14.0037 13.646 0.377
14.0242 12.917 0.367
14.0447 13.406 0.374
14.0651 13.135 0.370
14.0856 14.021 0.382
14.1060 12.969 0.368
14.1265 12.906 0.367
14.1470 13.313 0.372
14.1674 12.229 0.357
14.1879 13.052 0.369
14.2084 13.292 0.372
14.2288 13.792 0.379
14.2493 13.344 0.373
14.2697 13.344 0.373
14.2902 13.740 0.378
14.3107 13.396 0.374
14.3311 13.229 0.371
14.3516 13.302 0.372
14.3721 12.792 0.365
14.3925 12.333 0.358
14.4130 13.031 0.368
14.4335 13.375 0.373
14.4539 12.885 0.366
14.4744 13.552 0.376
14.4948 12.646 0.363
14.5153 13.292 0.372
14.5358 12.865 0.366
14.5562 12.448 0.360
14.5767 12.396 0.359
14.5972 12.323 0.358
14.6176 12.875 0.366
14.6381 12.313 0.358
14.6585 12.500 0.361
14.6790 13.302 0.372
14.6995 13.542 0.376
14.7199 12.344 0.359
14.7404 12.500 0.361
14.7609 12.958 0.367
14.7813 13.333 0.373
14.8018 13.406 0.374
14.8222 13.656 0.377
14.8427 13.948 0.381
14.8632 13.156 0.370
14.8836 13.833 0.380
14.9041 14.635 0.390
14.9246 14.823 0.393
14.9450 14.740 0.392
14.9655 13.771 0.379
14.9859 13.177 0.370
15.0064 13.667 0.377
15.0269 12.365 0.359
15.0473 12.583 0.362
15.0678 12.604 0.362
15.0883 12.719 0.364
15.1087 12.521 0.361
15.1292 12.677 0.363
15.1496 11.990 0.353
15.1701 12.854 0.366
15.1906 12.625 0.363
15.2110 12.469 0.360
15.2315 12.177 0.356
15.2520 12.177 0.356
15.2724 12.646 0.363
15.2929 12.958 0.367
15.3134 12.719 0.364
15.3338 13.052 0.369
15.3543 13.354 0.373
15.3747 13.010 0.368
15.3952 12.375 0.359
15.4157 13.479 0.375
15.4361 12.854 0.366
15.4566 12.167 0.356
15.4771 13.135 0.370
15.4975 12.531 0.361
15.5180 12.760 0.365
15.5384 13.198 0.371
15.5589 13.365 0.373
15.5794 13.531 0.375
15.5998 13.208 0.371
15.6203 13.552 0.376
15.6408 14.115 0.383
15.6612 13.396 0.374
15.6817 14.323 0.386
15.7021 14.406 0.387
15.7226 15.281 0.399
15.7431 16.177 0.411
15.7635 16.292 0.412
15.7840 16.688 0.417
15.8045 17.219 0.424
15.8249 18.885 0.444
15.8454 19.594 0.452
15.8658 18.250 0.436
15.8863 17.854 0.431
15.9068 16.729 0.417
15.9272 15.219 0.398
15.9477 15.521 0.402
15.9682 13.917 0.381
15.9886 13.281 0.372
16.0091 12.865 0.366
16.0296 13.156 0.370
16.0500 12.760 0.365
16.0705 12.260 0.357
16.0909 12.552 0.362
16.1114 13.594 0.376
16.1319 12.875 0.366
16.1523 13.271 0.372
16.1728 12.667 0.363
16.1933 13.125 0.370
16.2137 12.229 0.357
16.2342 12.781 0.365
16.2546 12.094 0.355
16.2751 12.208 0.357
16.2956 12.396 0.359
16.3160 12.406 0.359
16.3365 12.396 0.359
16.3570 12.052 0.354
16.3774 12.042 0.354
16.3979 12.542 0.361
16.4183 12.250 0.357
16.4388 12.729 0.364
16.4593 12.854 0.366
16.4797 12.052 0.354
16.5002 12.354 0.359
16.5207 12.448 0.360
16.5411 12.396 0.359
16.5616 11.396 0.345
16.5820 11.833 0.351
16.6025 12.542 0.361
16.6230 12.229 0.357
16.6434 11.792 0.350
16.6639 12.240 0.357
16.6844 11.885 0.352
16.7048 12.031 0.354
16.7253 12.167 0.356
16.7457 11.635 0.348
16.7662 11.823 0.351
16.7867 12.104 0.355
16.8071 11.542 0.347
16.8276 12.177 0.356
16.8481 12.583 0.362
16.8685 12.135 0.356
16.8890 11.896 0.352
16.9095 12.219 0.357
16.9299 11.615 0.348
16.9504 12.083 0.355
16.9708 11.396 0.345
16.9913 12.802 0.365
17.0118 12.646 0.363
17.0322 12.021 0.354
17.0527 12.479 0.361
17.0732 11.865 0.352
17.0936 11.948 0.353
17.1141 12.635 0.363
17.1345 12.542 0.361
17.1550 12.958 0.367
17.1755 12.198 0.356
17.1959 12.271 0.358
17.2164 12.365 0.359
17.2369 12.031 0.354
17.2573 12.948 0.367
17.2778 12.781 0.365
17.2982 12.281 0.358
17.3187 12.865 0.366
17.3392 13.125 0.370
17.3596 12.396 0.359
17.3801 12.406 0.359
17.4006 13.802 0.379
17.4210 14.063 0.383
17.4415 14.542 0.389
17.4619 13.031 0.368
17.4824 13.656 0.377
17.5029 13.375 0.373
17.5233 13.417 0.374
17.5438 13.615 0.377
17.5643 14.250 0.385
17.5847 12.979 0.368
17.6052 13.938 0.381
17.6256 13.365 0.373
17.6461 14.031 0.382
17.6666 14.500 0.389
17.6870 14.438 0.388
17.7075 14.344 0.387
17.7280 15.021 0.396
17.7484 15.438 0.401
17.7689 16.333 0.412
17.7894 16.604 0.416
17.8098 18.156 0.435
17.8303 19.625 0.452
17.8507 20.833 0.466
17.8712 22.146 0.480
17.8917 24.167 0.502
17.9121 27.208 0.532
17.9326 30.958 0.568
17.9531 37.583 0.626
17.9735 45.323 0.687
17.9940 55.271 0.759
18.0144 67.896 0.841
18.0349 86.365 0.948
18.0554 101.677 1.029
18.0758 103.406 1.038
18.0963 90.240 0.970
18.1168 69.781 0.853
18.1372 49.750 0.720
18.1577 34.469 0.599
18.1781 26.531 0.526
18.1986 21.760 0.476
18.2191 19.510 0.451
18.2395 17.104 0.422
18.2600 17.292 0.424
18.2805 15.885 0.407
18.3009 16.115 0.410
18.3214 15.406 0.401
18.3418 14.615 0.390
18.3623 14.313 0.386
18.3828 13.938 0.381
18.4032 14.469 0.388
18.4237 13.698 0.378
18.4442 13.656 0.377
18.4646 13.354 0.373
18.4851 13.021 0.368
18.5055 13.917 0.381
18.5260 12.094 0.355
18.5465 13.427 0.374
18.5669 12.677 0.363
18.5874 13.771 0.379
18.6079 13.667 0.377
18.6283 13.740 0.378
18.6488 12.625 0.363
18.6693 12.906 0.367
18.6897 13.917 0.381
18.7102 12.979 0.368
18.7306 13.333 0.373
18.7511 13.115 0.370
18.7716 13.250 0.372
18.7920 13.438 0.374
18.8125 14.010 0.382
18.8330 13.781 0.379
18.8534 13.302 0.372
18.8739 14.469 0.388
18.8943 14.865 0.393
18.9148 14.958 0.395
18.9353 15.281 0.399
18.9557 15.365 0.400
18.9762 14.594 0.390
18.9967 15.167 0.397
19.0171 14.969 0.395
19.0376 14.792 0.393
19.0580 14.521 0.389
19.0785 14.323 0.386
19.0990 13.240 0.371
19.1194 13.969 0.381
19.1399 13.083 0.369
19.1604 13.146 0.370
19.1808 12.885 0.366
19.2013 13.021 0.368
19.2217 12.948 0.367
19.2422 11.771 0.350
19.2627 12.531 0.361
19.2831 12.594 0.362
19.3036 12.333 0.358
19.3241 11.906 0.352
19.3445 12.427 0.360
19.3650 12.354 0.359
19.3854 12.542 0.361
19.4059 11.469 0.346
19.4264 12.073 0.355
19.4468 12.073 0.355
19.4673 11.948 0.353
19.4878 11.271 0.343
19.5082 11.833 0.351
19.5287 11.458 0.345
19.5492 12.031 0.354
19.5696 12.438 0.360
19.5901 11.854 0.351
19.6105 12.458 0.360
19.6310 11.469 0.346
19.6515 12.208 0.357
19.6719 11.917 0.352
19.6924 11.823 0.351
19.7129 11.865 0.352
19.7333 11.844 0.351
19.7538 12.375 0.359
19.7742 12.281 0.358
19.7947 11.969 0.353
19.8152 12.396 0.359
19.8356 11.677 0.349
19.8561 11.635 0.348
19.8766 12.385 0.359
19.8970 11.906 0.352
19.9175 12.208 0.357
19.9379 12.385 0.359
19.9584 11.719 0.349
19.9789 11.979 0.353
19.9993 11.646 0.348
20.0198 12.292 0.358
20.0403 11.865 0.352
20.0607 12.396 0.359
20.0812 12.396 0.359
20.1016 12.146 0.356
20.1221 12.958 0.367
20.1426 12.656 0.363
20.1630 13.219 0.371
20.1835 12.490 0.361
20.2040 12.229 0.357
20.2244 12.083 0.355
20.2449 12.042 0.354
20.2654 12.146 0.356
20.2858 11.938 0.353
20.3063 11.656 0.348
20.3267 11.563 0.347
20.3472 11.740 0.350
20.3677 12.250 0.357
20.3881 11.885 0.352
20.4086 11.385 0.344
20.4291 11.760 0.350
20.4495 11.875 0.352
20.4700 11.208 0.342
20.4904 11.573 0.347
20.5109 11.708 0.349
20.5314 11.531 0.347
20.5518 11.792 0.350
20.5723 11.760 0.350
20.5928 11.865 0.352
20.6132 12.021 0.354
20.6337 11.500 0.346
20.6541 11.708 0.349
20.6746 11.510 0.346
20.6951 11.792 0.350
20.7155 12.083 0.355
20.7360 11.260 0.342
20.7565 11.885 0.352
20.7769 11.792 0.350
20.7974 11.688 0.349
20.8178 11.594 0.348
20.8383 11.135 0.341
20.8588 11.427 0.345
20.8792 11.760 0.350
20.8997 12.521 0.361
20.9202 11.573 0.347
20.9406 11.667 0.349
20.9611 11.490 0.346
20.9815 12.375 0.359
21.0020 11.760 0.350
21.0225 12.073 0.355
21.0429 12.135 0.356
21.0634 12.760 0.365
21.0839 12.458 0.360
21.1043 12.885 0.366
21.1248 12.094 0.355
21.1453 11.542 0.347
21.1657 11.417 0.345
21.1862 12.083 0.355
21.2066 11.510 0.346
21.2271 11.417 0.345
21.2476 11.094 0.340
21.2680 11.406 0.345
21.2885 11.167 0.341
21.3090 11.781 0.350
21.3294 12.073 0.355
21.3499 11.677 0.349
21.3703 11.750 0.350
21.3908 12.104 0.355
21.4113 11.229 0.342
21.4317 10.646 0.333
21.4522 11.521 0.346
21.4727 12.198 0.356
21.4931 12.396 0.359
21.5136 11.531 0.347
21.5340 11.896 0.352
21.5545 11.698 0.349
21.5750 11.656 0.348
21.5954 11.521 0.346
21.6159 11.604 0.348
21.6364 11.760 0.350
21.6568 11.927 0.352
21.6773 11.813 0.351
21.6977 11.938 0.353
21.7182 12.677 0.363
21.7387 12.094 0.355
21.7591 12.615 0.362
21.7796 11.448 0.345
21.8001 12.052 0.354
21.8205 12.760 0.365
21.8410 12.458 0.360
21.8614 13.656 0.377
21.8819 12.240 0.357
21.9024 12.458 0.360
21.9228 12.510 0.361
21.9433 11.917 0.352
21.9638 11.438 0.345
21.9842 12.323 0.358
22.0047 11.854 0.351
22.0252 12.083 0.355
22.0456 12.677 0.363
22.0661 11.948 0.353
22.0865 11.865 0.352
22.1070 12.292 0.358
22.1275 11.333 0.344
22.1479 11.813 0.351
22.1684 11.927 0.352
22.1889 11.917 0.352
22.2093 11.781 0.350
22.2298 12.052 0.354
22.2502 11.354 0.344
22.2707 11.667 0.349
22.2912 11.958 0.353
22.3116 11.813 0.351
22.3321 11.708 0.349
22.3526 11.323 0.343
22.3730 11.604 0.348
22.3935 11.427 0.345
22.4139 11.802 0.351
22.4344 11.083 0.340
22.4549 10.875 0.337
22.4753 11.448 0.345
22.4958 11.240 0.342
22.5163 11.625 0.348
22.5367 10.958 0.338
22.5572 11.885 0.352
22.5776 11.760 0.350
22.5981 11.865 0.352
22.6186 11.396 0.345
22.6390 11.906 0.352
22.6595 12.438 0.360
22.6800 11.167 0.341
22.7004 12.052 0.354
22.7209 12.281 0.358
22.7413 11.573 0.347
22.7618 12.865 0.366
22.7823 12.271 0.358
22.8027 12.833 0.366
22.8232 13.438 0.374
22.8437 13.646 0.377
22.8641 14.052 0.383
22.8846 14.500 0.389
22.9051 14.896 0.394
22.9255 15.719 0.405
22.9460 16.646 0.416
22.9664 17.583 0.428
22.9869 17.604 0.428
23.0074 17.719 0.430
23.0278 17.229 0.424
23.0483 17.188 0.423
23.0688 16.458 0.414
23.0892 17.240 0.424
23.1097 15.531 0.402
23.1301 15.479 0.402
23.1506 14.417 0.388
23.1711 14.635 0.390
23.1915 14.490 0.389
23.2120 13.094 0.369
23.2325 12.198 0.356
23.2529 12.948 0.367
23.2734 12.177 0.356
23.2938 12.302 0.358
23.3143 12.771 0.365
23.3348 11.875 0.352
23.3552 11.854 0.351
23.3757 12.010 0.354
23.3962 11.302 0.343
23.4166 11.542 0.347
23.4371 11.969 0.353
23.4575 11.583 0.347
23.4780 12.104 0.355
23.4985 11.979 0.353
23.5189 11.760 0.350
23.5394 12.177 0.356
23.5599 10.948 0.338
23.5803 10.865 0.336
23.6008 11.490 0.346
23.6212 11.333 0.344
23.6417 11.719 0.349
23.6622 11.156 0.341
23.6826 11.292 0.343
23.7031 11.594 0.348
23.7236 11.188 0.341
23.7440 11.396 0.345
23.7645 11.385 0.344
23.7850 11.177 0.341
23.8054 10.896 0.337
23.8259 11.167 0.341
23.8463 10.594 0.332
23.8668 10.677 0.333
23.8873 10.719 0.334
23.9077 11.427 0.345
23.9282 11.323 0.343
23.9487 10.917 0.337
23.9691 11.958 0.353
23.9896 11.104 0.340
24.0100 11.073 0.340
24.0305 11.521 0.346
24.0510 11.323 0.343
24.0714 11.646 0.348
24.0919 11.677 0.349
24.1124 11.490 0.346
24.1328 11.385 0.344
24.1533 11.302 0.343
24.1737 11.646 0.348
24.1942 11.438 0.345
24.2147 11.073 0.340
24.2351 10.667 0.333
24.2556 12.021 0.354
24.2761 11.719 0.349
24.2965 11.948 0.353
24.3170 12.021 0.354
24.3374 12.583 0.362
24.3579 12.813 0.365
24.3784 13.198 0.371
24.3988 12.281 0.358
24.4193 12.104 0.355
24.4398 11.750 0.350
24.4602 11.427 0.345
24.4807 11.323 0.343
24.5012 11.698 0.349
24.5216 10.760 0.335
24.5421 12.208 0.357
24.5625 11.354 0.344
24.5830 10.802 0.335
24.6035 11.917 0.352
24.6239 10.948 0.338
24.6444 11.135 0.341
24.6649 11.177 0.341
24.6853 11.313 0.343
24.7058 11.750 0.350
24.7262 12.042 0.354
24.7467 11.719 0.349
24.7672 11.573 0.347
24.7876 12.260 0.357
24.8081 12.677 0.363
24.8286 12.063 0.354
24.8490 11.646 0.348
24.8695 11.313 0.343
24.8899 11.677 0.349
24.9104 11.854 0.351
24.9309 10.948 0.338
24.9513 11.333 0.344
24.9718 10.906 0.337
24.9923 11.448 0.345
25.0127 11.490 0.346
25.0332 11.458 0.345
25.0536 10.948 0.338
25.0741 11.302 0.343
25.0946 10.896 0.337
25.1150 11.646 0.348
25.1355 11.750 0.350
25.1560 11.865 0.352
25.1764 11.792 0.350
25.1969 12.833 0.366
25.2173 11.844 0.351
25.2378 12.073 0.355
25.2583 12.208 0.357
25.2787 12.313 0.358
25.2992 11.990 0.353
25.3197 11.094 0.340
25.3401 10.823 0.336
25.3606 11.198 0.342
25.3811 11.583 0.347
25.4015 11.354 0.344
25.4220 11.500 0.346
25.4424 11.250 0.342
25.4629 11.292 0.343
25.4834 11.573 0.347
25.5038 11.656 0.348
25.5243 11.635 0.348
25.5448 12.250 0.357
25.5652 11.740 0.350
25.5857 12.531 0.361
25.6061 11.875 0.352
25.6266 13.083 0.369
25.6471 12.458 0.360
25.6675 12.865 0.366
25.6880 12.781 0.365
25.7085 12.948 0.367
25.7289 13.042 0.369
25.7494 12.792 0.365
25.7698 13.115 0.370
25.7903 11.792 0.350
25.8108 12.458 0.360
25.8312 12.396 0.359
25.8517 11.979 0.353
25.8722 11.740 0.350
25.8926 11.604 0.348
25.9131 12.021 0.354
25.9335 11.323 0.343
25.9540 11.417 0.345
25.9745 11.490 0.346
25.9949 11.021 0.339
26.0154 11.479 0.346
26.0359 11.656 0.348
26.0563 11.740 0.350
26.0768 11.229 0.342
26.0972 11.417 0.345
26.1177 11.396 0.345
26.1382 11.688 0.349
26.1586 11.729 0.350
26.1791 10.229 0.326
26.1996 11.417 0.345
26.2200 11.188 0.341
26.2405 11.344 0.344
26.2610 12.188 0.356
26.2814 12.031 0.354
26.3019 11.438 0.345
26.3223 11.906 0.352
26.3428 13.063 0.369
26.3633 12.167 0.356
26.3837 11.917 0.352
26.4042 12.167 0.356
26.4247 12.354 0.359
26.4451 11.875 0.352
26.4656 11.406 0.345
26.4860 11.490 0.346
26.5065 11.688 0.349
26.5270 11.802 0.351
26.5474 12.021 0.354
26.5679 11.802 0.351
26.5884 11.990 0.353
26.6088 11.865 0.352
26.6293 11.698 0.349
26.6497 11.333 0.344
26.6702 12.260 0.357
26.6907 11.656 0.348
26.7111 11.521 0.346
26.7316 11.490 0.346
26.7521 11.615 0.348
26.7725 12.198 0.356
26.7930 12.406 0.359
26.8134 12.198 0.356
26.8339 12.167 0.356
26.8544 11.948 0.353
26.8748 11.896 0.352
26.8953 12.469 0.360
26.9158 11.240 0.342
26.9362 11.469 0.346
26.9567 11.260 0.342
26.9771 11.656 0.348
26.9976 11.719 0.349
27.0181 11.573 0.347
27.0385 11.469 0.346
27.0590 11.781 0.350
27.0795 10.927 0.337
27.0999 11.677 0.349
27.1204 11.885 0.352
27.1409 11.094 0.340
27.1613 11.313 0.343
27.1818 12.031 0.354
27.2022 11.635 0.348
27.2227 11.844 0.351
27.2432 11.656 0.348
27.2636 11.563 0.347
27.2841 11.906 0.352
27.3046 12.375 0.359
27.3250 11.667 0.349
27.3455 12.271 0.358
27.3659 12.427 0.360
27.3864 12.844 0.366
27.4069 12.656 0.363
27.4273 12.427 0.360
27.4478 12.708 0.364
27.4683 13.208 0.371
27.4887 13.354 0.373
27.5092 13.063 0.369
27.5296 13.167 0.370
27.5501 13.063 0.369
27.5706 13.385 0.373
27.5910 13.490 0.375
27.6115 12.865 0.366
27.6320 13.521 0.375
27.6524 13.042 0.369
27.6729 13.500 0.375
27.6933 13.240 0.371
27.7138 12.802 0.365
27.7343 12.948 0.367
27.7547 12.375 0.359
27.7752 12.802 0.365
27.7957 13.063 0.369
27.8161 13.042 0.369
27.8366 12.125 0.355
27.8570 11.750 0.350
27.8775 12.073 0.355
27.8980 12.250 0.357
27.9184 12.208 0.357
27.9389 12.375 0.359
27.9594 12.260 0.357
27.9798 12.125 0.355
28.0003 12.604 0.362
28.0208 12.958 0.367
28.0412 12.875 0.366
28.0617 12.427 0.360
28.0821 12.781 0.365
28.1026 13.042 0.369
28.1231 12.813 0.365
28.1435 12.198 0.356
28.1640 12.573 0.362
28.1845 12.406 0.359
28.2049 12.156 0.356
28.2254 12.469 0.360
28.2458 12.979 0.368
28.2663 12.969 0.368
28.2868 12.708 0.364
28.3072 12.771 0.365
28.3277 13.042 0.369
28.3482 13.427 0.374
28.3686 13.229 0.371
28.3891 13.313 0.372
28.4095 13.625 0.377
28.4300 13.188 0.371
28.4505 13.198 0.371
28.4709 13.271 0.372
28.4914 13.792 0.379
28.5119 13.813 0.379
28.5323 14.604 0.390
28.5528 14.958 0.395
28.5732 15.271 0.399
28.5937 16.000 0.408
28.6142 16.813 0.418
28.6346 17.802 0.431
28.6551 19.510 0.451
28.6756 22.135 0.480
28.6960 23.219 0.492
28.7165 21.813 0.477
28.7370 21.010 0.468
28.7574 19.719 0.453
28.7779 18.354 0.437
28.7983 17.656 0.429
28.8188 15.802 0.406
28.8393 15.208 0.398
28.8597 15.146 0.397
28.8802 14.083 0.383
28.9007 14.188 0.384
28.9211 14.656 0.391
28.9416 15.292 0.399
28.9620 15.104 0.397
28.9825 15.344 0.400
29.0030 14.104 0.383
29.0234 15.281 0.399
29.0439 14.979 0.395
29.0644 15.729 0.405
29.0848 15.115 0.397
29.1053 15.000 0.395
29.1257 15.625 0.403
29.1462 15.760 0.405
29.1667 16.333 0.412
29.1871 17.177 0.423
29.2076 17.375 0.425
29.2281 18.271 0.436
29.2485 19.427 0.450
29.2690 19.563 0.451
29.2894 20.667 0.464
29.3099 22.698 0.486
29.3304 25.188 0.512
29.3508 27.188 0.532
29.3713 30.990 0.568
29.3918 35.042 0.604
29.4122 37.573 0.626
29.4327 40.583 0.650
29.4531 43.094 0.670
29.4736 39.583 0.642
29.4941 35.063 0.604
29.5145 30.802 0.566
29.5350 27.573 0.536
29.5555 24.292 0.503
29.5759 21.104 0.469
29.5964 20.052 0.457
29.6169 17.844 0.431
29.6373 17.740 0.430
29.6578 16.531 0.415
29.6782 16.469 0.414
29.6987 16.094 0.409
29.7192 16.469 0.414
29.7396 16.281 0.412
29.7601 15.719 0.405
29.7806 15.969 0.408
29.8010 15.969 0.408
29.8215 15.458 0.401
29.8419 15.573 0.403
29.8624 15.552 0.402
29.8829 15.990 0.408
29.9033 15.552 0.402
29.9238 16.073 0.409
29.9443 15.750 0.405
29.9647 16.010 0.408
29.9852 16.063 0.409
30.0056 16.844 0.419
30.0261 18.729 0.442
30.0466 18.281 0.436
30.0670 19.531 0.451
30.0875 18.490 0.439
30.1080 18.260 0.436
30.1284 18.875 0.443
30.1489 17.313 0.425
30.1693 16.479 0.414
30.1898 15.719 0.405
30.2103 15.417 0.401
30.2307 15.125 0.397
30.2512 14.104 0.383
30.2717 14.115 0.383
30.2921 15.344 0.400
30.3126 15.010 0.395
30.3330 14.635 0.390
30.3535 14.521 0.389
30.3740 14.031 0.382
30.3944 14.104 0.383
30.4149 13.469 0.375
30.4354 14.802 0.393
30.4558 14.438 0.388
30.4763 14.740 0.392
30.4968 14.604 0.390
30.5172 13.865 0.380
30.5377 13.833 0.380
30.5581 14.125 0.384
30.5786 14.542 0.389
30.5991 14.010 0.382
30.6195 14.333 0.386
30.6400 14.260 0.385
30.6605 14.740 0.392
30.6809 13.979 0.382
30.7014 14.052 0.383
30.7218 14.073 0.383
30.7423 14.417 0.388
30.7628 14.010 0.382
30.7832 13.875 0.380
30.8037 14.135 0.384
30.8242 14.417 0.388
30.8446 15.427 0.401
30.8651 14.802 0.393
30.8855 14.198 0.385
30.9060 14.458 0.388
30.9265 14.719 0.392
30.9469 16.135 0.410
30.9674 15.719 0.405
30.9879 15.844 0.406
31.0083 16.188 0.411
31.0288 16.406 0.413
31.0492 16.375 0.413
31.0697 16.125 0.410
31.0902 15.990 0.408
31.1106 15.958 0.408
31.1311 15.823 0.406
31.1516 15.146 0.397
31.1720 14.542 0.389
31.1925 15.010 0.395
31.2129 14.698 0.391
31.2334 14.010 0.382
31.2539 13.625 0.377
31.2743 13.604 0.376
31.2948 14.073 0.383
31.3153 13.823 0.379
31.3357 14.042 0.382
31.3562 13.750 0.378
31.3767 12.896 0.367
31.3971 14.469 0.388
31.4176 13.458 0.374
31.4380 14.469 0.388
31.4585 14.250 0.385
31.4790 14.344 0.387
31.4994 14.438 0.388
31.5199 13.958 0.381
31.5404 13.729 0.378
31.5608 13.813 0.379
31.5813 14.531 0.389
31.6017 14.802 0.393
31.6222 14.719 0.392
31.6427 14.667 0.391
31.6631 15.010 0.395
31.6836 15.021 0.396
31.7041 15.354 0.400
31.7245 15.031 0.396
31.7450 14.448 0.388
31.7654 15.563 0.403
31.7859 14.750 0.392
31.8064 15.625 0.403
31.8268 14.698 0.391
31.8473 14.979 0.395
31.8678 15.052 0.396
31.8882 14.271 0.386
31.9087 15.740 0.405
31.9291 15.333 0.400
31.9496 15.854 0.406
31.9701 15.500 0.402
31.9905 16.906 0.420
32.0110 17.448 0.426
32.0315 19.406 0.450
32.0519 20.885 0.466
32.0724 21.615 0.475
32.0928 23.208 0.492
32.1133 25.854 0.519
32.1338 30.115 0.560
32.1542 38.458 0.633
32.1747 44.760 0.683
32.1952 44.458 0.681
32.2156 47.698 0.705
32.2361 52.365 0.739
32.2566 46.063 0.693
32.2770 38.302 0.632
32.2975 33.406 0.590
32.3179 34.698 0.601
32.3384 30.250 0.561
32.3589 25.458 0.515
32.3793 24.469 0.505
32.3998 24.042 0.500
32.4203 24.281 0.503
32.4407 24.646 0.507
32.4612 24.885 0.509
32.4816 27.156 0.532
32.5021 30.667 0.565
32.5226 35.313 0.606
32.5430 37.646 0.626
32.5635 37.719 0.627
32.5840 38.219 0.631
32.6044 40.469 0.649
32.6249 39.792 0.644
32.6453 40.271 0.648
32.6658 37.115 0.622
32.6863 30.573 0.564
32.7067 27.000 0.530
32.7272 25.896 0.519
32.7477 22.594 0.485
32.7681 20.281 0.460
32.7886 17.563 0.428
32.8090 16.969 0.420
32.8295 16.917 0.420
32.8500 16.583 0.416
32.8704 16.229 0.411
32.8909 15.698 0.404
32.9114 15.792 0.406
32.9318 16.313 0.412
32.9523 16.260 0.412
32.9728 16.542 0.415
32.9932 16.531 0.415
33.0137 17.052 0.421
33.0341 17.500 0.427
33.0546 17.354 0.425
33.0751 18.198 0.435
33.0955 18.583 0.440
33.1160 18.625 0.440
33.1365 17.479 0.427
33.1569 19.802 0.454
33.1774 20.354 0.460
33.1978 21.104 0.469
33.2183 23.938 0.499
33.2388 24.792 0.508
33.2592 25.823 0.519
33.2797 25.875 0.519
33.3002 25.104 0.511
33.3206 24.927 0.510
33.3411 21.906 0.478
33.3615 21.177 0.470
33.3820 19.469 0.450
33.4025 18.760 0.442
33.4229 17.063 0.422
33.4434 16.979 0.421
33.4639 16.781 0.418
33.4843 16.771 0.418
33.5048 16.052 0.409
33.5252 16.250 0.411
33.5457 16.156 0.410
33.5662 16.208 0.411
33.5866 16.177 0.411
33.6071 16.510 0.415
33.6276 15.885 0.407
33.6480 16.635 0.416
33.6685 15.958 0.408
33.6889 17.083 0.422
33.7094 16.521 0.415
33.7299 16.969 0.420
33.7503 17.583 0.428
33.7708 18.635 0.441
33.7913 19.323 0.449
33.8117 19.323 0.449
33.8322 21.156 0.469
33.8527 21.865 0.477
33.8731 22.615 0.485
33.8936 23.302 0.493
33.9140 24.167 0.502
33.9345 24.552 0.506
33.9550 26.135 0.522
33.9754 26.563 0.526
33.9959 29.948 0.559
34.0164 32.219 0.579
34.0368 38.969 0.637
34.0573 44.740 0.683
34.0777 51.740 0.734
34.0982 56.073 0.764
34.1187 57.510 0.774
34.1391 54.500 0.753
34.1596 50.229 0.723
34.1801 45.781 0.691
34.2005 41.448 0.657
34.2210 36.250 0.614
34.2414 33.156 0.588
34.2619 29.417 0.554
34.2824 26.885 0.529
34.3028 26.073 0.521
34.3233 28.125 0.541
34.3438 30.250 0.561
34.3642 31.760 0.575
34.3847 29.802 0.557
34.4051 27.000 0.530
34.4256 24.333 0.503
34.4461 23.396 0.494
34.4665 21.260 0.471
34.4870 17.635 0.429
34.5075 16.313 0.412
34.5279 14.448 0.388
34.5484 13.906 0.381
34.5688 13.542 0.376
34.5893 12.448 0.360
34.6098 12.510 0.361
34.6302 12.917 0.367
34.6507 12.625 0.363
34.6712 12.573 0.362
34.6916 12.875 0.366
34.7121 12.219 0.357
34.7326 12.146 0.356
34.7530 12.313 0.358
34.7735 12.510 0.361
34.7939 12.104 0.355
34.8144 12.552 0.362
34.8349 12.688 0.364
34.8553 11.906 0.352
34.8758 12.260 0.357
34.8963 12.781 0.365
34.9167 12.635 0.363
34.9372 12.292 0.358
34.9576 12.938 0.367
34.9781 13.177 0.370
34.9986 13.625 0.377
35.0190 12.875 0.366
35.0395 13.688 0.378
35.0600 13.344 0.373
35.0804 12.646 0.363
35.1009 13.500 0.375
35.1213 13.688 0.378
35.1418 13.229 0.371
35.1623 13.167 0.370
35.1827 13.094 0.369
35.2032 12.917 0.367
35.2237 12.969 0.368
35.2441 13.417 0.374
35.2646 12.917 0.367
35.2850 12.656 0.363
35.3055 12.521 0.361
35.3260 11.896 0.352
35.3464 12.573 0.362
35.3669 11.573 0.347
35.3874 11.906 0.352
35.4078 11.604 0.348
35.4283 11.188 0.341
35.4487 11.844 0.351
35.4692 11.854 0.351
35.4897 10.281 0.327
35.5101 9.896 0.321
35.5306 10.677 0.333
35.5511 10.698 0.334
35.5715 10.219 0.326
35.5920 10.990 0.338
35.6125 10.500 0.331
35.6329 10.500 0.331
35.6534 10.615 0.333
35.6738 11.031 0.339
35.6943 11.125 0.340
35.7148 10.563 0.332
35.7352 10.000 0.323
35.7557 10.979 0.338
35.7762 10.438 0.330
35.7966 9.896 0.321
35.8171 10.156 0.325
35.8375 10.740 0.334
35.8580 10.385 0.329
35.8785 10.719 0.334
35.8989 10.448 0.330
35.9194 11.125 0.340
35.9399 10.604 0.332
35.9603 11.250 0.342
35.9808 11.635 0.348
36.0012 12.281 0.358
36.0217 11.740 0.350
36.0422 11.208 0.342
36.0626 10.969 0.338
36.0831 11.302 0.343
36.1036 11.688 0.349
36.1240 11.198 0.342
36.1445 10.688 0.334
36.1649 10.885 0.337
36.1854 10.667 0.333
36.2059 10.531 0.331
36.2263 10.448 0.330
36.2468 10.583 0.332
36.2673 10.719 0.334
36.2877 10.750 0.335
36.3082 10.219 0.326
36.3286 10.188 0.326
36.3491 10.208 0.326
36.3696 10.604 0.332
36.3900 10.792 0.335
36.4105 10.771 0.335
36.4310 10.625 0.333
36.4514 10.448 0.330
36.4719 10.458 0.330
36.4924 10.292 0.327
36.5128 10.688 0.334
36.5333 10.510 0.331
36.5537 11.010 0.339
36.5742 10.708 0.334
36.5947 11.365 0.344
36.6151 11.406 0.345
36.6356 11.292 0.343
36.6561 11.438 0.345
36.6765 11.083 0.340
36.6970 11.010 0.339
36.7174 11.635 0.348
36.7379 11.583 0.347
36.7584 12.042 0.354
36.7788 11.344 0.344
36.7993 11.604 0.348
36.8198 11.573 0.347
36.8402 11.292 0.343
36.8607 11.552 0.347
36.8811 10.510 0.331
36.9016 10.458 0.330
36.9221 10.375 0.329
36.9425 10.156 0.325
36.9630 10.104 0.324
36.9835 10.594 0.332
37.0039 10.208 0.326
37.0244 10.948 0.338
37.0448 10.000 0.323
37.0653 9.854 0.320
37.0858 9.990 0.323
37.1062 10.500 0.331
37.1267 10.115 0.325
37.1472 10.646 0.333
37.1676 10.208 0.326
37.1881 10.271 0.327
37.2085 10.438 0.330
37.2290 11.021 0.339
37.2495 10.531 0.331
37.2699 10.708 0.334
37.2904 10.760 0.335
37.3109 10.917 0.337
37.3313 11.208 0.342
37.3518 11.188 0.341
37.3723 10.750 0.335
37.3927 11.313 0.343
37.4132 11.469 0.346
37.4336 10.698 0.334
37.4541 10.531 0.331
37.4746 10.260 0.327
37.4950 10.656 0.333
37.5155 10.063 0.324
37.5360 10.250 0.327
37.5564 9.729 0.318
37.5769 9.740 0.319
37.5973 9.552 0.315
37.6178 9.177 0.309
37.6383 9.531 0.315
37.6587 9.417 0.313
37.6792 9.396 0.313
37.6997 9.854 0.320
37.7201 9.323 0.312
37.7406 9.646 0.317
37.7610 10.313 0.328
37.7815 10.594 0.332
37.8020 10.094 0.324
37.8224 10.385 0.329
37.8429 9.917 0.321
37.8634 10.021 0.323
37.8838 9.948 0.322
37.9043 10.125 0.325
37.9247 9.885 0.321
37.9452 9.750 0.319
37.9657 9.969 0.322
37.9861 9.813 0.320
38.0066 9.240 0.310
38.0271 9.500 0.315
38.0475 10.094 0.324
38.0680 9.198 0.310
38.0885 9.792 0.319
38.1089 8.927 0.305
38.1294 9.208 0.310
38.1498 9.073 0.307
38.1703 9.302 0.311
38.1908 9.219 0.310
38.2112 9.563 0.316
38.2317 9.573 0.316
38.2522 9.583 0.316
38.2726 9.042 0.307
38.2931 9.313 0.311
38.3135 9.542 0.315
38.3340 9.177 0.309
38.3545 9.146 0.309
38.3749 8.958 0.305
38.3954 9.104 0.308
38.4159 9.698 0.318
38.4363 9.521 0.315
38.4568 9.573 0.316
38.4772 9.052 0.307
38.4977 9.177 0.309
38.5182 9.333 0.312
38.5386 9.625 0.317
38.5591 9.396 0.313
38.5796 9.313 0.311
38.6000 9.927 0.322
38.6205 9.792 0.319
38.6409 10.427 0.330
38.6614 11.156 0.341
38.6819 11.604 0.348
38.7023 12.021 0.354
38.7228 11.563 0.347
38.7433 11.385 0.344
38.7637 12.375 0.359
38.7842 13.323 0.373
38.8046 12.885 0.366
38.8251 12.323 0.358
38.8456 11.531 0.347
38.8660 11.521 0.346
38.8865 11.052 0.339
38.9070 11.260 0.342
38.9274 10.469 0.330
38.9479 10.146 0.325
38.9684 9.917 0.321
38.9888 9.583 0.316
39.0093 9.083 0.308
39.0297 9.802 0.320
39.0502 10.000 0.323
39.0707 9.990 0.323
39.0911 9.542 0.315
39.1116 9.938 0.322
39.1321 9.740 0.319
39.1525 10.167 0.325
39.1730 9.469 0.314
39.1934 9.771 0.319
39.2139 9.677 0.317
39.2344 9.917 0.321
39.2548 10.104 0.324
39.2753 10.427 0.330
39.2958 10.188 0.326
39.3162 10.917 0.337
39.3367 10.604 0.332
39.3571 11.969 0.353
39.3776 11.563 0.347
39.3981 12.604 0.362
39.4185 12.073 0.355
39.4390 12.188 0.356
39.4595 12.271 0.358
39.4799 12.063 0.354
39.5004 11.542 0.347
39.5208 11.646 0.348
39.5413 11.208 0.342
39.5618 11.042 0.339
39.5822 10.156 0.325
39.6027 10.521 0.331
39.6232 9.771 0.319
39.6436 9.927 0.322
39.6641 9.771 0.319
39.6845 10.146 0.325
39.7050 10.198 0.326
39.7255 9.240 0.310
39.7459 9.885 0.321
39.7664 9.073 0.307
39.7869 9.094 0.308
39.8073 8.979 0.306
39.8278 9.188 0.309
39.8483 8.760 0.302
39.8687 8.385 0.296
39.8892 8.760 0.302
39.9096 9.010 0.306
39.9301 8.875 0.304
39.9506 9.219 0.310
39.9710 9.063 0.307
39.9915 8.958 0.305
40.0120 9.167 0.309
40.0324 8.885 0.304
40.0529 8.521 0.298
40.0733 8.448 0.297
40.0938 8.448 0.297
40.1143 8.552 0.298
40.1347 8.583 0.299
40.1552 9.240 0.310
40.1757 9.271 0.311
40.1961 8.885 0.304
40.2166 9.115 0.308
40.2370 8.792 0.303
40.2575 9.177 0.309
40.2780 9.188 0.309
40.2984 9.167 0.309
40.3189 9.469 0.314
40.3394 8.583 0.299
40.3598 8.865 0.304
40.3803 8.833 0.303
40.4007 8.927 0.305
40.4212 8.677 0.301
40.4417 8.917 0.305
40.4621 8.771 0.302
40.4826 8.667 0.300
40.5031 9.094 0.308
40.5235 9.125 0.308
40.5440 9.052 0.307
40.5644 8.729 0.302
40.5849 9.573 0.316
40.6054 9.448 0.314
40.6258 9.375 0.313
40.6463 9.365 0.312
40.6668 10.000 0.323
40.6872 9.583 0.316
40.7077 9.719 0.318
40.7282 10.167 0.325
40.7486 10.010 0.323
40.7691 9.823 0.320
40.7895 11.240 0.342
40.8100 11.219 0.342
40.8305 11.760 0.350
40.8509 11.354 0.344
40.8714 11.156 0.341
40.8919 11.667 0.349
40.9123 12.250 0.357
40.9328 12.990 0.368
40.9532 12.979 0.368
40.9737 13.865 0.380
40.9942 12.948 0.367
41.0146 13.521 0.375
41.0351 13.833 0.380
41.0556 13.635 0.377
41.0760 14.375 0.387
41.0965 13.990 0.382
41.1169 14.125 0.384
41.1374 15.656 0.404
41.1579 14.792 0.393
41.1783 15.281 0.399
41.1988 16.635 0.416
41.2193 17.521 0.427
41.2397 17.865 0.431
41.2602 18.625 0.440
41.2806 19.948 0.456
41.3011 19.979 0.456
41.3216 18.979 0.445
41.3420 17.854 0.431
41.3625 16.083 0.409
41.3830 16.188 0.411
41.4034 15.260 0.399
41.4239 14.344 0.387
41.4443 13.406 0.374
41.4648 11.917 0.352
41.4853 11.792 0.350
41.5057 11.292 0.343
41.5262 10.875 0.337
41.5467 10.490 0.331
41.5671 10.729 0.334
41.5876 11.333 0.344
41.6081 11.500 0.346
41.6285 11.500 0.346
41.6490 11.583 0.347
41.6694 11.052 0.339
41.6899 10.667 0.333
41.7104 11.625 0.348
41.7308 10.667 0.333
41.7513 10.385 0.329
41.7718 10.417 0.329
41.7922 9.750 0.319
41.8127 10.115 0.325
41.8331 10.302 0.328
41.8536 9.646 0.317
41.8741 9.552 0.315
41.8945 9.760 0.319
41.9150 10.479 0.330
41.9355 10.042 0.323
41.9559 9.802 0.320
41.9764 10.313 0.328
41.9968 10.667 0.333
42.0173 10.510 0.331
42.0378 10.135 0.325
42.0582 10.542 0.331
42.0787 10.229 0.326
42.0992 9.771 0.319
42.1196 10.635 0.333
42.1401 10.375 0.329
42.1605 10.365 0.329
42.1810 10.000 0.323
42.2015 9.781 0.319
42.2219 10.198 0.326
42.2424 9.510 0.315
42.2629 10.594 0.332
42.2833 9.854 0.320
42.3038 9.802 0.320
42.3243 9.115 0.308
42.3447 9.844 0.320
42.3652 10.271 0.327
42.3856 9.646 0.317
42.4061 10.229 0.326
42.4266 10.198 0.326
42.4470 10.229 0.326
42.4675 9.594 0.316
42.4880 10.823 0.336
42.5084 11.042 0.339
42.5289 10.865 0.336
42.5493 10.563 0.332
42.5698 11.219 0.342
42.5903 11.094 0.340
42.6107 11.000 0.339
42.6312 10.813 0.336
42.6517 10.344 0.328
42.6721 10.000 0.323
42.6926 10.115 0.325
42.7130 9.656 0.317
42.7335 9.938 0.322
42.7540 9.563 0.316
42.7744 9.625 0.317
42.7949 9.344 0.312
42.8154 9.188 0.309
42.8358 9.115 0.308
42.8563 8.906 0.305
42.8767 9.031 0.307
42.8972 8.948 0.305
42.9177 9.010 0.306
42.9381 9.406 0.313
42.9586 9.052 0.307
42.9791 9.667 0.317
42.9995 9.208 0.310
43.0200 9.781 0.319
43.0404 9.563 0.316
43.0609 9.875 0.321
43.0814 9.833 0.320
43.1018 10.333 0.328
43.1223 10.802 0.335
43.1428 10.781 0.335
43.1632 10.667 0.333
43.1837 10.500 0.331
43.2042 11.073 0.340
43.2246 10.958 0.338
43.2451 10.917 0.337
43.2655 10.677 0.333
43.2860 10.292 0.327
43.3065 10.333 0.328
43.3269 10.563 0.332
43.3474 10.031 0.323
43.3679 9.760 0.319
43.3883 9.885 0.321
43.4088 10.063 0.324
43.4292 9.927 0.322
43.4497 9.854 0.320
43.4702 10.458 0.330
43.4906 10.240 0.327
43.5111 10.354 0.328
43.5316 10.292 0.327
43.5520 10.240 0.327
43.5725 10.823 0.336
43.5929 10.854 0.336
43.6134 10.958 0.338
43.6339 11.365 0.344
43.6543 10.708 0.334
43.6748 10.500 0.331
43.6953 11.052 0.339
43.7157 10.563 0.332
43.7362 10.271 0.327
43.7566 10.552 0.332
43.7771 10.177 0.326
43.7976 10.375 0.329
43.8180 9.771 0.319
43.8385 9.979 0.322
43.8590 10.167 0.325
43.8794 10.094 0.324
43.8999 10.125 0.325
43.9203 9.479 0.314
43.9408 10.792 0.335
43.9613 10.292 0.327
43.9817 10.500 0.331
44.0022 10.250 0.327
44.0227 10.292 0.327
44.0431 10.115 0.325
44.0636 11.156 0.341
44.0841 11.188 0.341
44.1045 11.385 0.344
44.1250 11.104 0.340
44.1454 10.500 0.331
44.1659 10.969 0.338
44.1864 10.552 0.332
44.2068 11.302 0.343
44.2273 10.406 0.329
44.2478 10.823 0.336
44.2682 9.979 0.322
44.2887 10.323 0.328
44.3091 9.396 0.313
44.3296 9.760 0.319
44.3501 9.792 0.319
44.3705 9.594 0.316
44.3910 9.260 0.311
44.4115 9.917 0.321
44.4319 10.021 0.323
44.4524 10.094 0.324
44.4728 9.875 0.321
44.4933 10.000 0.323
44.5138 9.563 0.316
44.5342 10.177 0.326
44.5547 10.250 0.327
44.5752 9.563 0.316
44.5956 9.958 0.322
44.6161 9.958 0.322
44.6365 10.333 0.328
44.6570 10.250 0.327
44.6775 9.792 0.319
44.6979 9.802 0.320
44.7184 9.844 0.320
44.7389 9.531 0.315
44.7593 10.031 0.323
44.7798 9.719 0.318
44.8002 9.885 0.321
44.8207 9.583 0.316
44.8412 9.792 0.319
44.8616 9.708 0.318
44.8821 9.333 0.312
44.9026 9.198 0.310
44.9230 8.927 0.305
44.9435 9.219 0.310
44.9640 8.167 0.292
44.9844 8.948 0.305
45.0049 9.167 0.309
45.0253 9.104 0.308
45.0458 8.385 0.296
45.0663 8.302 0.294
45.0867 8.781 0.302
45.1072 9.021 0.307
45.1277 8.948 0.305
45.1481 8.844 0.304
45.1686 9.198 0.310
45.1890 8.813 0.303
45.2095 8.583 0.299
45.2300 8.583 0.299
45.2504 8.417 0.296
45.2709 8.969 0.306
45.2914 9.146 0.309
45.3118 8.521 0.298
45.3323 9.302 0.311
45.3527 9.167 0.309
45.3732 8.990 0.306
45.3937 9.948 0.322
45.4141 9.083 0.308
45.4346 9.333 0.312
45.4551 8.990 0.306
45.4755 8.625 0.300
45.4960 9.031 0.307
45.5164 9.698 0.318
45.5369 9.313 0.311
45.5574 8.813 0.303
45.5778 9.698 0.318
45.5983 9.115 0.308
45.6188 9.510 0.315
45.6392 9.719 0.318
45.6597 9.938 0.322
45.6801 9.760 0.319
45.7006 10.135 0.325
45.7211 10.583 0.332
45.7415 10.313 0.328
45.7620 10.531 0.331
45.7825 10.740 0.334
45.8029 11.031 0.339
45.8234 11.125 0.340
45.8439 11.406 0.345
45.8643 10.333 0.328
45.8848 10.427 0.330
45.9052 10.531 0.331
45.9257 10.604 0.332
45.9462 9.698 0.318
45.9666 9.438 0.314
45.9871 9.875 0.321
46.0076 9.167 0.309
46.0280 9.563 0.316
46.0485 8.885 0.304
46.0689 9.146 0.309
46.0894 9.021 0.307
46.1099 8.521 0.298
46.1303 9.375 0.313
46.1508 9.281 0.311
46.1713 9.146 0.309
46.1917 8.802 0.303
46.2122 9.083 0.308
46.2326 8.927 0.305
46.2531 8.625 0.300
46.2736 8.531 0.298
46.2940 8.552 0.298
46.3145 8.677 0.301
46.3350 8.271 0.294
46.3554 8.969 0.306
46.3759 8.281 0.294
46.3963 8.448 0.297
46.4168 8.802 0.303
46.4373 9.073 0.307
46.4577 9.125 0.308
46.4782 8.604 0.299
46.4987 9.677 0.317
46.5191 9.323 0.312
46.5396 9.115 0.308
46.5601 9.688 0.318
46.5805 9.542 0.315
46.6010 9.781 0.319
46.6214 9.688 0.318
46.6419 9.854 0.320
46.6624 10.323 0.328
46.6828 10.552 0.332
46.7033 9.854 0.320
46.7238 10.365 0.329
46.7442 10.458 0.330
46.7647 10.083 0.324
46.7851 11.083 0.340
46.8056 11.063 0.339
46.8261 12.448 0.360
46.8465 13.552 0.376
46.8670 13.323 0.373
46.8875 13.010 0.368
46.9079 13.135 0.370
46.9284 13.760 0.379
46.9488 14.813 0.393
46.9693 16.063 0.409
46.9898 16.969 0.420
47.0102 17.188 0.423
47.0307 18.708 0.441
47.0512 19.219 0.447
47.0716 21.583 0.474
47.0921 22.438 0.483
47.1125 22.052 0.479
47.1330 22.938 0.489
47.1535 23.010 0.490
47.1739 23.010 0.490
47.1944 21.281 0.471
47.2149 20.521 0.462
47.2353 19.979 0.456
47.2558 19.208 0.447
47.2762 18.729 0.442
47.2967 17.010 0.421
47.3172 16.208 0.411
47.3376 16.010 0.408
47.3581 14.375 0.387
47.3786 14.156 0.384
47.3990 13.656 0.377
47.4195 13.760 0.379
47.4400 13.292 0.372
47.4604 12.979 0.368
47.4809 12.938 0.367
47.5013 12.740 0.364
47.5218 12.438 0.360
47.5423 13.094 0.369
47.5627 13.219 0.371
47.5832 12.510 0.361
47.6037 12.802 0.365
47.6241 12.396 0.359
47.6446 12.177 0.356
47.6650 12.156 0.356
47.6855 12.427 0.360
47.7060 12.229 0.357
47.7264 12.333 0.358
47.7469 11.771 0.350
47.7674 11.219 0.342
47.7878 11.125 0.340
47.8083 11.396 0.345
47.8287 11.146 0.341
47.8492 11.417 0.345
47.8697 9.958 0.322
47.8901 10.292 0.327
47.9106 10.052 0.324
47.9311 10.219 0.326
47.9515 10.000 0.323
47.9720 9.948 0.322
47.9924 9.385 0.313
48.0129 9.115 0.308
48.0334 9.615 0.316
48.0538 9.177 0.309
48.0743 8.990 0.306
48.0948 9.260 0.311
48.1152 8.969 0.306
48.1357 9.104 0.308
48.1561 8.823 0.303
48.1766 8.458 0.297
48.1971 8.865 0.304
48.2175 8.115 0.291
48.2380 8.813 0.303
48.2585 8.698 0.301
48.2789 8.333 0.295
48.2994 9.021 0.307
48.3199 8.344 0.295
48.3403 8.208 0.292
48.3608 8.448 0.297
48.3812 9.063 0.307
48.4017 8.823 0.303
48.4222 8.802 0.303
48.4426 8.604 0.299
48.4631 9.229 0.310
48.4836 9.073 0.307
48.5040 8.750 0.302
48.5245 9.531 0.315
48.5449 9.156 0.309
48.5654 9.313 0.311
48.5859 9.344 0.312
48.6063 9.344 0.312
48.6268 8.969 0.306
48.6473 9.479 0.314
48.6677 9.281 0.311
48.6882 9.385 0.313
48.7086 8.583 0.299
48.7291 8.792 0.303
48.7496 9.313 0.311
48.7700 8.792 0.303
48.7905 9.146 0.309
48.8110 8.979 0.306
48.8314 8.260 0.293
48.8519 8.771 0.302
48.8723 8.729 0.302
48.8928 9.146 0.309
48.9133 9.406 0.313
48.9337 8.906 0.305
48.9542 8.458 0.297
48.9747 9.167 0.309
48.9951 8.354 0.295
49.0156 8.781 0.302
49.0360 9.156 0.309
49.0565 8.688 0.301
49.0770 8.771 0.302
49.0974 8.990 0.306
49.1179 9.292 0.311
49.1384 9.219 0.310
49.1588 8.625 0.300
49.1793 8.760 0.302
49.1998 8.781 0.302
49.2202 9.375 0.313
49.2407 9.625 0.317
49.2611 9.573 0.316
49.2816 9.229 0.310
49.3021 10.323 0.328
49.3225 9.417 0.313
49.3430 9.271 0.311
49.3635 9.646 0.317
49.3839 9.583 0.316
49.4044 10.281 0.327
49.4248 10.104 0.324
49.4453 9.906 0.321
49.4658 10.125 0.325
49.4862 10.594 0.332
49.5067 9.573 0.316
49.5272 9.688 0.318
49.5476 10.667 0.333
49.5681 10.917 0.337
49.5885 10.573 0.332
49.6090 10.219 0.326
49.6295 10.604 0.332
49.6499 11.146 0.341
49.6704 10.760 0.335
49.6909 10.479 0.330
49.7113 10.656 0.333
49.7318 10.667 0.333
49.7522 10.854 0.336
49.7727 10.906 0.337
49.7932 10.750 0.335
49.8136 10.635 0.333
49.8341 10.677 0.333
49.8546 11.146 0.341
49.8750 10.885 0.337
49.8955 11.031 0.339
49.9159 11.281 0.343
49.9364 11.688 0.349
49.9569 11.010 0.339
49.9773 11.302 0.343
49.9978 11.396 0.345
50.0183 11.198 0.342
50.0387 10.438 0.330
50.0592 11.094 0.340
50.0797 10.625 0.333
50.1001 10.740 0.334
50.1206 11.188 0.341
50.1410 10.688 0.334
50.1615 10.854 0.336
50.1820 10.208 0.326
50.2024 10.240 0.327
50.2229 10.781 0.335
50.2434 10.302 0.328
50.2638 10.417 0.329
50.2843 10.156 0.325
50.3047 10.292 0.327
50.3252 9.427 0.313
50.3457 9.385 0.313
50.3661 9.500 0.315
50.3866 10.323 0.328
50.4071 9.604 0.316
50.4275 9.021 0.307
50.4480 9.531 0.315
50.4684 9.729 0.318
50.4889 9.625 0.317
50.5094 10.479 0.330
50.5298 9.479 0.314
50.5503 10.333 0.328
50.5708 9.844 0.320
50.5912 10.177 0.326
50.6117 10.417 0.329
50.6321 10.656 0.333
50.6526 10.792 0.335
50.6731 10.875 0.337
50.6935 12.115 0.355
50.7140 12.833 0.366
50.7345 13.813 0.379
50.7549 15.906 0.407
50.7754 17.198 0.423
50.7959 19.865 0.455
50.8163 19.938 0.456
50.8368 18.604 0.440
50.8572 16.552 0.415
50.8777 15.010 0.395
50.8982 15.438 0.401
50.9186 15.313 0.399
50.9391 15.469 0.401
50.9596 14.146 0.384
50.9800 13.604 0.376
51.0005 12.646 0.363
51.0209 10.823 0.336
51.0414 10.688 0.334
51.0619 9.323 0.312
51.0823 9.385 0.313
51.1028 9.021 0.307
51.1233 8.573 0.299
51.1437 8.802 0.303
51.1642 8.917 0.305
51.1846 8.417 0.296
51.2051 8.104 0.291
51.2256 7.875 0.286
51.2460 8.417 0.296
51.2665 7.813 0.285
51.2870 8.208 0.292
51.3074 7.990 0.288
51.3279 8.073 0.290
51.3483 8.188 0.292
51.3688 8.333 0.295
51.3893 8.031 0.289
51.4097 7.938 0.288
51.4302 7.781 0.285
51.4507 7.656 0.282
51.4711 8.146 0.291
51.4916 8.385 0.296
51.5120 8.302 0.294
51.5325 8.229 0.293
51.5530 8.073 0.290
51.5734 8.375 0.295
51.5939 9.104 0.308
51.6144 9.875 0.321
51.6348 10.208 0.326
51.6553 12.271 0.358
51.6758 12.771 0.365
51.6962 14.438 0.388
51.7167 13.708 0.378
51.7371 13.521 0.375
51.7576 12.583 0.362
51.7781 11.750 0.350
51.7985 12.521 0.361
51.8190 12.146 0.356
51.8395 12.354 0.359
51.8599 12.750 0.364
51.8804 11.625 0.348
51.9008 11.969 0.353
51.9213 10.781 0.335
51.9418 10.052 0.324
51.9622 9.240 0.310
51.9827 9.156 0.309
52.0032 8.719 0.301
52.0236 8.656 0.300
52.0441 8.104 0.291
52.0645 8.396 0.296
52.0850 8.438 0.296
52.1055 8.010 0.289
52.1259 7.427 0.278
52.1464 8.052 0.290
52.1669 7.979 0.288
52.1873 7.469 0.279
52.2078 7.844 0.286
52.2282 7.844 0.286
52.2487 8.052 0.290
52.2692 7.646 0.282
52.2896 7.677 0.283
52.3101 7.917 0.287
52.3306 7.479 0.279
52.3510 7.625 0.282
52.3715 7.500 0.280
52.3919 7.719 0.284
52.4124 7.490 0.279
52.4329 8.021 0.289
52.4533 7.354 0.277
52.4738 7.625 0.282
52.4943 7.281 0.275
52.5147 7.708 0.283
52.5352 8.167 0.292
52.5557 8.250 0.293
52.5761 7.906 0.287
52.5966 7.323 0.276
52.6170 7.844 0.286
52.6375 7.198 0.274
52.6580 7.271 0.275
52.6784 7.344 0.277
52.6989 7.604 0.281
52.7194 7.906 0.287
52.7398 7.719 0.284
52.7603 7.813 0.285
52.7807 7.427 0.278
52.8012 7.552 0.280
52.8217 7.542 0.280
52.8421 7.635 0.282
52.8626 7.292 0.276
52.8831 7.583 0.281
52.9035 7.990 0.288
52.9240 7.563 0.281
52.9444 8.115 0.291
52.9649 7.906 0.287
52.9854 8.563 0.299
53.0058 8.417 0.296
53.0263 7.771 0.285
53.0468 7.969 0.288
53.0672 8.813 0.303
53.0877 8.083 0.290
53.1081 8.240 0.293
53.1286 7.656 0.282
53.1491 8.365 0.295
53.1695 8.448 0.297
53.1900 7.458 0.279
53.2105 8.240 0.293
53.2309 7.854 0.286
53.2514 8.167 0.292
53.2718 7.667 0.283
53.2923 7.948 0.288
53.3128 8.010 0.289
53.3332 7.823 0.285
53.3537 8.083 0.290
53.3742 7.594 0.281
53.3946 7.969 0.288
53.4151 8.688 0.301
53.4356 7.417 0.278
53.4560 7.604 0.281
53.4765 7.760 0.284
53.4969 7.615 0.282
53.5174 7.948 0.288
53.5379 7.844 0.286
53.5583 7.417 0.278
53.5788 7.177 0.273
53.5993 7.854 0.286
53.6197 7.531 0.280
53.6402 7.563 0.281
53.6606 7.688 0.283
53.6811 7.563 0.281
53.7016 7.781 0.285
53.7220 7.604 0.281
53.7425 7.667 0.283
53.7630 7.646 0.282
53.7834 7.656 0.282
53.8039 7.646 0.282
53.8243 7.885 0.287
53.8448 7.021 0.270
53.8653 7.333 0.276
53.8857 7.844 0.286
53.9062 8.000 0.289
53.9267 7.792 0.285
53.9471 7.938 0.288
53.9676 7.656 0.282
53.9880 8.094 0.290
54.0085 7.750 0.284
54.0290 8.260 0.293
54.0494 7.958 0.288
54.0699 8.396 0.296
54.0904 8.438 0.296
54.1108 8.729 0.302
54.1313 8.771 0.302
54.1517 8.677 0.301
54.1722 8.552 0.298
54.1927 8.781 0.302
54.2131 9.198 0.310
54.2336 9.000 0.306
54.2541 9.531 0.315
54.2745 10.479 0.330
54.2950 10.490 0.331
54.3155 11.750 0.350
54.3359 13.521 0.375
54.3564 13.146 0.370
54.3768 13.177 0.370
54.3973 12.313 0.358
54.4178 11.031 0.339
54.4382 10.479 0.330
54.4587 10.458 0.330
54.4792 10.813 0.336
54.4996 10.938 0.338
54.5201 10.594 0.332
54.5405 10.104 0.324
54.5610 9.000 0.306
54.5815 8.979 0.306
54.6019 8.375 0.295
54.6224 8.302 0.294
54.6429 7.719 0.284
54.6633 7.990 0.288
54.6838 7.625 0.282
54.7042 8.021 0.289
54.7247 7.219 0.274
54.7452 7.927 0.287
54.7656 8.219 0.293
54.7861 7.802 0.285
54.8066 7.656 0.282
54.8270 7.500 0.280
54.8475 7.281 0.275
54.8679 7.198 0.274
54.8884 7.552 0.280
54.9089 7.375 0.277
54.9293 7.531 0.280
54.9498 7.656 0.282
54.9703 8.000 0.289
54.9907 7.979 0.288
55.0112 8.052 0.290
55.0317 7.667 0.283
55.0521 7.219 0.274
55.0726 8.042 0.289
55.0930 8.031 0.289
55.1135 8.083 0.290
55.1340 8.188 0.292
55.1544 7.896 0.287
55.1749 8.490 0.297
55.1954 8.281 0.294
55.2158 8.052 0.290
55.2363 8.219 0.293
55.2567 7.740 0.284
55.2772 8.042 0.289
55.2977 7.740 0.284
55.3181 8.448 0.297
55.3386 7.698 0.283
55.3591 7.708 0.283
55.3795 7.927 0.287
55.4000 7.323 0.276
55.4204 7.917 0.287
55.4409 7.385 0.277
55.4614 7.771 0.285
55.4818 8.146 0.291
55.5023 7.917 0.287
55.5228 7.417 0.278
55.5432 7.865 0.286
55.5637 7.542 0.280
55.5841 7.615 0.282
55.6046 7.719 0.284
55.6251 7.229 0.274
55.6455 7.135 0.273
55.6660 7.458 0.279
55.6865 7.250 0.275
55.7069 7.385 0.277
55.7274 7.313 0.276
55.7478 7.469 0.279
55.7683 7.083 0.272
55.7888 7.271 0.275
55.8092 7.542 0.280
55.8297 7.917 0.287
55.8502 7.771 0.285
55.8706 7.188 0.274
55.8911 7.542 0.280
55.9116 7.646 0.282
55.9320 8.031 0.289
55.9525 7.094 0.272
55.9729 7.740 0.284
55.9934 7.854 0.286
56.0139 7.302 0.276
56.0343 8.021 0.289
56.0548 8.063 0.290
56.0753 7.344 0.277
56.0957 8.104 0.291
56.1162 7.844 0.286
56.1366 7.448 0.279
56.1571 7.698 0.283
56.1776 7.625 0.282
56.1980 7.396 0.278
56.2185 7.823 0.285
56.2390 7.583 0.281
56.2594 7.604 0.281
56.2799 7.833 0.286
56.3003 7.563 0.281
56.3208 7.979 0.288
56.3413 8.563 0.299
56.3617 9.219 0.310
56.3822 9.729 0.318
56.4027 9.927 0.322
56.4231 10.698 0.334
56.4436 9.781 0.319
56.4640 9.427 0.313
56.4845 10.271 0.327
56.5050 9.396 0.313
56.5254 10.135 0.325
56.5459 10.646 0.333
56.5664 10.906 0.337
56.5868 10.615 0.333
56.6073 9.531 0.315
56.6277 9.177 0.309
56.6482 8.635 0.300
56.6687 9.052 0.307
56.6891 8.354 0.295
56.7096 7.865 0.286
56.7301 8.417 0.296
56.7505 7.740 0.284
56.7710 7.958 0.288
56.7915 7.771 0.285
56.8119 7.677 0.283
56.8324 7.500 0.280
56.8528 7.719 0.284
56.8733 7.906 0.287
56.8938 7.708 0.283
56.9142 7.531 0.280
56.9347 7.656 0.282
56.9552 7.823 0.285
56.9756 7.583 0.281
56.9961 7.698 0.283
57.0165 8.219 0.293
57.0370 7.510 0.280
57.0575 7.406 0.278
57.0779 7.281 0.275
57.0984 7.271 0.275
57.1189 7.177 0.273
57.1393 7.698 0.283
57.1598 7.531 0.280
57.1802 7.750 0.284
57.2007 7.469 0.279
57.2212 7.708 0.283
57.2416 7.510 0.280
57.2621 6.677 0.264
57.2826 7.167 0.273
57.3030 6.813 0.266
57.3235 8.083 0.290
57.3439 7.490 0.279
57.3644 7.729 0.284
57.3849 7.479 0.279
57.4053 7.656 0.282
57.4258 7.500 0.280
57.4463 8.167 0.292
57.4667 7.438 0.278
57.4872 7.854 0.286
57.5076 7.823 0.285
57.5281 7.552 0.280
57.5486 7.240 0.275
57.5690 7.417 0.278
57.5895 7.417 0.278
57.6100 7.271 0.275
57.6304 7.969 0.288
57.6509 7.167 0.273
57.6714 7.344 0.277
57.6918 7.563 0.281
57.7123 7.333 0.276
57.7327 7.073 0.271
57.7532 7.375 0.277
57.7737 6.896 0.268
57.7941 7.115 0.272
57.8146 7.313 0.276
57.8351 7.625 0.282
57.8555 7.125 0.272
57.8760 7.375 0.277
57.8964 7.229 0.274
57.9169 7.844 0.286
57.9374 7.229 0.274
57.9578 7.365 0.277
57.9783 7.479 0.279
57.9988 8.208 0.292
58.0192 7.135 0.273
58.0397 6.917 0.268
58.0601 7.219 0.274
58.0806 7.552 0.280
58.1011 7.594 0.281
58.1215 7.552 0.280
58.1420 7.469 0.279
58.1625 7.344 0.277
58.1829 7.208 0.274
58.2034 7.125 0.272
58.2238 7.688 0.283
58.2443 6.792 0.266
58.2648 7.469 0.279
58.2852 7.427 0.278
58.3057 7.115 0.272
58.3262 7.219 0.274
58.3466 7.000 0.270
58.3671 7.656 0.282
58.3875 7.531 0.280
58.4080 7.542 0.280
58.4285 7.510 0.280
58.4489 7.740 0.284
58.4694 7.813 0.285
58.4899 8.042 0.289
58.5103 7.896 0.287
58.5308 7.760 0.284
58.5513 7.719 0.284
58.5717 8.135 0.291
58.5922 7.906 0.287
58.6126 8.302 0.294
58.6331 7.958 0.288
58.6536 7.927 0.287
58.6740 8.229 0.293
58.6945 7.667 0.283
58.7150 7.677 0.283
58.7354 8.042 0.289
58.7559 7.458 0.279
58.7763 8.260 0.293
58.7968 7.948 0.288
58.8173 7.469 0.279
58.8377 7.406 0.278
58.8582 7.521 0.280
58.8787 7.271 0.275
58.8991 7.594 0.281
58.9196 7.552 0.280
58.9400 7.885 0.287
58.9605 7.552 0.280
58.9810 7.396 0.278
59.0014 7.427 0.278
59.0219 7.281 0.275
59.0424 7.365 0.277
59.0628 7.229 0.274
59.0833 7.625 0.282
59.1037 7.760 0.284
59.1242 7.146 0.273
59.1447 8.000 0.289
59.1651 7.844 0.286
59.1856 7.813 0.285
59.2061 7.083 0.272
59.2265 7.833 0.286
59.2470 7.802 0.285
59.2675 7.854 0.286
59.2879 8.375 0.295
59.3084 8.740 0.302
59.3288 9.156 0.309
59.3493 9.000 0.306
59.3698 9.375 0.313
59.3902 9.302 0.311
59.4107 9.771 0.319
59.4312 8.938 0.305
59.4516 9.260 0.311
59.4721 8.344 0.295
59.4925 9.250 0.310
59.5130 9.323 0.312
59.5335 9.313 0.311
59.5539 9.052 0.307
59.5744 8.771 0.302
59.5949 8.271 0.294
59.6153 7.969 0.288
59.6358 8.375 0.295
59.6562 7.760 0.284
59.6767 7.990 0.288
59.6972 7.990 0.288
59.7176 7.656 0.282
59.7381 7.260 0.275
59.7586 7.573 0.281
59.7790 7.115 0.272
59.7995 8.094 0.290
59.8199 8.115 0.291
59.8404 8.656 0.300
59.8609 8.042 0.289
59.8813 8.385 0.296
59.9018 7.865 0.286
59.9223 8.115 0.291
59.9427 8.260 0.293
59.9632 8.156 0.291
59.9836 8.729 0.302
60.0041 8.646 0.300
60.0246 8.365 0.295
60.0450 7.729 0.284
60.0655 8.208 0.292
60.0860 8.010 0.289
60.1064 7.552 0.280
60.1269 7.927 0.287
60.1474 7.542 0.280
60.1678 7.385 0.277
60.1883 7.823 0.285
60.2087 7.667 0.283
60.2292 7.406 0.278
60.2497 7.635 0.282
60.2701 7.135 0.273
60.2906 7.292 0.276
60.3111 7.052 0.271
60.3315 6.750 0.265
60.3520 7.563 0.281
60.3724 7.573 0.281
60.3929 6.958 0.269
60.4134 7.792 0.285
60.4338 7.854 0.286
60.4543 7.500 0.280
60.4748 7.438 0.278
60.4952 7.094 0.272
60.5157 6.958 0.269
60.5361 7.500 0.280
60.5566 7.677 0.283
60.5771 7.417 0.278
60.5975 7.542 0.280
60.6180 7.708 0.283
60.6385 7.375 0.277
60.6589 7.583 0.281
60.6794 7.354 0.277
60.6998 7.979 0.288
60.7203 7.406 0.278
60.7408 7.625 0.282
60.7612 7.240 0.275
60.7817 7.396 0.278
60.8022 7.385 0.277
60.8226 6.938 0.269
60.8431 6.833 0.267
60.8635 7.198 0.274
60.8840 7.313 0.276
60.9045 7.063 0.271
60.9249 7.240 0.275
60.9454 6.823 0.267
60.9659 6.719 0.265
60.9863 6.854 0.267
61.0068 7.438 0.278
61.0273 6.656 0.263
61.0477 6.656 0.263
61.0682 7.010 0.270
61.0886 6.646 0.263
61.1091 6.438 0.259
61.1296 6.948 0.269
61.1500 6.406 0.258
61.1705 6.646 0.263
61.1910 6.479 0.260
61.2114 6.958 0.269
61.2319 6.573 0.262
61.2523 6.740 0.265
61.2728 6.885 0.268
61.2933 7.094 0.272
61.3137 6.635 0.263
61.3342 6.188 0.254
61.3547 6.823 0.267
61.3751 6.333 0.257
61.3956 6.667 0.264
61.4160 6.333 0.257
61.4365 6.646 0.263
61.4570 5.948 0.249
61.4774 6.760 0.265
61.4979 6.906 0.268
61.5184 6.708 0.264
61.5388 6.594 0.262
61.5593 6.677 0.264
61.5797 6.573 0.262
61.6002 6.906 0.268
61.6207 6.635 0.263
61.6411 6.500 0.260
61.6616 6.802 0.266
61.6821 6.375 0.258
61.7025 6.490 0.260
61.7230 6.531 0.261
61.7434 6.354 0.257
61.7639 6.375 0.258
61.7844 6.604 0.262
61.8048 6.344 0.257
61.8253 6.333 0.257
61.8458 6.427 0.259
61.8662 6.521 0.261
61.8867 6.417 0.259
61.9072 6.625 0.263
61.9276 6.625 0.263
61.9481 6.635 0.263
61.9685 6.552 0.261
61.9890 6.198 0.254
62.0095 6.250 0.255
62.0299 6.729 0.265
62.0504 6.885 0.268
62.0709 7.094 0.272
62.0913 7.219 0.274
62.1118 7.354 0.277
62.1322 7.969 0.288
62.1527 8.385 0.296
62.1732 9.229 0.310
62.1936 9.573 0.316
62.2141 9.719 0.318
62.2346 10.177 0.326
62.2550 10.208 0.326
62.2755 10.656 0.333
62.2959 9.771 0.319
62.3164 10.198 0.326
62.3369 9.938 0.322
62.3573 10.188 0.326
62.3778 10.115 0.325
62.3983 10.740 0.334
62.4187 10.260 0.327
62.4392 10.500 0.331
62.4596 9.875 0.321
62.4801 10.219 0.326
62.5006 10.302 0.328
62.5210 10.167 0.325
62.5415 10.885 0.337
62.5620 10.573 0.332
62.5824 10.438 0.330
62.6029 9.979 0.322
62.6233 10.531 0.331
62.6438 9.635 0.317
62.6643 9.229 0.310
62.6847 8.802 0.303
62.7052 8.792 0.303
62.7257 8.448 0.297
62.7461 8.333 0.295
62.7666 8.063 0.290
62.7871 7.646 0.282
62.8075 7.427 0.278
62.8280 7.354 0.277
62.8484 7.042 0.271
62.8689 6.594 0.262
62.8894 6.688 0.264
62.9098 6.188 0.254
62.9303 6.208 0.254
62.9508 6.417 0.259
62.9712 6.167 0.253
62.9917 6.188 0.254
63.0121 5.760 0.245
63.0326 6.542 0.261
63.0531 6.146 0.253
63.0735 5.771 0.245
63.0940 6.510 0.260
63.1145 6.260 0.255
63.1349 6.250 0.255
63.1554 5.771 0.245
63.1758 5.760 0.245
63.1963 5.875 0.247
63.2168 6.198 0.254
63.2372 5.656 0.243
63.2577 5.948 0.249
63.2782 6.167 0.253
63.2986 6.135 0.253
63.3191 5.656 0.243
63.3395 5.635 0.242
63.3600 5.563 0.241
63.3805 5.906 0.248
63.4009 6.177 0.254
63.4214 6.104 0.252
63.4419 6.365 0.257
63.4623 6.573 0.262
63.4828 6.698 0.264
63.5033 6.698 0.264
63.5237 6.792 0.266
63.5442 6.760 0.265
63.5646 7.406 0.278
63.5851 6.750 0.265
63.6056 7.135 0.273
63.6260 7.490 0.279
63.6465 7.188 0.274
63.6670 7.302 0.276
63.6874 7.479 0.279
63.7079 7.594 0.281
63.7283 7.427 0.278
63.7488 7.052 0.271
63.7693 6.688 0.264
63.7897 6.385 0.258
63.8102 6.979 0.270
63.8307 6.781 0.266
63.8511 6.865 0.267
63.8716 7.188 0.274
63.8920 7.104 0.272
63.9125 7.042 0.271
63.9330 6.833 0.267
63.9534 6.802 0.266
63.9739 6.604 0.262
63.9944 6.531 0.261
64.0148 6.844 0.267
64.0353 7.031 0.271
64.0557 7.219 0.274
64.0762 7.260 0.275
64.0967 7.490 0.279
64.1171 7.792 0.285
64.1376 8.198 0.292
64.1581 8.042 0.289
64.1785 8.573 0.299
64.1990 8.427 0.296
64.2194 8.948 0.305
64.2399 8.729 0.302
64.2604 8.583 0.299
64.2808 8.885 0.304
64.3013 7.635 0.282
64.3218 7.302 0.276
64.3422 7.958 0.288
64.3627 7.323 0.276
64.3832 7.646 0.282
64.4036 7.323 0.276
64.4241 7.750 0.284
64.4445 7.427 0.278
64.4650 7.031 0.271
64.4855 6.583 0.262
64.5059 6.813 0.266
64.5264 6.542 0.261
64.5469 6.521 0.261
64.5673 7.010 0.270
64.5878 6.208 0.254
64.6082 6.375 0.258
64.6287 6.719 0.265
64.6492 6.094 0.252
64.6696 6.344 0.257
64.6901 5.823 0.246
64.7106 5.865 0.247
64.7310 6.135 0.253
64.7515 6.385 0.258
64.7719 6.021 0.250
64.7924 5.938 0.249
64.8129 5.729 0.244
64.8333 5.458 0.238
64.8538 5.927 0.248
64.8743 6.292 0.256
64.8947 6.094 0.252
64.9152 5.823 0.246
64.9356 5.406 0.237
64.9561 5.719 0.244
64.9766 6.167 0.253
64.9970 5.896 0.248
65.0175 5.813 0.246
65.0380 5.521 0.240
65.0584 5.646 0.243
65.0789 5.625 0.242
65.0993 5.667 0.243
65.1198 5.906 0.248
65.1403 5.615 0.242
65.1607 5.781 0.245
65.1812 5.354 0.236
65.2017 5.292 0.235
65.2221 5.313 0.235
65.2426 5.844 0.247
65.2631 5.927 0.248
65.2835 6.354 0.257
65.3040 5.615 0.242
65.3244 6.073 0.252
65.3449 6.198 0.254
65.3654 5.938 0.249
65.3858 6.000 0.250
65.4063 5.729 0.244
65.4268 5.885 0.248
65.4472 5.625 0.242
65.4677 5.583 0.241
65.4881 5.719 0.244
65.5086 5.802 0.246
65.5291 5.573 0.241
65.5495 5.854 0.247
65.5700 5.406 0.237
65.5905 5.979 0.250
65.6109 5.792 0.246
65.6314 5.688 0.243
65.6518 5.802 0.246
65.6723 5.625 0.242
65.6928 5.406 0.237
65.7132 5.500 0.239
65.7337 5.885 0.248
65.7542 5.833 0.247
65.7746 5.948 0.249
65.7951 6.083 0.252
65.8155 5.708 0.244
65.8360 5.552 0.240
65.8565 5.521 0.240
65.8769 5.510 0.240
65.8974 5.792 0.246
65.9179 5.771 0.245
65.9383 5.542 0.240
65.9588 5.333 0.236
65.9792 6.125 0.253
65.9997 5.604 0.242
66.0202 6.052 0.251
66.0406 6.052 0.251
66.0611 5.948 0.249
66.0816 5.688 0.243
66.1020 5.604 0.242
66.1225 5.823 0.246
66.1430 5.375 0.237
66.1634 5.990 0.250
66.1839 5.375 0.237
66.2043 5.354 0.236
66.2248 5.010 0.228
66.2453 5.854 0.247
66.2657 5.635 0.242
66.2862 5.313 0.235
66.3067 5.542 0.240
66.3271 5.844 0.247
66.3476 5.615 0.242
66.3680 5.625 0.242
66.3885 6.031 0.251
66.4090 5.927 0.248
66.4294 5.625 0.242
66.4499 5.844 0.247
66.4704 5.594 0.241
66.4908 5.813 0.246
66.5113 5.385 0.237
66.5317 5.823 0.246
66.5522 5.740 0.245
66.5727 5.865 0.247
66.5931 5.979 0.250
66.6136 5.927 0.248
66.6341 5.719 0.244
66.6545 5.583 0.241
66.6750 5.854 0.247
66.6954 5.833 0.247
66.7159 5.219 0.233
66.7364 5.594 0.241
66.7568 5.458 0.238
66.7773 5.646 0.243
66.7978 5.302 0.235
66.8182 5.531 0.240
66.8387 5.323 0.235
66.8591 5.115 0.231
66.8796 5.542 0.240
66.9001 5.615 0.242
66.9205 5.208 0.233
66.9410 5.542 0.240
66.9615 5.083 0.230
66.9819 5.313 0.235
67.0024 5.292 0.235
67.0229 5.177 0.232
67.0433 5.313 0.235
67.0638 5.729 0.244
67.0842 6.188 0.254
67.1047 5.615 0.242
67.1252 6.292 0.256
67.1456 5.823 0.246
67.1661 5.781 0.245
67.1866 5.719 0.244
67.2070 6.156 0.253
67.2275 6.354 0.257
67.2479 6.365 0.257
67.2684 6.063 0.251
67.2889 6.479 0.260
67.3093 6.281 0.256
67.3298 6.219 0.255
67.3503 6.281 0.256
67.3707 6.615 0.262
67.3912 5.969 0.249
67.4116 6.271 0.256
67.4321 6.240 0.255
67.4526 5.792 0.246
67.4730 5.760 0.245
67.4935 5.656 0.243
67.5140 5.531 0.240
67.5344 5.635 0.242
67.5549 5.688 0.243
67.5753 5.490 0.239
67.5958 6.188 0.254
67.6163 5.656 0.243
67.6367 5.646 0.243
67.6572 5.490 0.239
67.6777 5.844 0.247
67.6981 5.563 0.241
67.7186 5.594 0.241
67.7391 5.760 0.245
67.7595 5.531 0.240
67.7800 5.656 0.243
67.8004 5.344 0.236
67.8209 5.563 0.241
67.8414 5.333 0.236
67.8618 5.094 0.230
67.8823 5.646 0.243
67.9028 5.448 0.238
67.9232 5.063 0.230
67.9437 5.146 0.232
67.9641 5.094 0.230
67.9846 5.250 0.234
68.0051 5.323 0.235
68.0255 5.802 0.246
68.0460 5.281 0.235
68.0665 5.427 0.238
68.0869 5.281 0.235
68.1074 5.448 0.238
68.1278 5.635 0.242
68.1483 5.354 0.236
68.1688 5.656 0.243
68.1892 5.885 0.248
68.2097 5.521 0.240
68.2302 5.792 0.246
68.2506 5.500 0.239
68.2711 5.771 0.245
68.2915 6.125 0.253
68.3120 5.802 0.246
68.3325 6.000 0.250
68.3529 5.823 0.246
68.3734 5.833 0.247
68.3939 5.823 0.246
68.4143 6.052 0.251
68.4348 5.583 0.241
68.4552 5.458 0.238
68.4757 6.229 0.255
68.4962 5.979 0.250
68.5166 5.281 0.235
68.5371 5.823 0.246
68.5576 5.208 0.233
68.5780 5.479 0.239
68.5985 5.760 0.245
68.6190 5.531 0.240
68.6394 5.385 0.237
68.6599 5.740 0.245
68.6803 5.698 0.244
68.7008 5.302 0.235
68.7213 5.417 0.238
68.7417 5.219 0.233
68.7622 5.375 0.237
68.7827 5.229 0.233
68.8031 5.052 0.229
68.8236 5.615 0.242
68.8440 5.271 0.234
68.8645 5.552 0.240
68.8850 5.531 0.240
68.9054 5.198 0.233
68.9259 5.198 0.233
68.9464 5.042 0.229
68.9668 5.385 0.237
68.9873 5.677 0.243
69.0077 5.333 0.236
69.0282 5.844 0.247
69.0487 4.896 0.226
69.0691 5.625 0.242
69.0896 5.354 0.236
69.1101 5.625 0.242
69.1305 5.469 0.239
69.1510 5.094 0.230
69.1714 5.552 0.240
69.1919 5.604 0.242
69.2124 5.292 0.235
69.2328 5.375 0.237
69.2533 5.354 0.236
69.2738 5.521 0.240
69.2942 5.385 0.237
69.3147 5.260 0.234
69.3351 5.573 0.241
69.3556 5.427 0.238
69.3761 5.375 0.237
69.3965 5.292 0.235
69.4170 5.219 0.233
69.4375 5.635 0.242
69.4579 5.396 0.237
69.4784 5.229 0.233
69.4989 5.490 0.239
69.5193 5.031 0.229
69.5398 5.188 0.232
69.5602 5.313 0.235
69.5807 5.302 0.235
69.6012 5.333 0.236
69.6216 5.313 0.235
69.6421 5.344 0.236
69.6626 5.552 0.240
69.6830 4.896 0.226
69.7035 5.646 0.243
69.7239 5.917 0.248
69.7444 5.677 0.243
69.7649 5.625 0.242
69.7853 5.229 0.233
69.8058 5.365 0.236
69.8263 5.750 0.245
69.8467 5.354 0.236
69.8672 5.198 0.233
69.8876 5.823 0.246
69.9081 5.458 0.238
69.9286 5.823 0.246
69.9490 5.708 0.244
69.9695 5.573 0.241
69.9900 5.552 0.240
70.0104 5.635 0.242
70.0309 5.135 0.231
70.0513 4.948 0.227
70.0718 5.323 0.235
70.0923 5.396 0.237
70.1127 5.219 0.233
70.1332 5.573 0.241
70.1537 5.135 0.231
70.1741 5.292 0.235
70.1946 4.906 0.226
70.2150 4.990 0.228
70.2355 5.010 0.228
70.2560 5.333 0.236
70.2764 5.042 0.229
70.2969 5.406 0.237
70.3174 5.354 0.236
70.3378 5.729 0.244
70.3583 5.010 0.228
70.3788 5.281 0.235
70.3992 5.365 0.236
70.4197 5.135 0.231
70.4401 5.406 0.237
70.4606 5.573 0.241
70.4811 4.969 0.228
70.5015 4.885 0.226
70.5220 5.427 0.238
70.5425 5.156 0.232
70.5629 5.167 0.232
70.5834 4.948 0.227
70.6038 5.333 0.236
70.6243 5.229 0.233
70.6448 5.521 0.240
70.6652 5.156 0.232
70.6857 4.875 0.225
70.7062 5.240 0.234
70.7266 4.938 0.227
70.7471 5.198 0.233
70.7675 5.302 0.235
70.7880 5.135 0.231
70.8085 5.458 0.238
70.8289 5.240 0.234
70.8494 4.938 0.227
70.8699 5.667 0.243
70.8903 5.542 0.240
70.9108 5.219 0.233
70.9312 5.229 0.233
70.9517 5.104 0.231
70.9722 5.458 0.238
70.9926 5.177 0.232
71.0131 5.042 0.229
71.0336 5.125 0.231
71.0540 5.625 0.242
71.0745 5.771 0.245
71.0949 5.104 0.231
71.1154 5.354 0.236
71.1359 5.313 0.235
71.1563 5.375 0.237
71.1768 5.708 0.244
71.1973 5.427 0.238
71.2177 5.375 0.237
71.2382 5.354 0.236
71.2587 5.281 0.235
71.2791 5.625 0.242
71.2996 5.813 0.246
71.3200 5.469 0.239
71.3405 5.094 0.230
71.3610 5.698 0.244
71.3814 5.021 0.229
71.4019 5.521 0.240
71.4224 5.823 0.246
71.4428 5.552 0.240
71.4633 5.427 0.238
71.4837 5.500 0.239
71.5042 5.958 0.249
71.5247 5.313 0.235
71.5451 5.448 0.238
71.5656 5.823 0.246
71.5861 5.406 0.237
71.6065 5.677 0.243
71.6270 6.313 0.256
71.6474 5.865 0.247
71.6679 5.802 0.246
71.6884 6.354 0.257
71.7088 6.635 0.263
71.7293 6.365 0.257
71.7498 6.406 0.258
71.7702 6.406 0.258
71.7907 6.438 0.259
71.8111 6.969 0.269
71.8316 6.177 0.254
71.8521 6.490 0.260
71.8725 5.792 0.246
71.8930 6.260 0.255
71.9135 5.896 0.248
71.9339 6.479 0.260
71.9544 5.760 0.245
71.9749 6.302 0.256
71.9953 6.167 0.253
72.0158 6.208 0.254
72.0362 5.688 0.243
72.0567 5.823 0.246
72.0772 5.250 0.234
72.0976 5.083 0.230
72.1181 5.031 0.229
72.1386 5.260 0.234
72.1590 5.740 0.245
72.1795 5.698 0.244
72.1999 5.052 0.229
72.2204 5.375 0.237
72.2409 5.406 0.237
72.2613 5.052 0.229
72.2818 5.260 0.234
72.3023 4.958 0.227
72.3227 5.219 0.233
72.3432 5.125 0.231
72.3636 5.010 0.228
72.3841 5.438 0.238
72.4046 5.083 0.230
72.4250 5.125 0.231
72.4455 5.271 0.234
72.4660 4.885 0.226
72.4864 5.000 0.228
72.5069 5.354 0.236
72.5273 4.677 0.221
72.5478 4.698 0.221
72.5683 5.104 0.231
72.5887 5.073 0.230
72.6092 4.740 0.222
72.6297 5.240 0.234
72.6501 5.438 0.238
72.6706 5.281 0.235
72.6910 4.969 0.228
72.7115 5.083 0.230
72.7320 5.073 0.230
72.7524 4.802 0.224
72.7729 4.823 0.224
72.7934 4.875 0.225
72.8138 4.875 0.225
72.8343 4.875 0.225
72.8548 4.927 0.227
72.8752 5.250 0.234
72.8957 4.646 0.220
72.9161 4.750 0.222
72.9366 5.333 0.236
72.9571 5.125 0.231
72.9775 4.833 0.224
72.9980 4.906 0.226
73.0185 5.417 0.238
73.0389 4.594 0.219
73.0594 4.917 0.226
73.0798 5.042 0.229
73.1003 4.573 0.218
73.1208 4.552 0.218
73.1412 4.656 0.220
73.1617 4.792 0.223
73.1822 4.990 0.228
73.2026 4.417 0.214
73.2231 4.698 0.221
73.2435 5.000 0.228
73.2640 5.063 0.230
73.2845 4.490 0.216
73.3049 4.531 0.217
73.3254 4.510 0.217
73.3459 4.823 0.224
73.3663 4.625 0.219
73.3868 4.594 0.219
73.4072 4.719 0.222
73.4277 4.896 0.226
73.4482 4.531 0.217
73.4686 4.792 0.223
73.4891 4.729 0.222
73.5096 5.271 0.234
73.5300 5.083 0.230
73.5505 4.813 0.224
73.5709 4.729 0.222
73.5914 4.896 0.226
73.6119 4.854 0.225
73.6323 4.740 0.222
73.6528 4.688 0.221
73.6733 4.583 0.219
73.6937 4.438 0.215
73.7142 4.865 0.225
73.7347 4.875 0.225
73.7551 5.083 0.230
73.7756 4.490 0.216
73.7960 4.615 0.219
73.8165 4.938 0.227
73.8370 4.833 0.224
73.8574 4.531 0.217
73.8779 4.594 0.219
73.8984 4.646 0.220
73.9188 4.708 0.221
73.9393 4.490 0.216
73.9597 5.031 0.229
73.9802 4.813 0.224
74.0007 4.469 0.216
74.0211 4.406 0.214
74.0416 4.781 0.223
74.0621 4.729 0.222
74.0825 4.479 0.216
74.1030 4.823 0.224
74.1234 4.531 0.217
74.1439 4.615 0.219
74.1644 4.750 0.222
74.1848 4.948 0.227
74.2053 4.719 0.222
74.2258 4.906 0.226
74.2462 4.625 0.219
74.2667 4.635 0.220
74.2871 4.573 0.218
74.3076 4.333 0.212
74.3281 4.573 0.218
74.3485 4.427 0.215
74.3690 4.823 0.224
74.3895 4.563 0.218
74.4099 4.510 0.217
74.4304 4.708 0.221
74.4508 4.396 0.214
74.4713 4.458 0.216
74.4918 4.542 0.218
74.5122 4.292 0.211
74.5327 4.792 0.223
74.5532 4.479 0.216
74.5736 5.052 0.229
74.5941 4.552 0.218
74.6146 4.438 0.215
74.6350 4.552 0.218
74.6555 4.625 0.219
74.6759 4.656 0.220
74.6964 4.792 0.223
74.7169 4.583 0.219
74.7373 4.729 0.222
74.7578 4.396 0.214
74.7783 4.458 0.216
74.7987 4.667 0.220
74.8192 4.625 0.219
74.8396 4.177 0.209
74.8601 4.083 0.206
74.8806 4.635 0.220
74.9010 4.615 0.219
74.9215 4.781 0.223
74.9420 4.281 0.211
74.9624 4.385 0.214
74.9829 4.750 0.222
75.0033 4.167 0.208
75.0238 4.802 0.224
75.0443 4.927 0.227
75.0647 4.771 0.223
75.0852 4.458 0.216
75.1057 4.948 0.227
75.1261 4.365 0.213
75.1466 4.396 0.214
75.1670 4.771 0.223
75.1875 4.375 0.213
75.2080 4.469 0.216
75.2284 4.625 0.219
75.2489 4.563 0.218
75.2694 4.125 0.207
75.2898 4.396 0.214
75.3103 4.531 0.217
75.3307 4.542 0.218
75.3512 4.510 0.217
75.3717 4.708 0.221
75.3921 4.479 0.216
75.4126 3.958 0.203
75.4331 4.781 0.223
75.4535 4.719 0.222
75.4740 4.656 0.220
75.4945 4.563 0.218
75.5149 5.052 0.229
75.5354 4.635 0.220
75.5558 4.833 0.224
75.5763 4.573 0.218
75.5968 4.281 0.211
75.6172 4.510 0.217
75.6377 4.656 0.220
75.6582 4.781 0.223
75.6786 4.781 0.223
75.6991 4.854 0.225
75.7195 4.375 0.213
75.7400 4.219 0.210
75.7605 4.531 0.217
75.7809 4.792 0.223
75.8014 4.760 0.223
75.8219 4.583 0.219
75.8423 4.833 0.224
75.8628 4.406 0.214
75.8832 4.198 0.209
75.9037 4.323 0.212
75.9242 4.729 0.222
75.9446 4.438 0.215
75.9651 4.146 0.208
75.9856 4.583 0.219
76.0060 4.917 0.226
76.0265 4.698 0.221
76.0469 4.479 0.216
76.0674 4.177 0.209
76.0879 4.490 0.216
76.1083 4.385 0.214
76.1288 4.365 0.213
76.1493 4.635 0.220
76.1697 4.979 0.228
76.1902 4.604 0.219
76.2106 4.573 0.218
76.2311 4.302 0.212
76.2516 4.604 0.219
76.2720 4.552 0.218
76.2925 4.344 0.213
76.3130 4.052 0.205
76.3334 4.531 0.217
76.3539 4.885 0.226
76.3744 4.531 0.217
76.3948 4.604 0.219
76.4153 4.792 0.223
76.4357 4.396 0.214
76.4562 4.156 0.208
76.4767 4.531 0.217
76.4971 4.740 0.222
76.5176 4.240 0.210
76.5381 4.792 0.223
76.5585 4.875 0.225
76.5790 4.625 0.219
76.5994 4.792 0.223
76.6199 4.990 0.228
76.6404 4.573 0.218
76.6608 4.646 0.220
76.6813 4.542 0.218
76.7018 4.844 0.225
76.7222 4.406 0.214
76.7427 4.688 0.221
76.7631 4.563 0.218
76.7836 4.594 0.219
76.8041 4.688 0.221
76.8245 4.563 0.218
76.8450 4.188 0.209
76.8655 4.438 0.215
76.8859 4.448 0.215
76.9064 4.229 0.210
76.9268 4.125 0.207
76.9473 4.271 0.211
76.9678 4.573 0.218
76.9882 4.510 0.217
77.0087 4.479 0.216
77.0292 4.427 0.215
77.0496 4.208 0.209
77.0701 4.802 0.224
77.0906 4.802 0.224
77.1110 4.063 0.206
77.1315 4.344 0.213
77.1519 4.615 0.219
77.1724 4.563 0.218
77.1929 4.896 0.226
77.2133 4.427 0.215
77.2338 4.896 0.226
77.2543 4.375 0.213
77.2747 4.583 0.219
77.2952 4.594 0.219
77.3156 4.875 0.225
77.3361 4.323 0.212
77.3566 4.490 0.216
77.3770 4.823 0.224
77.3975 4.396 0.214
77.4180 4.292 0.211
77.4384 4.396 0.214
77.4589 4.208 0.209
77.4793 4.781 0.223
77.4998 4.198 0.209
77.5203 5.000 0.228
77.5407 4.979 0.228
77.5612 4.708 0.221
77.5817 4.656 0.220
77.6021 4.365 0.213
77.6226 4.469 0.216
77.6430 4.313 0.212
77.6635 4.823 0.224
77.6840 4.521 0.217
77.7044 4.688 0.221
77.7249 4.740 0.222
77.7454 4.438 0.215
77.7658 4.833 0.224
77.7863 4.885 0.226
77.8067 4.521 0.217
77.8272 5.073 0.230
77.8477 4.781 0.223
77.8681 4.708 0.221
77.8886 4.573 0.218
77.9091 4.313 0.212
77.9295 4.552 0.218
77.9500 4.594 0.219
77.9705 4.479 0.216
77.9909 4.594 0.219
78.0114 4.531 0.217
78.0318 4.490 0.216
78.0523 4.563 0.218
78.0728 4.417 0.214
78.0932 4.635 0.220
78.1137 4.708 0.221
78.1342 4.354 0.213
78.1546 4.844 0.225
78.1751 4.875 0.225
78.1955 4.302 0.212
78.2160 4.500 0.217
78.2365 4.917 0.226
78.2569 4.708 0.221
78.2774 4.823 0.224
78.2979 4.719 0.222
78.3183 4.563 0.218
78.3388 4.813 0.224
78.3592 4.156 0.208
78.3797 4.292 0.211
78.4002 4.385 0.214
78.4206 5.135 0.231
78.4411 4.583 0.219
78.4616 4.646 0.220
78.4820 4.750 0.222
78.5025 4.094 0.207
78.5229 4.375 0.213
78.5434 4.719 0.222
78.5639 4.458 0.216
78.5843 4.188 0.209
78.6048 4.500 0.217
78.6253 4.875 0.225
78.6457 4.625 0.219
78.6662 4.740 0.222
78.6866 4.688 0.221
78.7071 4.563 0.218
78.7276 4.417 0.214
78.7480 4.500 0.217
78.7685 4.875 0.225
78.7890 4.552 0.218
78.8094 4.385 0.214
78.8299 4.917 0.226
78.8504 4.760 0.223
78.8708 4.552 0.218
78.8913 4.719 0.222
78.9117 4.979 0.228
78.9322 5.094 0.230
78.9527 4.719 0.222
78.9731 5.000 0.228
78.9936 4.479 0.216
79.0141 4.594 0.219
79.0345 4.906 0.226
79.0550 5.208 0.233
79.0754 4.854 0.225
79.0959 4.688 0.221
79.1164 5.021 0.229
79.1368 5.104 0.231
79.1573 5.219 0.233
79.1778 4.885 0.226
79.1982 5.354 0.236
79.2187 4.979 0.228
79.2391 4.896 0.226
79.2596 5.302 0.235
79.2801 4.969 0.228
79.3005 5.031 0.229
79.3210 4.875 0.225
79.3415 5.021 0.229
79.3619 4.948 0.227
79.3824 5.615 0.242
79.4028 5.010 0.228
79.4233 4.990 0.228
79.4438 5.052 0.229
79.4642 5.083 0.230
79.4847 4.813 0.224
79.5052 4.906 0.226
79.5256 5.115 0.231
79.5461 5.177 0.232
79.5665 5.417 0.238
79.5870 4.896 0.226
79.6075 5.010 0.228
79.6279 4.771 0.223
79.6484 4.698 0.221
79.6689 4.438 0.215
79.6893 4.729 0.222
79.7098 4.927 0.227
79.7303 5.448 0.238
79.7507 4.948 0.227
79.7712 4.667 0.220
79.7916 4.729 0.222
79.8121 4.688 0.221
79.8326 5.031 0.229
79.8530 4.563 0.218
79.8735 4.313 0.212
79.8940 4.750 0.222
79.9144 4.833 0.224
79.9349 4.792 0.223
79.9553 4.198 0.209
79.9758 5.208 0.233
79.9963 4.625 0.219
