'Id: "" Comment: "" Operator: "Lab Manager" Anode: "Cu" Scantype: "Locked Coupled" TimePerStep: "96" X: "0" Y: "0" Z: "0" 
5.0001 23.667 0.497
5.0206 22.490 0.484
5.0410 21.833 0.477
5.0615 22.458 0.484
5.0820 21.698 0.475
5.1024 22.115 0.480
5.1229 21.427 0.472
5.1433 22.854 0.488
5.1638 21.448 0.473
5.1843 22.323 0.482
5.2047 22.667 0.486
5.2252 20.990 0.468
5.2457 21.531 0.474
5.2661 20.729 0.465
5.2866 21.458 0.473
5.3070 21.406 0.472
5.3275 20.969 0.467
5.3480 20.375 0.461
5.3684 21.292 0.471
5.3889 20.854 0.466
5.4094 20.604 0.463
5.4298 20.688 0.464
5.4503 20.979 0.467
5.4707 20.125 0.458
5.4912 19.927 0.456
5.5117 20.115 0.458
5.5321 20.604 0.463
5.5526 20.625 0.464
5.5731 19.813 0.454
5.5935 19.469 0.450
5.6140 20.292 0.460
5.6344 19.177 0.447
5.6549 18.969 0.445
5.6754 20.333 0.460
5.6958 19.698 0.453
5.7163 20.271 0.460
5.7368 18.865 0.443
5.7572 19.781 0.454
5.7777 20.083 0.457
5.7981 19.604 0.452
5.8186 19.458 0.450
5.8391 19.479 0.450
5.8595 19.833 0.455
5.8800 18.365 0.437
5.9005 18.250 0.436
5.9209 17.875 0.432
5.9414 18.594 0.440
5.9619 18.719 0.442
5.9823 19.250 0.448
6.0028 18.292 0.437
6.0232 17.990 0.433
6.0437 18.021 0.433
6.0642 18.615 0.440
6.0846 18.313 0.437
6.1051 18.010 0.433
6.1256 18.250 0.436
6.1460 18.885 0.444
6.1665 17.885 0.432
6.1869 18.615 0.440
6.2074 18.156 0.435
6.2279 18.854 0.443
6.2483 17.271 0.424
6.2688 17.448 0.426
6.2893 18.385 0.438
6.3097 17.771 0.430
6.3302 17.958 0.433
6.3506 17.646 0.429
6.3711 17.292 0.424
6.3916 17.813 0.431
6.4120 18.292 0.437
6.4325 17.583 0.428
6.4530 18.500 0.439
6.4734 18.240 0.436
6.4939 17.635 0.429
6.5143 16.844 0.419
6.5348 18.125 0.435
6.5553 17.979 0.433
6.5757 16.802 0.418
6.5962 18.031 0.433
6.6167 17.646 0.429
6.6371 17.688 0.429
6.6576 17.594 0.428
6.6780 17.177 0.423
6.6985 17.010 0.421
6.7190 17.573 0.428
6.7394 18.292 0.437
6.7599 17.240 0.424
6.7804 17.875 0.432
6.8008 17.667 0.429
6.8213 17.688 0.429
6.8418 17.479 0.427
6.8622 16.677 0.417
6.8827 17.448 0.426
6.9031 17.094 0.422
6.9236 17.375 0.425
6.9441 17.313 0.425
6.9645 18.750 0.442
6.9850 17.406 0.426
7.0055 18.000 0.433
7.0259 18.104 0.434
7.0464 17.802 0.431
7.0668 17.490 0.427
7.0873 16.958 0.420
7.1078 16.792 0.418
7.1282 18.177 0.435
7.1487 17.604 0.428
7.1692 16.438 0.414
7.1896 17.740 0.430
7.2101 17.250 0.424
7.2305 17.031 0.421
7.2510 16.917 0.420
7.2715 17.177 0.423
7.2919 17.375 0.425
7.3124 17.115 0.422
7.3329 17.042 0.421
7.3533 17.115 0.422
7.3738 17.417 0.426
7.3942 17.385 0.426
7.4147 16.656 0.417
7.4352 16.729 0.417
7.4556 17.802 0.431
7.4761 17.604 0.428
7.4966 16.510 0.415
7.5170 17.240 0.424
7.5375 17.135 0.422
7.5580 17.208 0.423
7.5784 16.990 0.421
7.5989 17.406 0.426
7.6193 17.708 0.429
7.6398 17.552 0.428
7.6603 16.854 0.419
7.6807 16.885 0.419
7.7012 17.865 0.431
7.7217 17.698 0.429
7.7421 18.031 0.433
7.7626 18.115 0.434
7.7830 16.250 0.411
7.8035 17.729 0.430
7.8240 17.885 0.432
7.8444 18.260 0.436
7.8649 16.906 0.420
7.8854 17.531 0.427
7.9058 17.010 0.421
7.9263 17.313 0.425
7.9467 17.760 0.430
7.9672 17.625 0.428
7.9877 17.844 0.431
8.0081 17.865 0.431
8.0286 17.521 0.427
8.0491 17.375 0.425
8.0695 17.104 0.422
8.0900 16.948 0.420
8.1104 17.625 0.428
8.1309 16.458 0.414
8.1514 17.521 0.427
8.1718 17.354 0.425
8.1923 17.938 0.432
8.2128 17.802 0.431
8.2332 17.552 0.428
8.2537 17.292 0.424
8.2741 17.167 0.423
8.2946 18.094 0.434
8.3151 18.792 0.442
8.3355 18.042 0.434
8.3560 17.438 0.426
8.3765 17.677 0.429
8.3969 16.844 0.419
8.4174 17.385 0.426
8.4379 17.198 0.423
8.4583 18.073 0.434
8.4788 17.667 0.429
8.4992 18.490 0.439
8.5197 17.198 0.423
8.5402 16.906 0.420
8.5606 17.198 0.423
8.5811 17.625 0.428
8.6016 17.344 0.425
8.6220 17.500 0.427
8.6425 18.010 0.433
8.6629 17.938 0.432
8.6834 18.510 0.439
8.7039 17.813 0.431
8.7243 17.990 0.433
8.7448 18.427 0.438
8.7653 17.896 0.432
8.7857 17.542 0.427
8.8062 17.917 0.432
8.8266 18.896 0.444
8.8471 18.656 0.441
8.8676 19.167 0.447
8.8880 18.396 0.438
8.9085 19.396 0.449
8.9290 19.969 0.456
8.9494 20.865 0.466
8.9699 21.229 0.470
8.9903 21.302 0.471
9.0108 23.031 0.490
9.0313 24.052 0.501
9.0517 24.469 0.505
9.0722 28.208 0.542
9.0927 31.677 0.574
9.1131 34.563 0.600
9.1336 38.115 0.630
9.1540 36.510 0.617
9.1745 30.823 0.567
9.1950 24.344 0.504
9.2154 22.000 0.479
9.2359 20.521 0.462
9.2564 20.260 0.459
9.2768 20.125 0.458
9.2973 21.052 0.468
9.3178 20.104 0.458
9.3382 20.344 0.460
9.3587 20.833 0.466
9.3791 20.688 0.464
9.3996 20.625 0.464
9.4201 20.958 0.467
9.4405 20.969 0.467
9.4610 21.271 0.471
9.4815 21.802 0.477
9.5019 23.146 0.491
9.5224 23.469 0.494
9.5428 22.938 0.489
9.5633 24.500 0.505
9.5838 26.375 0.524
9.6042 27.594 0.536
9.6247 30.010 0.559
9.6452 33.010 0.586
9.6656 34.823 0.602
9.6861 36.729 0.619
9.7065 40.885 0.653
9.7270 45.354 0.687
9.7475 49.583 0.719
9.7679 54.438 0.753
9.7884 62.896 0.809
9.8089 74.073 0.878
9.8293 90.656 0.972
9.8498 113.729 1.088
9.8702 148.760 1.245
9.8907 197.240 1.433
9.9112 268.750 1.673
9.9316 370.250 1.964
9.9521 471.500 2.216
9.9726 539.135 2.370
9.9930 493.948 2.268
10.0135 387.146 2.008
10.0339 289.167 1.736
10.0544 221.000 1.517
10.0749 181.896 1.376
10.0953 155.146 1.271
10.1158 135.615 1.189
10.1363 122.573 1.130
10.1567 109.979 1.070
10.1772 101.260 1.027
10.1977 94.771 0.994
10.2181 86.021 0.947
10.2386 81.854 0.923
10.2590 74.750 0.882
10.2795 71.094 0.861
10.3000 67.271 0.837
10.3204 63.365 0.812
10.3409 61.063 0.798
10.3614 58.146 0.778
10.3818 56.063 0.764
10.4023 56.573 0.768
10.4227 54.667 0.755
10.4432 52.917 0.742
10.4637 51.927 0.735
10.4841 50.542 0.726
10.5046 48.969 0.714
10.5251 49.375 0.717
10.5455 48.354 0.710
10.5660 46.563 0.696
10.5864 48.542 0.711
10.6069 47.208 0.701
10.6274 45.927 0.692
10.6478 46.479 0.696
10.6683 46.740 0.698
10.6888 47.771 0.705
10.7092 48.021 0.707
10.7297 48.135 0.708
10.7501 47.375 0.702
10.7706 48.802 0.713
10.7911 48.031 0.707
10.8115 49.354 0.717
10.8320 49.604 0.719
10.8525 48.615 0.712
10.8729 47.875 0.706
10.8934 45.667 0.690
10.9138 42.438 0.665
10.9343 39.010 0.637
10.9548 34.969 0.604
10.9752 32.125 0.578
10.9957 30.469 0.563
11.0162 29.125 0.551
11.0366 27.510 0.535
11.0571 25.469 0.515
11.0776 24.354 0.504
11.0980 24.542 0.506
11.1185 23.615 0.496
11.1389 23.375 0.493
11.1594 22.542 0.485
11.1799 22.625 0.485
11.2003 22.281 0.482
11.2208 20.563 0.463
11.2413 21.521 0.473
11.2617 20.125 0.458
11.2822 21.021 0.468
11.3026 20.083 0.457
11.3231 19.604 0.452
11.3436 18.917 0.444
11.3640 18.740 0.442
11.3845 18.948 0.444
11.4050 18.344 0.437
11.4254 18.677 0.441
11.4459 18.240 0.436
11.4663 18.719 0.442
11.4868 18.031 0.433
11.5073 18.542 0.439
11.5277 17.896 0.432
11.5482 18.375 0.438
11.5687 17.302 0.425
11.5891 17.438 0.426
11.6096 17.250 0.424
11.6300 17.656 0.429
11.6505 16.927 0.420
11.6710 17.260 0.424
11.6914 17.094 0.422
11.7119 16.792 0.418
11.7324 16.615 0.416
11.7528 16.344 0.413
11.7733 16.052 0.409
11.7938 17.000 0.421
11.8142 16.573 0.415
11.8347 15.865 0.407
11.8551 16.115 0.410
11.8756 15.896 0.407
11.8961 15.958 0.408
11.9165 15.354 0.400
11.9370 15.042 0.396
11.9575 14.729 0.392
11.9779 14.500 0.389
11.9984 15.333 0.400
12.0188 15.396 0.400
12.0393 15.260 0.399
12.0598 15.594 0.403
12.0802 15.396 0.400
12.1007 15.750 0.405
12.1212 15.583 0.403
12.1416 14.802 0.393
12.1621 14.344 0.387
12.1825 15.240 0.398
12.2030 15.052 0.396
12.2235 14.427 0.388
12.2439 14.948 0.395
12.2644 14.833 0.393
12.2849 14.667 0.391
12.3053 13.760 0.379
12.3258 15.042 0.396
12.3462 14.563 0.389
12.3667 14.354 0.387
12.3872 14.313 0.386
12.4076 14.313 0.386
12.4281 14.802 0.393
12.4486 13.542 0.376
12.4690 13.479 0.375
12.4895 14.156 0.384
12.5099 13.406 0.374
12.5304 14.104 0.383
12.5509 14.042 0.382
12.5713 13.896 0.380
12.5918 13.792 0.379
12.6123 13.833 0.380
12.6327 13.688 0.378
12.6532 13.917 0.381
12.6737 13.740 0.378
12.6941 13.229 0.371
12.7146 12.552 0.362
12.7350 13.875 0.380
12.7555 13.438 0.374
12.7760 12.938 0.367
12.7964 13.073 0.369
12.8169 13.479 0.375
12.8374 13.313 0.372
12.8578 13.667 0.377
12.8783 12.833 0.366
12.8987 13.229 0.371
12.9192 12.313 0.358
12.9397 12.448 0.360
12.9601 12.958 0.367
12.9806 12.875 0.366
13.0011 12.156 0.356
13.0215 12.771 0.365
13.0420 13.063 0.369
13.0624 12.229 0.357
13.0829 12.479 0.361
13.1034 12.771 0.365
13.1238 12.229 0.357
13.1443 12.146 0.356
13.1648 12.365 0.359
13.1852 12.667 0.363
13.2057 12.521 0.361
13.2261 12.063 0.354
13.2466 12.406 0.359
13.2671 12.885 0.366
13.2875 11.875 0.352
13.3080 11.698 0.349
13.3285 11.854 0.351
13.3489 11.646 0.348
13.3694 11.208 0.342
13.3898 11.927 0.352
13.4103 11.656 0.348
13.4308 11.198 0.342
13.4512 11.292 0.343
13.4717 11.521 0.346
13.4922 11.969 0.353
13.5126 12.146 0.356
13.5331 11.458 0.345
13.5536 11.635 0.348
13.5740 11.844 0.351
13.5945 11.385 0.344
13.6149 11.177 0.341
13.6354 11.427 0.345
13.6559 11.448 0.345
13.6763 11.760 0.350
13.6968 11.146 0.341
13.7173 10.865 0.336
13.7377 10.729 0.334
13.7582 11.083 0.340
13.7786 11.188 0.341
13.7991 11.042 0.339
13.8196 10.938 0.338
13.8400 11.333 0.344
13.8605 11.198 0.342
13.8810 11.958 0.353
13.9014 10.969 0.338
13.9219 11.646 0.348
13.9423 10.625 0.333
13.9628 10.719 0.334
13.9833 10.500 0.331
14.0037 11.281 0.343
14.0242 11.000 0.339
14.0447 10.969 0.338
14.0651 10.552 0.332
14.0856 10.667 0.333
14.1060 10.500 0.331
14.1265 10.719 0.334
14.1470 10.219 0.326
14.1674 10.500 0.331
14.1879 10.375 0.329
14.2084 10.927 0.337
14.2288 10.938 0.338
14.2493 10.458 0.330
14.2697 10.958 0.338
14.2902 10.281 0.327
14.3107 10.573 0.332
14.3311 10.135 0.325
14.3516 10.250 0.327
14.3721 11.198 0.342
14.3925 10.313 0.328
14.4130 10.531 0.331
14.4335 10.125 0.325
14.4539 9.854 0.320
14.4744 10.260 0.327
14.4948 10.292 0.327
14.5153 10.500 0.331
14.5358 10.406 0.329
14.5562 10.448 0.330
14.5767 10.219 0.326
14.5972 10.323 0.328
14.6176 10.104 0.324
14.6381 10.469 0.330
14.6585 10.219 0.326
14.6790 9.917 0.321
14.6995 9.979 0.322
14.7199 9.990 0.323
14.7404 10.542 0.331
14.7609 9.594 0.316
14.7813 10.823 0.336
14.8018 10.458 0.330
14.8222 10.042 0.323
14.8427 9.521 0.315
14.8632 9.479 0.314
14.8836 10.094 0.324
14.9041 10.323 0.328
14.9246 9.521 0.315
14.9450 9.354 0.312
14.9655 9.521 0.315
14.9859 9.542 0.315
15.0064 9.792 0.319
15.0269 9.240 0.310
15.0473 9.885 0.321
15.0678 10.073 0.324
15.0883 10.208 0.326
15.1087 9.563 0.316
15.1292 9.969 0.322
15.1496 9.865 0.321
15.1701 9.885 0.321
15.1906 9.667 0.317
15.2110 10.385 0.329
15.2315 10.094 0.324
15.2520 10.177 0.326
15.2724 9.781 0.319
15.2929 9.260 0.311
15.3134 10.188 0.326
15.3338 10.063 0.324
15.3543 10.000 0.323
15.3747 9.938 0.322
15.3952 10.406 0.329
15.4157 9.677 0.317
15.4361 10.031 0.323
15.4566 9.844 0.320
15.4771 10.552 0.332
15.4975 10.156 0.325
15.5180 9.646 0.317
15.5384 10.771 0.335
15.5589 9.625 0.317
15.5794 10.156 0.325
15.5998 9.813 0.320
15.6203 10.021 0.323
15.6408 10.021 0.323
15.6612 10.073 0.324
15.6817 9.917 0.321
15.7021 11.281 0.343
15.7226 10.771 0.335
15.7431 11.677 0.349
15.7635 12.615 0.362
15.7840 14.115 0.383
15.8045 15.896 0.407
15.8249 17.969 0.433
15.8454 17.083 0.422
15.8658 14.885 0.394
15.8863 13.552 0.376
15.9068 11.938 0.353
15.9272 10.781 0.335
15.9477 10.167 0.325
15.9682 10.667 0.333
15.9886 10.375 0.329
16.0091 9.656 0.317
16.0296 9.969 0.322
16.0500 10.156 0.325
16.0705 10.094 0.324
16.0909 9.990 0.323
16.1114 9.698 0.318
16.1319 9.792 0.319
16.1523 9.823 0.320
16.1728 9.729 0.318
16.1933 9.344 0.312
16.2137 9.448 0.314
16.2342 9.458 0.314
16.2546 9.167 0.309
16.2751 9.271 0.311
16.2956 9.406 0.313
16.3160 9.854 0.320
16.3365 9.594 0.316
16.3570 9.198 0.310
16.3774 9.438 0.314
16.3979 9.531 0.315
16.4183 9.625 0.317
16.4388 9.385 0.313
16.4593 9.521 0.315
16.4797 9.531 0.315
16.5002 9.677 0.317
16.5207 10.083 0.324
16.5411 9.948 0.322
16.5616 9.625 0.317
16.5820 9.208 0.310
16.6025 9.271 0.311
16.6230 9.677 0.317
16.6434 9.427 0.313
16.6639 10.573 0.332
16.6844 9.500 0.315
16.7048 9.302 0.311
16.7253 10.615 0.333
16.7457 10.042 0.323
16.7662 9.938 0.322
16.7867 9.844 0.320
16.8071 10.104 0.324
16.8276 10.438 0.330
16.8481 10.198 0.326
16.8685 10.531 0.331
16.8890 9.833 0.320
16.9095 10.219 0.326
16.9299 10.333 0.328
16.9504 10.104 0.324
16.9708 10.490 0.331
16.9913 10.406 0.329
17.0118 10.229 0.326
17.0322 11.052 0.339
17.0527 10.219 0.326
17.0732 10.385 0.329
17.0936 10.521 0.331
17.1141 10.125 0.325
17.1345 11.010 0.339
17.1550 10.740 0.334
17.1755 10.802 0.335
17.1959 10.792 0.335
17.2164 10.802 0.335
17.2369 11.167 0.341
17.2573 11.115 0.340
17.2778 10.802 0.335
17.2982 11.104 0.340
17.3187 11.125 0.340
17.3392 11.073 0.340
17.3596 11.385 0.344
17.3801 11.708 0.349
17.4006 11.354 0.344
17.4210 11.271 0.343
17.4415 11.594 0.348
17.4619 11.500 0.346
17.4824 11.667 0.349
17.5029 12.292 0.358
17.5233 11.802 0.351
17.5438 11.677 0.349
17.5643 11.063 0.339
17.5847 11.490 0.346
17.6052 12.177 0.356
17.6256 11.969 0.353
17.6461 12.292 0.358
17.6666 13.188 0.371
17.6870 12.427 0.360
17.7075 13.177 0.370
17.7280 12.927 0.367
17.7484 13.396 0.374
17.7689 13.875 0.380
17.7894 14.229 0.385
17.8098 15.198 0.398
17.8303 15.135 0.397
17.8507 16.229 0.411
17.8712 16.708 0.417
17.8917 16.438 0.414
17.9121 15.896 0.407
17.9326 16.115 0.410
17.9531 15.510 0.402
17.9735 15.740 0.405
17.9940 15.813 0.406
18.0144 15.688 0.404
18.0349 16.615 0.416
18.0554 17.094 0.422
18.0758 17.177 0.423
18.0963 17.063 0.422
18.1168 17.406 0.426
18.1372 18.542 0.439
18.1577 17.573 0.428
18.1781 17.250 0.424
18.1986 17.135 0.422
18.2191 16.490 0.414
18.2395 17.125 0.422
18.2600 18.458 0.438
18.2805 17.521 0.427
18.3009 17.760 0.430
18.3214 17.406 0.426
18.3418 17.302 0.425
18.3623 16.719 0.417
18.3828 17.229 0.424
18.4032 17.583 0.428
18.4237 17.438 0.426
18.4442 16.917 0.420
18.4646 17.146 0.423
18.4851 17.938 0.432
18.5055 18.125 0.435
18.5260 16.958 0.420
18.5465 17.031 0.421
18.5669 17.521 0.427
18.5874 16.510 0.415
18.6079 17.448 0.426
18.6283 16.958 0.420
18.6488 17.292 0.424
18.6693 16.854 0.419
18.6897 17.354 0.425
18.7102 16.490 0.414
18.7306 17.198 0.423
18.7511 16.813 0.418
18.7716 17.406 0.426
18.7920 17.271 0.424
18.8125 16.906 0.420
18.8330 17.750 0.430
18.8534 17.948 0.432
18.8739 17.229 0.424
18.8943 18.104 0.434
18.9148 18.219 0.436
18.9353 18.979 0.445
18.9557 17.646 0.429
18.9762 17.542 0.427
18.9967 16.708 0.417
19.0171 15.521 0.402
19.0376 15.813 0.406
19.0580 14.146 0.384
19.0785 14.948 0.395
19.0990 14.354 0.387
19.1194 14.240 0.385
19.1399 13.375 0.373
19.1604 13.542 0.376
19.1808 13.677 0.377
19.2013 13.510 0.375
19.2217 13.229 0.371
19.2422 13.385 0.373
19.2627 13.083 0.369
19.2831 13.948 0.381
19.3036 13.990 0.382
19.3241 13.698 0.378
19.3445 13.490 0.375
19.3650 13.531 0.375
19.3854 13.510 0.375
19.4059 13.542 0.376
19.4264 13.771 0.379
19.4468 13.083 0.369
19.4673 14.490 0.389
19.4878 14.250 0.385
19.5082 14.302 0.386
19.5287 13.177 0.370
19.5492 14.104 0.383
19.5696 14.260 0.385
19.5901 13.969 0.381
19.6105 14.802 0.393
19.6310 14.333 0.386
19.6515 15.990 0.408
19.6719 16.115 0.410
19.6924 17.885 0.432
19.7129 17.969 0.433
19.7333 17.531 0.427
19.7538 19.740 0.453
19.7742 20.771 0.465
19.7947 22.531 0.484
19.8152 24.385 0.504
19.8356 28.927 0.549
19.8561 34.000 0.595
19.8766 41.052 0.654
19.8970 54.365 0.753
19.9175 72.625 0.870
19.9379 90.990 0.974
19.9584 103.677 1.039
19.9789 99.833 1.020
19.9993 90.333 0.970
20.0198 78.021 0.902
20.0403 64.333 0.819
20.0607 55.094 0.758
20.0812 47.479 0.703
20.1016 42.313 0.664
20.1221 38.146 0.630
20.1426 36.427 0.616
20.1630 34.729 0.601
20.1835 33.000 0.586
20.2040 30.677 0.565
20.2244 30.219 0.561
20.2449 28.135 0.541
20.2654 29.042 0.550
20.2858 27.490 0.535
20.3063 27.885 0.539
20.3267 27.667 0.537
20.3472 27.677 0.537
20.3677 27.490 0.535
20.3881 26.969 0.530
20.4086 26.833 0.529
20.4291 27.052 0.531
20.4495 26.333 0.524
20.4700 25.563 0.516
20.4904 24.990 0.510
20.5109 24.417 0.504
20.5314 24.719 0.507
20.5518 24.385 0.504
20.5723 23.667 0.497
20.5928 22.417 0.483
20.6132 21.969 0.478
20.6337 21.521 0.473
20.6541 20.531 0.462
20.6746 20.448 0.462
20.6951 20.104 0.458
20.7155 18.708 0.441
20.7360 19.646 0.452
20.7565 18.844 0.443
20.7769 18.208 0.436
20.7974 16.844 0.419
20.8178 16.896 0.420
20.8383 16.635 0.416
20.8588 15.781 0.405
20.8792 15.927 0.407
20.8997 15.302 0.399
20.9202 15.625 0.403
20.9406 15.458 0.401
20.9611 14.729 0.392
20.9815 15.000 0.395
21.0020 13.833 0.380
21.0225 14.438 0.388
21.0429 14.115 0.383
21.0634 14.438 0.388
21.0839 14.354 0.387
21.1043 13.792 0.379
21.1248 14.292 0.386
21.1453 14.583 0.390
21.1657 13.906 0.381
21.1862 13.406 0.374
21.2066 13.958 0.381
21.2271 13.573 0.376
21.2476 13.813 0.379
21.2680 13.594 0.376
21.2885 13.427 0.374
21.3090 13.344 0.373
21.3294 13.573 0.376
21.3499 13.490 0.375
21.3703 13.406 0.374
21.3908 13.073 0.369
21.4113 13.052 0.369
21.4317 12.917 0.367
21.4522 12.854 0.366
21.4727 13.073 0.369
21.4931 13.677 0.377
21.5136 13.927 0.381
21.5340 13.740 0.378
21.5545 13.854 0.380
21.5750 14.208 0.385
21.5954 13.448 0.374
21.6159 14.104 0.383
21.6364 14.104 0.383
21.6568 13.802 0.379
21.6773 13.865 0.380
21.6977 14.698 0.391
21.7182 14.677 0.391
21.7387 15.021 0.396
21.7591 15.427 0.401
21.7796 15.531 0.402
21.8001 15.896 0.407
21.8205 16.010 0.408
21.8410 16.031 0.409
21.8614 16.458 0.414
21.8819 15.906 0.407
21.9024 15.260 0.399
21.9228 15.260 0.399
21.9433 14.375 0.387
21.9638 14.208 0.385
21.9842 13.979 0.382
22.0047 14.042 0.382
22.0252 14.854 0.393
22.0456 14.177 0.384
22.0661 15.104 0.397
22.0865 14.521 0.389
22.1070 15.146 0.397
22.1275 16.250 0.411
22.1479 17.594 0.428
22.1684 19.938 0.456
22.1889 22.594 0.485
22.2093 25.531 0.516
22.2298 30.500 0.564
22.2502 35.073 0.604
22.2707 35.990 0.612
22.2912 33.063 0.587
22.3116 29.438 0.554
22.3321 26.688 0.527
22.3526 21.646 0.475
22.3730 19.063 0.446
22.3935 17.375 0.425
22.4139 15.896 0.407
22.4344 15.156 0.397
22.4549 14.438 0.388
22.4753 12.990 0.368
22.4958 12.979 0.368
22.5163 12.073 0.355
22.5367 11.708 0.349
22.5572 11.594 0.348
22.5776 10.927 0.337
22.5981 11.146 0.341
22.6186 10.333 0.328
22.6390 10.615 0.333
22.6595 10.240 0.327
22.6800 10.385 0.329
22.7004 10.448 0.330
22.7209 9.865 0.321
22.7413 9.750 0.319
22.7618 10.344 0.328
22.7823 9.813 0.320
22.8027 9.833 0.320
22.8232 10.177 0.326
22.8437 9.844 0.320
22.8641 10.042 0.323
22.8846 9.729 0.318
22.9051 11.021 0.339
22.9255 11.917 0.352
22.9460 13.146 0.370
22.9664 13.135 0.370
22.9869 13.167 0.370
23.0074 11.531 0.347
23.0278 11.531 0.347
23.0483 10.667 0.333
23.0688 9.844 0.320
23.0892 9.146 0.309
23.1097 9.229 0.310
23.1301 8.583 0.299
23.1506 8.479 0.297
23.1711 8.313 0.294
23.1915 8.708 0.301
23.2120 8.854 0.304
23.2325 8.635 0.300
23.2529 8.896 0.304
23.2734 8.396 0.296
23.2938 8.823 0.303
23.3143 8.115 0.291
23.3348 8.104 0.291
23.3552 8.542 0.298
23.3757 8.865 0.304
23.3962 8.469 0.297
23.4166 8.500 0.298
23.4371 8.729 0.302
23.4575 8.875 0.304
23.4780 8.229 0.293
23.4985 8.406 0.296
23.5189 7.656 0.282
23.5394 8.729 0.302
23.5599 8.510 0.298
23.5803 7.875 0.286
23.6008 8.646 0.300
23.6212 8.167 0.292
23.6417 8.438 0.296
23.6622 8.729 0.302
23.6826 8.906 0.305
23.7031 8.771 0.302
23.7236 8.135 0.291
23.7440 8.813 0.303
23.7645 8.375 0.295
23.7850 8.396 0.296
23.8054 8.906 0.305
23.8259 8.823 0.303
23.8463 8.229 0.293
23.8668 8.302 0.294
23.8873 7.740 0.284
23.9077 8.667 0.300
23.9282 8.531 0.298
23.9487 8.302 0.294
23.9691 7.781 0.285
23.9896 7.979 0.288
24.0100 8.104 0.291
24.0305 8.573 0.299
24.0510 8.104 0.291
24.0714 7.542 0.280
24.0919 7.521 0.280
24.1124 7.906 0.287
24.1328 7.896 0.287
24.1533 8.010 0.289
24.1737 7.917 0.287
24.1942 8.177 0.292
24.2147 8.719 0.301
24.2351 8.740 0.302
24.2556 8.604 0.299
24.2761 9.333 0.312
24.2965 9.010 0.306
24.3170 8.417 0.296
24.3374 9.031 0.307
24.3579 9.646 0.317
24.3784 9.458 0.314
24.3988 10.635 0.333
24.4193 10.250 0.327
24.4398 9.781 0.319
24.4602 9.719 0.318
24.4807 9.292 0.311
24.5012 9.260 0.311
24.5216 8.625 0.300
24.5421 8.313 0.294
24.5625 8.479 0.297
24.5830 8.031 0.289
24.6035 7.875 0.286
24.6239 8.135 0.291
24.6444 8.594 0.299
24.6649 8.344 0.295
24.6853 7.635 0.282
24.7058 8.615 0.300
24.7262 8.281 0.294
24.7467 8.656 0.300
24.7672 8.500 0.298
24.7876 8.656 0.300
24.8081 8.458 0.297
24.8286 8.260 0.293
24.8490 8.302 0.294
24.8695 8.229 0.293
24.8899 8.031 0.289
24.9104 7.490 0.279
24.9309 8.031 0.289
24.9513 8.135 0.291
24.9718 7.990 0.288
24.9923 8.000 0.289
25.0127 7.979 0.288
25.0332 8.677 0.301
25.0536 7.958 0.288
25.0741 7.583 0.281
25.0946 7.323 0.276
25.1150 7.302 0.276
25.1355 7.906 0.287
25.1560 7.156 0.273
25.1764 7.198 0.274
25.1969 7.948 0.288
25.2173 7.625 0.282
25.2378 7.917 0.287
25.2583 7.802 0.285
25.2787 7.458 0.279
25.2992 8.313 0.294
25.3197 7.604 0.281
25.3401 7.563 0.281
25.3606 7.198 0.274
25.3811 7.427 0.278
25.4015 7.042 0.271
25.4220 7.177 0.273
25.4424 7.990 0.288
25.4629 7.708 0.283
25.4834 7.406 0.278
25.5038 7.688 0.283
25.5243 7.771 0.285
25.5448 7.344 0.277
25.5652 7.646 0.282
25.5857 8.104 0.291
25.6061 8.604 0.299
25.6266 9.688 0.318
25.6471 9.542 0.315
25.6675 9.313 0.311
25.6880 9.271 0.311
25.7085 9.188 0.309
25.7289 8.635 0.300
25.7494 8.344 0.295
25.7698 7.948 0.288
25.7903 7.688 0.283
25.8108 7.760 0.284
25.8312 7.385 0.277
25.8517 6.885 0.268
25.8722 7.615 0.282
25.8926 7.219 0.274
25.9131 7.594 0.281
25.9335 8.073 0.290
25.9540 7.698 0.283
25.9745 7.823 0.285
25.9949 7.719 0.284
26.0154 7.750 0.284
26.0359 7.448 0.279
26.0563 7.583 0.281
26.0768 7.417 0.278
26.0972 7.188 0.274
26.1177 7.198 0.274
26.1382 7.031 0.271
26.1586 7.229 0.274
26.1791 7.781 0.285
26.1996 7.719 0.284
26.2200 7.604 0.281
26.2405 7.792 0.285
26.2610 7.552 0.280
26.2814 7.104 0.272
26.3019 7.406 0.278
26.3223 7.073 0.271
26.3428 7.792 0.285
26.3633 8.198 0.292
26.3837 7.469 0.279
26.4042 7.833 0.286
26.4247 7.688 0.283
26.4451 7.698 0.283
26.4656 7.990 0.288
26.4860 7.135 0.273
26.5065 7.667 0.283
26.5270 7.323 0.276
26.5474 7.760 0.284
26.5679 7.146 0.273
26.5884 7.448 0.279
26.6088 7.615 0.282
26.6293 7.635 0.282
26.6497 7.177 0.273
26.6702 7.344 0.277
26.6907 7.927 0.287
26.7111 7.198 0.274
26.7316 7.802 0.285
26.7521 7.417 0.278
26.7725 7.438 0.278
26.7930 7.563 0.281
26.8134 7.229 0.274
26.8339 7.813 0.285
26.8544 7.656 0.282
26.8748 7.292 0.276
26.8953 7.583 0.281
26.9158 7.917 0.287
26.9362 7.729 0.284
26.9567 7.302 0.276
26.9771 7.771 0.285
26.9976 7.542 0.280
27.0181 7.719 0.284
27.0385 7.917 0.287
27.0590 7.323 0.276
27.0795 7.583 0.281
27.0999 7.896 0.287
27.1204 7.729 0.284
27.1409 7.458 0.279
27.1613 7.740 0.284
27.1818 7.385 0.277
27.2022 7.271 0.275
27.2227 7.313 0.276
27.2432 8.010 0.289
27.2636 7.583 0.281
27.2841 7.635 0.282
27.3046 8.094 0.290
27.3250 7.260 0.275
27.3455 7.615 0.282
27.3659 7.135 0.273
27.3864 7.563 0.281
27.4069 7.615 0.282
27.4273 7.250 0.275
27.4478 7.490 0.279
27.4683 8.021 0.289
27.4887 7.594 0.281
27.5092 8.458 0.297
27.5296 8.469 0.297
27.5501 8.792 0.303
27.5706 8.208 0.292
27.5910 7.625 0.282
27.6115 8.260 0.293
27.6320 7.688 0.283
27.6524 7.552 0.280
27.6729 7.802 0.285
27.6933 8.021 0.289
27.7138 7.844 0.286
27.7343 6.760 0.265
27.7547 6.969 0.269
27.7752 7.417 0.278
27.7957 7.844 0.286
27.8161 7.375 0.277
27.8366 7.292 0.276
27.8570 7.563 0.281
27.8775 7.250 0.275
27.8980 7.229 0.274
27.9184 7.156 0.273
27.9389 7.958 0.288
27.9594 7.490 0.279
27.9798 7.938 0.288
28.0003 7.302 0.276
28.0208 7.083 0.272
28.0412 7.344 0.277
28.0617 7.219 0.274
28.0821 7.833 0.286
28.1026 7.281 0.275
28.1231 7.208 0.274
28.1435 7.042 0.271
28.1640 7.604 0.281
28.1845 6.896 0.268
28.2049 6.615 0.262
28.2254 7.344 0.277
28.2458 7.240 0.275
28.2663 7.542 0.280
28.2868 6.969 0.269
28.3072 6.885 0.268
28.3277 7.104 0.272
28.3482 6.896 0.268
28.3686 7.271 0.275
28.3891 6.844 0.267
28.4095 7.385 0.277
28.4300 7.031 0.271
28.4505 6.875 0.268
28.4709 7.250 0.275
28.4914 6.969 0.269
28.5119 7.490 0.279
28.5323 6.646 0.263
28.5528 6.938 0.269
28.5732 6.990 0.270
28.5937 6.708 0.264
28.6142 6.698 0.264
28.6346 6.594 0.262
28.6551 6.802 0.266
28.6756 6.792 0.266
28.6960 6.990 0.270
28.7165 6.531 0.261
28.7370 6.719 0.265
28.7574 6.583 0.262
28.7779 6.729 0.265
28.7983 6.708 0.264
28.8188 6.969 0.269
28.8393 6.865 0.267
28.8597 6.656 0.263
28.8802 6.531 0.261
28.9007 6.802 0.266
28.9211 6.677 0.264
28.9416 7.094 0.272
28.9620 6.698 0.264
28.9825 6.500 0.260
29.0030 6.865 0.267
29.0234 6.385 0.258
29.0439 6.396 0.258
29.0644 6.604 0.262
29.0848 7.125 0.272
29.1053 6.500 0.260
29.1257 6.365 0.257
29.1462 6.229 0.255
29.1667 6.813 0.266
29.1871 6.729 0.265
29.2076 6.542 0.261
29.2281 6.177 0.254
29.2485 6.563 0.261
29.2690 6.208 0.254
29.2894 6.833 0.267
29.3099 6.792 0.266
29.3304 6.615 0.262
29.3508 6.271 0.256
29.3713 6.823 0.267
29.3918 6.427 0.259
29.4122 6.698 0.264
29.4327 6.896 0.268
29.4531 6.708 0.264
29.4736 6.969 0.269
29.4941 6.906 0.268
29.5145 6.948 0.269
29.5350 6.708 0.264
29.5555 6.625 0.263
29.5759 6.885 0.268
29.5964 7.115 0.272
29.6169 7.229 0.274
29.6373 7.354 0.277
29.6578 6.833 0.267
29.6782 6.656 0.263
29.6987 7.052 0.271
29.7192 6.646 0.263
29.7396 6.635 0.263
29.7601 6.906 0.268
29.7806 6.250 0.255
29.8010 6.656 0.263
29.8215 6.042 0.251
29.8419 6.521 0.261
29.8624 6.583 0.262
29.8829 5.750 0.245
29.9033 6.094 0.252
29.9238 6.115 0.252
29.9443 6.802 0.266
29.9647 6.292 0.256
29.9852 6.500 0.260
30.0056 6.479 0.260
30.0261 6.823 0.267
30.0466 6.344 0.257
30.0670 6.667 0.264
30.0875 6.240 0.255
30.1080 6.271 0.256
30.1284 6.167 0.253
30.1489 6.302 0.256
30.1693 6.542 0.261
30.1898 6.469 0.260
30.2103 6.563 0.261
30.2307 5.979 0.250
30.2512 6.563 0.261
30.2717 5.990 0.250
30.2921 6.646 0.263
30.3126 7.052 0.271
30.3330 6.146 0.253
30.3535 6.344 0.257
30.3740 6.021 0.250
30.3944 6.146 0.253
30.4149 6.292 0.256
30.4354 6.302 0.256
30.4558 6.188 0.254
30.4763 5.917 0.248
30.4968 6.260 0.255
30.5172 5.958 0.249
30.5377 6.302 0.256
30.5581 5.948 0.249
30.5786 6.635 0.263
30.5991 6.958 0.269
30.6195 6.052 0.251
30.6400 6.604 0.262
30.6605 6.115 0.252
30.6809 6.479 0.260
30.7014 5.958 0.249
30.7218 6.854 0.267
30.7423 6.875 0.268
30.7628 6.292 0.256
30.7832 6.844 0.267
30.8037 7.073 0.271
30.8242 7.010 0.270
30.8446 7.313 0.276
30.8651 7.125 0.272
30.8855 7.219 0.274
30.9060 7.823 0.285
30.9265 8.365 0.295
30.9469 9.302 0.311
30.9674 10.073 0.324
30.9879 12.521 0.361
31.0083 14.844 0.393
31.0288 20.729 0.465
31.0492 29.052 0.550
31.0697 38.542 0.634
31.0902 39.448 0.641
31.1106 32.969 0.586
31.1311 28.104 0.541
31.1516 28.365 0.544
31.1720 25.260 0.513
31.1925 20.073 0.457
31.2129 16.031 0.409
31.2334 12.604 0.362
31.2539 11.500 0.346
31.2743 11.365 0.344
31.2948 10.271 0.327
31.3153 9.344 0.312
31.3357 9.104 0.308
31.3562 8.469 0.297
31.3767 8.385 0.296
31.3971 7.573 0.281
31.4176 7.583 0.281
31.4380 7.292 0.276
31.4585 7.052 0.271
31.4790 7.302 0.276
31.4994 7.104 0.272
31.5199 6.771 0.266
31.5404 6.865 0.267
31.5608 7.427 0.278
31.5813 7.198 0.274
31.6017 6.375 0.258
31.6222 6.792 0.266
31.6427 6.740 0.265
31.6631 7.135 0.273
31.6836 6.417 0.259
31.7041 7.146 0.273
31.7245 6.948 0.269
31.7450 6.698 0.264
31.7654 7.083 0.272
31.7859 6.510 0.260
31.8064 7.146 0.273
31.8268 7.677 0.283
31.8473 6.958 0.269
31.8678 7.323 0.276
31.8882 7.438 0.278
31.9087 8.063 0.290
31.9291 7.656 0.282
31.9496 7.813 0.285
31.9701 7.708 0.283
31.9905 8.365 0.295
32.0110 7.854 0.286
32.0315 8.208 0.292
32.0519 7.750 0.284
32.0724 8.135 0.291
32.0928 8.115 0.291
32.1133 8.646 0.300
32.1338 8.656 0.300
32.1542 8.781 0.302
32.1747 9.042 0.307
32.1952 9.542 0.315
32.2156 10.000 0.323
32.2361 10.302 0.328
32.2566 11.375 0.344
32.2770 11.979 0.353
32.2975 12.052 0.354
32.3179 10.417 0.329
32.3384 10.396 0.329
32.3589 10.385 0.329
32.3793 9.677 0.317
32.3998 9.490 0.314
32.4203 9.188 0.309
32.4407 8.302 0.294
32.4612 8.156 0.291
32.4816 8.396 0.296
32.5021 9.375 0.313
32.5226 8.510 0.298
32.5430 8.458 0.297
32.5635 8.938 0.305
32.5840 10.021 0.323
32.6044 9.531 0.315
32.6249 11.760 0.350
32.6453 13.094 0.369
32.6658 15.135 0.397
32.6863 15.875 0.407
32.7067 16.594 0.416
32.7272 15.813 0.406
32.7477 14.865 0.393
32.7681 14.010 0.382
32.7886 12.573 0.362
32.8090 11.781 0.350
32.8295 10.813 0.336
32.8500 9.688 0.318
32.8704 9.385 0.313
32.8909 9.010 0.306
32.9114 8.510 0.298
32.9318 8.417 0.296
32.9523 8.500 0.298
32.9728 7.917 0.287
32.9932 7.719 0.284
33.0137 8.417 0.296
33.0341 7.990 0.288
33.0546 8.125 0.291
33.0751 7.729 0.284
33.0955 7.448 0.279
33.1160 7.719 0.284
33.1365 7.125 0.272
33.1569 7.656 0.282
33.1774 7.563 0.281
33.1978 7.448 0.279
33.2183 8.146 0.291
33.2388 7.552 0.280
33.2592 6.813 0.266
33.2797 6.865 0.267
33.3002 7.208 0.274
33.3206 7.000 0.270
33.3411 6.740 0.265
33.3615 7.208 0.274
33.3820 6.781 0.266
33.4025 6.604 0.262
33.4229 6.885 0.268
33.4434 7.156 0.273
33.4639 7.010 0.270
33.4843 6.979 0.270
33.5048 7.177 0.273
33.5252 6.500 0.260
33.5457 6.813 0.266
33.5662 6.281 0.256
33.5866 6.656 0.263
33.6071 6.271 0.256
33.6276 6.385 0.258
33.6480 6.594 0.262
33.6685 6.292 0.256
33.6889 6.365 0.257
33.7094 6.656 0.263
33.7299 6.188 0.254
33.7503 6.479 0.260
33.7708 6.865 0.267
33.7913 5.958 0.249
33.8117 6.073 0.252
33.8322 6.510 0.260
33.8527 6.250 0.255
33.8731 6.302 0.256
33.8936 5.823 0.246
33.9140 5.906 0.248
33.9345 6.021 0.250
33.9550 5.927 0.248
33.9754 6.469 0.260
33.9959 6.198 0.254
34.0164 5.646 0.243
34.0368 6.281 0.256
34.0573 6.854 0.267
34.0777 6.500 0.260
34.0982 6.646 0.263
34.1187 6.656 0.263
34.1391 6.302 0.256
34.1596 6.281 0.256
34.1801 6.646 0.263
34.2005 5.917 0.248
34.2210 6.948 0.269
34.2414 6.719 0.265
34.2619 7.094 0.272
34.2824 6.917 0.268
34.3028 7.156 0.273
34.3233 6.917 0.268
34.3438 7.615 0.282
34.3642 7.115 0.272
34.3847 6.938 0.269
34.4051 6.500 0.260
34.4256 6.521 0.261
34.4461 6.281 0.256
34.4665 6.271 0.256
34.4870 6.563 0.261
34.5075 6.688 0.264
34.5279 5.677 0.243
34.5484 5.844 0.247
34.5688 6.292 0.256
34.5893 5.875 0.247
34.6098 6.240 0.255
34.6302 6.063 0.251
34.6507 6.073 0.252
34.6712 6.021 0.250
34.6916 6.010 0.250
34.7121 5.781 0.245
34.7326 6.042 0.251
34.7530 5.698 0.244
34.7735 5.729 0.244
34.7939 5.990 0.250
34.8144 5.969 0.249
34.8349 5.708 0.244
34.8553 5.979 0.250
34.8758 6.354 0.257
34.8963 6.406 0.258
34.9167 6.490 0.260
34.9372 6.542 0.261
34.9576 6.458 0.259
34.9781 7.094 0.272
34.9986 8.323 0.294
35.0190 8.458 0.297
35.0395 9.115 0.308
35.0600 8.750 0.302
35.0804 9.115 0.308
35.1009 8.500 0.298
35.1213 7.896 0.287
35.1418 7.719 0.284
35.1623 6.990 0.270
35.1827 7.188 0.274
35.2032 6.948 0.269
35.2237 6.740 0.265
35.2441 6.531 0.261
35.2646 6.125 0.253
35.2850 5.885 0.248
35.3055 6.198 0.254
35.3260 5.563 0.241
35.3464 6.042 0.251
35.3669 6.688 0.264
35.3874 6.177 0.254
35.4078 5.698 0.244
35.4283 6.083 0.252
35.4487 5.698 0.244
35.4692 6.323 0.257
35.4897 6.552 0.261
35.5101 6.448 0.259
35.5306 6.698 0.264
35.5511 6.271 0.256
35.5715 6.677 0.264
35.5920 6.427 0.259
35.6125 6.229 0.255
35.6329 6.688 0.264
35.6534 6.552 0.261
35.6738 6.323 0.257
35.6943 6.573 0.262
35.7148 6.500 0.260
35.7352 6.594 0.262
35.7557 6.521 0.261
35.7762 6.854 0.267
35.7966 6.250 0.255
35.8171 6.604 0.262
35.8375 6.604 0.262
35.8580 6.844 0.267
35.8785 6.906 0.268
35.8989 6.688 0.264
35.9194 7.042 0.271
35.9399 7.750 0.284
35.9603 7.531 0.280
35.9808 8.042 0.289
36.0012 8.313 0.294
36.0217 8.771 0.302
36.0422 8.604 0.299
36.0626 10.063 0.324
36.0831 9.604 0.316
36.1036 10.104 0.324
36.1240 10.719 0.334
36.1445 10.417 0.329
36.1649 10.302 0.328
36.1854 11.083 0.340
36.2059 10.688 0.334
36.2263 10.063 0.324
36.2468 10.115 0.325
36.2673 10.729 0.334
36.2877 10.479 0.330
36.3082 10.052 0.324
36.3286 9.896 0.321
36.3491 10.167 0.325
36.3696 10.365 0.329
36.3900 10.510 0.331
36.4105 11.479 0.346
36.4310 11.083 0.340
36.4514 11.938 0.353
36.4719 11.365 0.344
36.4924 11.438 0.345
36.5128 11.938 0.353
36.5333 13.365 0.373
36.5537 13.500 0.375
36.5742 14.240 0.385
36.5947 15.500 0.402
36.6151 18.677 0.441
36.6356 21.229 0.470
36.6561 22.885 0.488
36.6765 25.198 0.512
36.6970 23.458 0.494
36.7174 20.823 0.466
36.7379 19.469 0.450
36.7584 20.010 0.457
36.7788 19.333 0.449
36.7993 17.292 0.424
36.8198 16.010 0.408
36.8402 15.135 0.397
36.8607 14.427 0.388
36.8811 13.719 0.378
36.9016 13.750 0.378
36.9221 13.427 0.374
36.9425 13.698 0.378
36.9630 14.656 0.391
36.9835 13.781 0.379
37.0039 13.823 0.379
37.0244 15.010 0.395
37.0448 15.177 0.398
37.0653 16.010 0.408
37.0858 18.146 0.435
37.1062 19.281 0.448
37.1267 21.594 0.474
37.1472 25.177 0.512
37.1676 28.031 0.540
37.1881 28.802 0.548
37.2085 27.573 0.536
37.2290 25.740 0.518
37.2495 23.844 0.498
37.2699 23.135 0.491
37.2904 21.656 0.475
37.3109 19.438 0.450
37.3313 18.073 0.434
37.3518 16.042 0.409
37.3723 14.906 0.394
37.3927 14.104 0.383
37.4132 13.552 0.376
37.4336 13.510 0.375
37.4541 12.323 0.358
37.4746 11.813 0.351
37.4950 12.125 0.355
37.5155 11.542 0.347
37.5360 11.323 0.343
37.5564 11.042 0.339
37.5769 11.094 0.340
37.5973 10.781 0.335
37.6178 10.531 0.331
37.6383 10.469 0.330
37.6587 9.948 0.322
37.6792 10.365 0.329
37.6997 10.698 0.334
37.7201 10.167 0.325
37.7406 10.719 0.334
37.7610 10.333 0.328
37.7815 10.385 0.329
37.8020 11.042 0.339
37.8224 10.417 0.329
37.8429 10.094 0.324
37.8634 10.656 0.333
37.8838 10.500 0.331
37.9043 10.927 0.337
37.9247 10.573 0.332
37.9452 10.646 0.333
37.9657 11.406 0.345
37.9861 10.573 0.332
38.0066 11.302 0.343
38.0271 11.365 0.344
38.0475 11.583 0.347
38.0680 11.844 0.351
38.0885 11.948 0.353
38.1089 12.583 0.362
38.1294 13.448 0.374
38.1498 14.083 0.383
38.1703 13.958 0.381
38.1908 14.438 0.388
38.2112 14.177 0.384
38.2317 15.052 0.396
38.2522 13.885 0.380
38.2726 14.010 0.382
38.2931 13.708 0.378
38.3135 12.917 0.367
38.3340 12.156 0.356
38.3545 12.323 0.358
38.3749 11.823 0.351
38.3954 12.094 0.355
38.4159 11.917 0.352
38.4363 12.448 0.360
38.4568 12.146 0.356
38.4772 12.729 0.364
38.4977 13.021 0.368
38.5182 14.010 0.382
38.5386 13.823 0.379
38.5591 13.750 0.378
38.5796 12.844 0.366
38.6000 12.448 0.360
38.6205 12.208 0.357
38.6409 12.219 0.357
38.6614 10.938 0.338
38.6819 10.365 0.329
38.7023 9.854 0.320
38.7228 9.573 0.316
38.7433 8.917 0.305
38.7637 9.083 0.308
38.7842 8.479 0.297
38.8046 8.573 0.299
38.8251 8.688 0.301
38.8456 8.208 0.292
38.8660 8.188 0.292
38.8865 8.646 0.300
38.9070 8.583 0.299
38.9274 8.010 0.289
38.9479 7.906 0.287
38.9684 8.469 0.297
38.9888 8.375 0.295
39.0093 8.198 0.292
39.0297 7.573 0.281
39.0502 8.031 0.289
39.0707 8.385 0.296
39.0911 7.375 0.277
39.1116 8.156 0.291
39.1321 7.708 0.283
39.1525 7.885 0.287
39.1730 7.792 0.285
39.1934 7.875 0.286
39.2139 7.594 0.281
39.2344 7.646 0.282
39.2548 7.104 0.272
39.2753 7.667 0.283
39.2958 7.500 0.280
39.3162 7.323 0.276
39.3367 7.354 0.277
39.3571 7.573 0.281
39.3776 7.740 0.284
39.3981 7.708 0.283
39.4185 7.646 0.282
39.4390 7.969 0.288
39.4595 7.250 0.275
39.4799 7.823 0.285
39.5004 7.667 0.283
39.5208 7.479 0.279
39.5413 7.396 0.278
39.5618 7.323 0.276
39.5822 7.427 0.278
39.6027 8.083 0.290
39.6232 7.344 0.277
39.6436 7.677 0.283
39.6641 8.250 0.293
39.6845 7.521 0.280
39.7050 7.917 0.287
39.7255 7.865 0.286
39.7459 8.104 0.291
39.7664 8.333 0.295
39.7869 8.313 0.294
39.8073 8.813 0.303
39.8278 9.104 0.308
39.8483 10.146 0.325
39.8687 10.385 0.329
39.8892 10.802 0.335
39.9096 10.344 0.328
39.9301 9.969 0.322
39.9506 10.000 0.323
39.9710 9.740 0.319
39.9915 9.604 0.316
40.0120 9.260 0.311
40.0324 9.417 0.313
40.0529 8.708 0.301
40.0733 8.750 0.302
40.0938 7.990 0.288
40.1143 8.573 0.299
40.1347 7.896 0.287
40.1552 8.385 0.296
40.1757 8.875 0.304
40.1961 8.667 0.300
40.2166 8.188 0.292
40.2370 8.240 0.293
40.2575 8.229 0.293
40.2780 8.333 0.295
40.2984 8.469 0.297
40.3189 7.729 0.284
40.3394 8.385 0.296
40.3598 8.917 0.305
40.3803 8.792 0.303
40.4007 9.458 0.314
40.4212 9.760 0.319
40.4417 10.281 0.327
40.4621 10.354 0.328
40.4826 10.240 0.327
40.5031 10.229 0.326
40.5235 10.135 0.325
40.5440 9.542 0.315
40.5644 9.938 0.322
40.5849 10.167 0.325
40.6054 9.771 0.319
40.6258 9.198 0.310
40.6463 8.281 0.294
40.6668 8.458 0.297
40.6872 8.292 0.294
40.7077 8.354 0.295
40.7282 8.458 0.297
40.7486 8.938 0.305
40.7691 8.458 0.297
40.7895 8.656 0.300
40.8100 8.427 0.296
40.8305 8.854 0.304
40.8509 9.927 0.322
40.8714 10.260 0.327
40.8919 9.969 0.322
40.9123 9.656 0.317
40.9328 8.875 0.304
40.9532 9.219 0.310
40.9737 9.750 0.319
40.9942 9.354 0.312
41.0146 9.250 0.310
41.0351 8.969 0.306
41.0556 8.615 0.300
41.0760 8.906 0.305
41.0965 8.406 0.296
41.1169 8.677 0.301
41.1374 8.719 0.301
41.1579 9.208 0.310
41.1783 8.646 0.300
41.1988 9.010 0.306
41.2193 9.729 0.318
41.2397 10.823 0.336
41.2602 11.698 0.349
41.2806 12.917 0.367
41.3011 14.052 0.383
41.3216 13.438 0.374
41.3420 13.094 0.369
41.3625 12.344 0.359
41.3830 11.385 0.344
41.4034 11.000 0.339
41.4239 11.292 0.343
41.4443 10.542 0.331
41.4648 9.813 0.320
41.4853 9.146 0.309
41.5057 9.021 0.307
41.5262 8.063 0.290
41.5467 7.917 0.287
41.5671 7.729 0.284
41.5876 7.677 0.283
41.6081 7.833 0.286
41.6285 7.635 0.282
41.6490 7.771 0.285
41.6694 7.729 0.284
41.6899 7.031 0.271
41.7104 7.250 0.275
41.7308 7.740 0.284
41.7513 7.115 0.272
41.7718 7.385 0.277
41.7922 6.552 0.261
41.8127 7.698 0.283
41.8331 7.250 0.275
41.8536 6.698 0.264
41.8741 7.833 0.286
41.8945 7.271 0.275
41.9150 7.750 0.284
41.9355 7.938 0.288
41.9559 8.302 0.294
41.9764 8.146 0.291
41.9968 7.813 0.285
42.0173 7.510 0.280
42.0378 7.458 0.279
42.0582 7.490 0.279
42.0787 7.292 0.276
42.0992 7.563 0.281
42.1196 7.198 0.274
42.1401 6.938 0.269
42.1605 6.896 0.268
42.1810 7.250 0.275
42.2015 7.219 0.274
42.2219 6.833 0.267
42.2424 6.146 0.253
42.2629 6.198 0.254
42.2833 6.406 0.258
42.3038 6.740 0.265
42.3243 6.250 0.255
42.3447 6.469 0.260
42.3652 6.635 0.263
42.3856 6.406 0.258
42.4061 6.594 0.262
42.4266 6.594 0.262
42.4470 6.708 0.264
42.4675 7.052 0.271
42.4880 6.958 0.269
42.5084 6.656 0.263
42.5289 7.354 0.277
42.5493 6.948 0.269
42.5698 7.354 0.277
42.5903 7.219 0.274
42.6107 7.167 0.273
42.6312 7.646 0.282
42.6517 7.010 0.270
42.6721 7.115 0.272
42.6926 7.167 0.273
42.7130 6.729 0.265
42.7335 6.740 0.265
42.7540 6.969 0.269
42.7744 7.083 0.272
42.7949 7.073 0.271
42.8154 6.719 0.265
42.8358 6.979 0.270
42.8563 6.979 0.270
42.8767 7.135 0.273
42.8972 6.927 0.269
42.9177 6.854 0.267
42.9381 6.677 0.264
42.9586 7.313 0.276
42.9791 6.813 0.266
42.9995 6.271 0.256
43.0200 7.354 0.277
43.0404 6.792 0.266
43.0609 6.875 0.268
43.0814 6.969 0.269
43.1018 6.604 0.262
43.1223 7.438 0.278
43.1428 7.156 0.273
43.1632 7.354 0.277
43.1837 7.635 0.282
43.2042 7.917 0.287
43.2246 7.510 0.280
43.2451 8.469 0.297
43.2655 8.250 0.293
43.2860 8.563 0.299
43.3065 9.156 0.309
43.3269 9.469 0.314
43.3474 9.302 0.311
43.3679 9.000 0.306
43.3883 10.010 0.323
43.4088 9.156 0.309
43.4292 10.000 0.323
43.4497 9.479 0.314
43.4702 9.583 0.316
43.4906 9.854 0.320
43.5111 9.573 0.316
43.5316 10.125 0.325
43.5520 9.510 0.315
43.5725 10.729 0.334
43.5929 10.365 0.329
43.6134 10.958 0.338
43.6339 10.740 0.334
43.6543 11.688 0.349
43.6748 13.073 0.369
43.6953 13.896 0.380
43.7157 15.271 0.399
43.7362 16.167 0.410
43.7566 17.750 0.430
43.7771 18.552 0.440
43.7976 18.021 0.433
43.8180 16.865 0.419
43.8385 16.198 0.411
43.8590 14.854 0.393
43.8794 14.625 0.390
43.8999 14.073 0.383
43.9203 12.844 0.366
43.9408 12.406 0.359
43.9613 10.979 0.338
43.9817 10.854 0.336
44.0022 10.042 0.323
44.0227 9.219 0.310
44.0431 9.438 0.314
44.0636 8.646 0.300
44.0841 9.208 0.310
44.1045 8.198 0.292
44.1250 8.323 0.294
44.1454 8.438 0.296
44.1659 8.365 0.295
44.1864 7.750 0.284
44.2068 8.052 0.290
44.2273 8.042 0.289
44.2478 7.563 0.281
44.2682 7.510 0.280
44.2887 7.771 0.285
44.3091 7.375 0.277
44.3296 6.969 0.269
44.3501 7.375 0.277
44.3705 7.417 0.278
44.3910 7.375 0.277
44.4115 7.313 0.276
44.4319 7.469 0.279
44.4524 7.458 0.279
44.4728 7.188 0.274
44.4933 6.990 0.270
44.5138 7.188 0.274
44.5342 7.115 0.272
44.5547 7.188 0.274
44.5752 7.000 0.270
44.5956 6.896 0.268
44.6161 7.500 0.280
44.6365 7.073 0.271
44.6570 7.073 0.271
44.6775 7.167 0.273
44.6979 7.010 0.270
44.7184 7.438 0.278
44.7389 6.490 0.260
44.7593 6.958 0.269
44.7798 7.073 0.271
44.8002 6.917 0.268
44.8207 6.573 0.262
44.8412 6.792 0.266
44.8616 6.594 0.262
44.8821 6.823 0.267
44.9026 6.583 0.262
44.9230 6.875 0.268
44.9435 6.635 0.263
44.9640 6.385 0.258
44.9844 6.719 0.265
45.0049 6.344 0.257
45.0253 6.448 0.259
45.0458 7.021 0.270
45.0663 6.792 0.266
45.0867 6.594 0.262
45.1072 7.271 0.275
45.1277 6.573 0.262
45.1481 7.052 0.271
45.1686 6.698 0.264
45.1890 7.167 0.273
45.2095 7.302 0.276
45.2300 7.813 0.285
45.2504 7.990 0.288
45.2709 7.417 0.278
45.2914 8.052 0.290
45.3118 8.604 0.299
45.3323 9.073 0.307
45.3527 9.865 0.321
45.3732 9.438 0.314
45.3937 8.813 0.303
45.4141 8.802 0.303
45.4346 8.750 0.302
45.4551 8.333 0.295
45.4755 8.333 0.295
45.4960 8.615 0.300
45.5164 8.427 0.296
45.5369 8.000 0.289
45.5574 7.552 0.280
45.5778 7.448 0.279
45.5983 7.146 0.273
45.6188 6.948 0.269
45.6392 6.917 0.268
45.6597 6.656 0.263
45.6801 6.688 0.264
45.7006 6.281 0.256
45.7211 6.417 0.259
45.7415 6.969 0.269
45.7620 6.281 0.256
45.7825 6.302 0.256
45.8029 6.667 0.264
45.8234 6.500 0.260
45.8439 6.281 0.256
45.8643 6.615 0.262
45.8848 6.083 0.252
45.9052 6.021 0.250
45.9257 6.802 0.266
45.9462 6.594 0.262
45.9666 5.583 0.241
45.9871 6.083 0.252
46.0076 6.344 0.257
46.0280 5.885 0.248
46.0485 6.302 0.256
46.0689 6.031 0.251
46.0894 6.323 0.257
46.1099 6.208 0.254
46.1303 6.313 0.256
46.1508 5.979 0.250
46.1713 5.875 0.247
46.1917 6.104 0.252
46.2122 6.198 0.254
46.2326 5.646 0.243
46.2531 5.656 0.243
46.2736 6.260 0.255
46.2940 6.146 0.253
46.3145 5.990 0.250
46.3350 6.021 0.250
46.3554 6.094 0.252
46.3759 5.906 0.248
46.3963 6.302 0.256
46.4168 5.833 0.247
46.4373 5.344 0.236
46.4577 5.615 0.242
46.4782 5.698 0.244
46.4987 5.823 0.246
46.5191 5.760 0.245
46.5396 5.625 0.242
46.5601 5.948 0.249
46.5805 6.042 0.251
46.6010 5.781 0.245
46.6214 6.042 0.251
46.6419 6.115 0.252
46.6624 6.094 0.252
46.6828 6.208 0.254
46.7033 6.281 0.256
46.7238 6.458 0.259
46.7442 6.385 0.258
46.7647 6.240 0.255
46.7851 6.604 0.262
46.8056 6.188 0.254
46.8261 6.094 0.252
46.8465 6.250 0.255
46.8670 6.458 0.259
46.8875 5.677 0.243
46.9079 5.667 0.243
46.9284 5.854 0.247
46.9488 5.917 0.248
46.9693 6.042 0.251
46.9898 5.750 0.245
47.0102 5.781 0.245
47.0307 5.604 0.242
47.0512 5.552 0.240
47.0716 5.906 0.248
47.0921 5.906 0.248
47.1125 5.823 0.246
47.1330 6.063 0.251
47.1535 5.906 0.248
47.1739 5.635 0.242
47.1944 5.781 0.245
47.2149 5.958 0.249
47.2353 5.719 0.244
47.2558 5.813 0.246
47.2762 6.260 0.255
47.2967 5.500 0.239
47.3172 6.167 0.253
47.3376 5.844 0.247
47.3581 6.083 0.252
47.3786 5.938 0.249
47.3990 6.219 0.255
47.4195 6.188 0.254
47.4400 6.344 0.257
47.4604 6.177 0.254
47.4809 6.000 0.250
47.5013 6.271 0.256
47.5218 5.979 0.250
47.5423 6.219 0.255
47.5627 6.073 0.252
47.5832 6.042 0.251
47.6037 6.427 0.259
47.6241 6.604 0.262
47.6446 6.458 0.259
47.6650 6.677 0.264
47.6855 7.219 0.274
47.7060 7.333 0.276
47.7264 7.656 0.282
47.7469 7.885 0.287
47.7674 8.021 0.289
47.7878 8.552 0.298
47.8083 8.594 0.299
47.8287 9.313 0.311
47.8492 8.583 0.299
47.8697 8.365 0.295
47.8901 8.021 0.289
47.9106 8.229 0.293
47.9311 7.146 0.273
47.9515 7.385 0.277
47.9720 7.063 0.271
47.9924 6.625 0.263
48.0129 6.323 0.257
48.0334 6.375 0.258
48.0538 6.417 0.259
48.0743 5.906 0.248
48.0948 5.844 0.247
48.1152 6.052 0.251
48.1357 5.844 0.247
48.1561 5.563 0.241
48.1766 5.688 0.243
48.1971 6.177 0.254
48.2175 6.125 0.253
48.2380 5.948 0.249
48.2585 5.719 0.244
48.2789 6.115 0.252
48.2994 6.083 0.252
48.3199 6.000 0.250
48.3403 6.281 0.256
48.3608 6.646 0.263
48.3812 6.865 0.267
48.4017 6.844 0.267
48.4222 6.885 0.268
48.4426 6.927 0.269
48.4631 6.427 0.259
48.4836 6.458 0.259
48.5040 6.688 0.264
48.5245 6.479 0.260
48.5449 6.844 0.267
48.5654 6.292 0.256
48.5859 6.146 0.253
48.6063 6.448 0.259
48.6268 6.104 0.252
48.6473 6.313 0.256
48.6677 5.646 0.243
48.6882 6.292 0.256
48.7086 6.052 0.251
48.7291 6.552 0.261
48.7496 6.542 0.261
48.7700 7.219 0.274
48.7905 6.583 0.262
48.8110 6.885 0.268
48.8314 6.938 0.269
48.8519 6.552 0.261
48.8723 6.333 0.257
48.8928 6.104 0.252
48.9133 6.594 0.262
48.9337 6.729 0.265
48.9542 6.229 0.255
48.9747 5.813 0.246
48.9951 5.719 0.244
49.0156 5.635 0.242
49.0360 5.552 0.240
49.0565 5.698 0.244
49.0770 5.875 0.247
49.0974 5.833 0.247
49.1179 5.917 0.248
49.1384 6.333 0.257
49.1588 6.344 0.257
49.1793 6.021 0.250
49.1998 6.115 0.252
49.2202 5.865 0.247
49.2407 6.260 0.255
49.2611 5.948 0.249
49.2816 6.167 0.253
49.3021 6.042 0.251
49.3225 6.198 0.254
49.3430 5.479 0.239
49.3635 5.885 0.248
49.3839 6.125 0.253
49.4044 6.208 0.254
49.4248 6.385 0.258
49.4453 6.344 0.257
49.4658 6.302 0.256
49.4862 6.250 0.255
49.5067 5.896 0.248
49.5272 6.031 0.251
49.5476 5.771 0.245
49.5681 6.490 0.260
49.5885 5.917 0.248
49.6090 6.427 0.259
49.6295 5.927 0.248
49.6499 6.198 0.254
49.6704 6.302 0.256
49.6909 6.083 0.252
49.7113 6.656 0.263
49.7318 6.615 0.262
49.7522 6.813 0.266
49.7727 6.406 0.258
49.7932 7.469 0.279
49.8136 7.594 0.281
49.8341 7.406 0.278
49.8546 8.031 0.289
49.8750 9.063 0.307
49.8955 8.927 0.305
49.9159 9.302 0.311
49.9364 10.542 0.331
49.9569 11.646 0.348
49.9773 12.802 0.365
49.9978 12.552 0.362
50.0183 12.604 0.362
50.0387 11.792 0.350
50.0592 11.271 0.343
50.0797 10.969 0.338
50.1001 10.396 0.329
50.1206 10.573 0.332
50.1410 10.188 0.326
50.1615 9.813 0.320
50.1820 9.104 0.308
50.2024 9.240 0.310
50.2229 8.458 0.297
50.2434 8.552 0.298
50.2638 8.625 0.300
50.2843 8.708 0.301
50.3047 8.302 0.294
50.3252 7.875 0.286
50.3457 7.521 0.280
50.3661 7.406 0.278
50.3866 7.167 0.273
50.4071 7.031 0.271
50.4275 6.865 0.267
50.4480 6.260 0.255
50.4684 6.438 0.259
50.4889 6.281 0.256
50.5094 6.104 0.252
50.5298 6.135 0.253
50.5503 5.521 0.240
50.5708 5.500 0.239
50.5912 5.552 0.240
50.6117 5.760 0.245
50.6321 5.979 0.250
50.6526 5.844 0.247
50.6731 5.281 0.235
50.6935 5.573 0.241
50.7140 5.719 0.244
50.7345 5.625 0.242
50.7549 5.490 0.239
50.7754 5.625 0.242
50.7959 5.625 0.242
50.8163 5.656 0.243
50.8368 5.333 0.236
50.8572 5.854 0.247
50.8777 5.385 0.237
50.8982 5.208 0.233
50.9186 5.385 0.237
50.9391 5.719 0.244
50.9596 5.354 0.236
50.9800 5.615 0.242
51.0005 5.135 0.231
51.0209 5.708 0.244
51.0414 5.688 0.243
51.0619 5.865 0.247
51.0823 5.396 0.237
51.1028 5.458 0.238
51.1233 5.688 0.243
51.1437 5.917 0.248
51.1642 5.844 0.247
51.1846 6.156 0.253
51.2051 6.646 0.263
51.2256 6.615 0.262
51.2460 6.260 0.255
51.2665 6.448 0.259
51.2870 6.292 0.256
51.3074 6.406 0.258
51.3279 6.250 0.255
51.3483 6.313 0.256
51.3688 5.906 0.248
51.3893 6.844 0.267
51.4097 6.521 0.261
51.4302 6.021 0.250
51.4507 5.917 0.248
51.4711 5.688 0.243
51.4916 6.219 0.255
51.5120 5.854 0.247
51.5325 6.104 0.252
51.5530 5.979 0.250
51.5734 5.792 0.246
51.5939 5.635 0.242
51.6144 6.000 0.250
51.6348 5.646 0.243
51.6553 5.427 0.238
51.6758 5.375 0.237
51.6962 5.958 0.249
51.7167 6.000 0.250
51.7371 6.208 0.254
51.7576 5.750 0.245
51.7781 6.021 0.250
51.7985 6.083 0.252
51.8190 5.917 0.248
51.8395 6.031 0.251
51.8599 6.448 0.259
51.8804 6.479 0.260
51.9008 6.333 0.257
51.9213 6.563 0.261
51.9418 6.188 0.254
51.9622 6.083 0.252
51.9827 6.271 0.256
52.0032 6.510 0.260
52.0236 6.521 0.261
52.0441 5.740 0.245
52.0645 5.927 0.248
52.0850 5.917 0.248
52.1055 5.417 0.238
52.1259 5.292 0.235
52.1464 4.927 0.227
52.1669 5.063 0.230
52.1873 5.271 0.234
52.2078 5.490 0.239
52.2282 5.135 0.231
52.2487 5.135 0.231
52.2692 5.365 0.236
52.2896 4.792 0.223
52.3101 4.865 0.225
52.3306 5.271 0.234
52.3510 5.292 0.235
52.3715 5.104 0.231
52.3919 5.042 0.229
52.4124 5.490 0.239
52.4329 4.823 0.224
52.4533 5.375 0.237
52.4738 5.552 0.240
52.4943 4.885 0.226
52.5147 5.417 0.238
52.5352 5.469 0.239
52.5557 5.583 0.241
52.5761 5.615 0.242
52.5966 5.542 0.240
52.6170 5.063 0.230
52.6375 5.104 0.231
52.6580 4.896 0.226
52.6784 4.750 0.222
52.6989 5.146 0.232
52.7194 4.740 0.222
52.7398 4.906 0.226
52.7603 4.927 0.227
52.7807 4.906 0.226
52.8012 4.729 0.222
52.8217 4.750 0.222
52.8421 4.729 0.222
52.8626 4.823 0.224
52.8831 4.927 0.227
52.9035 4.521 0.217
52.9240 4.490 0.216
52.9444 4.542 0.218
52.9649 4.510 0.217
52.9854 5.167 0.232
53.0058 4.844 0.225
53.0263 5.156 0.232
53.0468 4.625 0.219
53.0672 4.667 0.220
53.0877 4.500 0.217
53.1081 4.698 0.221
53.1286 4.406 0.214
53.1491 4.604 0.219
53.1695 4.938 0.227
53.1900 4.990 0.228
53.2105 4.625 0.219
53.2309 4.615 0.219
53.2514 5.010 0.228
53.2718 4.146 0.208
53.2923 5.458 0.238
53.3128 4.979 0.228
53.3332 4.479 0.216
53.3537 4.344 0.213
53.3742 4.531 0.217
53.3946 5.198 0.233
53.4151 4.667 0.220
53.4356 4.760 0.223
53.4560 4.698 0.221
53.4765 4.375 0.213
53.4969 4.323 0.212
53.5174 4.635 0.220
53.5379 4.292 0.211
53.5583 4.396 0.214
53.5788 4.354 0.213
53.5993 4.417 0.214
53.6197 4.469 0.216
53.6402 4.490 0.216
53.6606 4.458 0.216
53.6811 4.625 0.219
53.7016 4.281 0.211
53.7220 4.396 0.214
53.7425 4.667 0.220
53.7630 4.802 0.224
53.7834 4.115 0.207
53.8039 4.240 0.210
53.8243 4.823 0.224
53.8448 4.760 0.223
53.8653 4.771 0.223
53.8857 4.458 0.216
53.9062 4.792 0.223
53.9267 4.615 0.219
53.9471 4.823 0.224
53.9676 4.448 0.215
53.9880 4.281 0.211
54.0085 4.333 0.212
54.0290 4.656 0.220
54.0494 4.510 0.217
54.0699 5.031 0.229
54.0904 4.615 0.219
54.1108 4.698 0.221
54.1313 4.438 0.215
54.1517 4.292 0.211
54.1722 4.854 0.225
54.1927 5.063 0.230
54.2131 5.073 0.230
54.2336 5.156 0.232
54.2541 4.719 0.222
54.2745 4.990 0.228
54.2950 5.094 0.230
54.3155 4.823 0.224
54.3359 5.021 0.229
54.3564 5.250 0.234
54.3768 4.844 0.225
54.3973 4.938 0.227
54.4178 4.958 0.227
54.4382 4.969 0.228
54.4587 4.771 0.223
54.4792 4.521 0.217
54.4996 4.333 0.212
54.5201 4.865 0.225
54.5405 4.625 0.219
54.5610 4.510 0.217
54.5815 4.354 0.213
54.6019 4.479 0.216
54.6224 5.156 0.232
54.6429 5.333 0.236
54.6633 4.958 0.227
54.6838 4.979 0.228
54.7042 4.417 0.214
54.7247 4.021 0.205
54.7452 4.448 0.215
54.7656 4.875 0.225
54.7861 4.490 0.216
54.8066 4.521 0.217
54.8270 4.813 0.224
54.8475 4.667 0.220
54.8679 4.719 0.222
54.8884 4.500 0.217
54.9089 4.698 0.221
54.9293 4.750 0.222
54.9498 4.813 0.224
54.9703 4.510 0.217
54.9907 4.563 0.218
55.0112 4.792 0.223
55.0317 5.000 0.228
55.0521 5.302 0.235
55.0726 5.156 0.232
55.0930 5.906 0.248
55.1135 6.010 0.250
55.1340 6.354 0.257
55.1544 7.375 0.277
55.1749 8.292 0.294
55.1954 9.750 0.319
55.2158 11.656 0.348
55.2363 13.219 0.371
55.2567 13.521 0.375
55.2772 13.594 0.376
55.2977 11.604 0.348
55.3181 11.615 0.348
55.3386 9.833 0.320
55.3591 10.865 0.336
55.3795 10.583 0.332
55.4000 11.042 0.339
55.4204 10.417 0.329
55.4409 8.979 0.306
55.4614 8.375 0.295
55.4818 7.552 0.280
55.5023 7.271 0.275
55.5228 7.063 0.271
55.5432 6.531 0.261
55.5637 5.740 0.245
55.5841 6.229 0.255
55.6046 5.917 0.248
55.6251 6.042 0.251
55.6455 5.438 0.238
55.6660 5.302 0.235
55.6865 5.417 0.238
55.7069 5.646 0.243
55.7274 5.406 0.237
55.7478 5.490 0.239
55.7683 5.833 0.247
55.7888 5.760 0.245
55.8092 5.885 0.248
55.8297 5.458 0.238
55.8502 5.885 0.248
55.8706 6.271 0.256
55.8911 5.854 0.247
55.9116 5.760 0.245
55.9320 6.229 0.255
55.9525 5.844 0.247
55.9729 5.875 0.247
55.9934 6.208 0.254
56.0139 6.125 0.253
56.0343 6.781 0.266
56.0548 6.042 0.251
56.0753 6.073 0.252
56.0957 6.427 0.259
56.1162 6.104 0.252
56.1366 6.125 0.253
56.1571 6.604 0.262
56.1776 6.844 0.267
56.1980 7.188 0.274
56.2185 7.469 0.279
56.2390 8.073 0.290
56.2594 8.031 0.289
56.2799 8.542 0.298
56.3003 8.594 0.299
56.3208 7.479 0.279
56.3413 7.135 0.273
56.3617 6.667 0.264
56.3822 6.813 0.266
56.4027 6.917 0.268
56.4231 6.927 0.269
56.4436 7.427 0.278
56.4640 6.625 0.263
56.4845 6.250 0.255
56.5050 5.448 0.238
56.5254 5.063 0.230
56.5459 4.854 0.225
56.5664 5.104 0.231
56.5868 4.990 0.228
56.6073 4.583 0.219
56.6277 4.500 0.217
56.6482 4.604 0.219
56.6687 4.344 0.213
56.6891 4.833 0.224
56.7096 4.292 0.211
56.7301 4.698 0.221
56.7505 4.688 0.221
56.7710 4.604 0.219
56.7915 4.854 0.225
56.8119 4.427 0.215
56.8324 4.333 0.212
56.8528 4.448 0.215
56.8733 4.677 0.221
56.8938 4.688 0.221
56.9142 4.396 0.214
56.9347 4.208 0.209
56.9552 4.260 0.211
56.9756 4.542 0.218
56.9961 4.271 0.211
57.0165 4.219 0.210
57.0370 4.125 0.207
57.0575 4.240 0.210
57.0779 4.010 0.204
57.0984 3.823 0.200
57.1189 4.417 0.214
57.1393 4.281 0.211
57.1598 4.406 0.214
57.1802 4.375 0.213
57.2007 4.396 0.214
57.2212 4.531 0.217
57.2416 4.000 0.204
57.2621 4.656 0.220
57.2826 4.500 0.217
57.3030 4.323 0.212
57.3235 4.042 0.205
57.3439 4.729 0.222
57.3644 4.313 0.212
57.3849 4.906 0.226
57.4053 4.104 0.207
57.4258 4.531 0.217
57.4463 4.677 0.221
57.4667 4.667 0.220
57.4872 4.875 0.225
57.5076 4.438 0.215
57.5281 4.385 0.214
57.5486 4.552 0.218
57.5690 4.292 0.211
57.5895 4.125 0.207
57.6100 4.406 0.214
57.6304 4.104 0.207
57.6509 4.490 0.216
57.6714 4.396 0.214
57.6918 4.375 0.213
57.7123 4.781 0.223
57.7327 4.604 0.219
57.7532 4.250 0.210
57.7737 4.375 0.213
57.7941 4.458 0.216
57.8146 4.604 0.219
57.8351 4.885 0.226
57.8555 5.125 0.231
57.8760 4.729 0.222
57.8964 4.583 0.219
57.9169 4.938 0.227
57.9374 5.250 0.234
57.9578 5.010 0.228
57.9783 5.583 0.241
57.9988 5.521 0.240
58.0192 5.646 0.243
58.0397 5.917 0.248
58.0601 5.521 0.240
58.0806 6.135 0.253
58.1011 7.260 0.275
58.1215 6.667 0.264
58.1420 6.927 0.269
58.1625 6.865 0.267
58.1829 6.427 0.259
58.2034 6.427 0.259
58.2238 6.271 0.256
58.2443 6.698 0.264
58.2648 6.260 0.255
58.2852 5.990 0.250
58.3057 5.698 0.244
58.3262 5.375 0.237
58.3466 5.406 0.237
58.3671 5.396 0.237
58.3875 4.979 0.228
58.4080 4.813 0.224
58.4285 5.292 0.235
58.4489 4.729 0.222
58.4694 4.833 0.224
58.4899 4.844 0.225
58.5103 4.750 0.222
58.5308 4.625 0.219
58.5513 4.469 0.216
58.5717 4.427 0.215
58.5922 4.771 0.223
58.6126 4.646 0.220
58.6331 4.615 0.219
58.6536 4.438 0.215
58.6740 4.365 0.213
58.6945 4.229 0.210
58.7150 4.510 0.217
58.7354 4.604 0.219
58.7559 4.198 0.209
58.7763 4.188 0.209
58.7968 4.229 0.210
58.8173 4.344 0.213
58.8377 4.563 0.218
58.8582 4.521 0.217
58.8787 4.448 0.215
58.8991 4.323 0.212
58.9196 4.427 0.215
58.9400 4.063 0.206
58.9605 3.979 0.204
58.9810 4.323 0.212
59.0014 4.177 0.209
59.0219 4.313 0.212
59.0424 4.292 0.211
59.0628 3.771 0.198
59.0833 4.281 0.211
59.1037 4.333 0.212
59.1242 4.729 0.222
59.1447 4.885 0.226
59.1651 4.740 0.222
59.1856 4.708 0.221
59.2061 5.135 0.231
59.2265 5.000 0.228
59.2470 5.229 0.233
59.2675 5.302 0.235
59.2879 5.917 0.248
59.3084 5.948 0.249
59.3288 6.000 0.250
59.3493 5.938 0.249
59.3698 5.344 0.236
59.3902 4.906 0.226
59.4107 4.823 0.224
59.4312 4.958 0.227
59.4516 4.917 0.226
59.4721 5.354 0.236
59.4925 4.719 0.222
59.5130 4.646 0.220
59.5335 4.594 0.219
59.5539 4.667 0.220
59.5744 4.542 0.218
59.5949 4.229 0.210
59.6153 4.385 0.214
59.6358 4.198 0.209
59.6562 3.948 0.203
59.6767 3.844 0.200
59.6972 3.469 0.190
59.7176 3.813 0.199
59.7381 4.042 0.205
59.7586 3.948 0.203
59.7790 4.208 0.209
59.7995 4.458 0.216
59.8199 3.990 0.204
59.8404 4.323 0.212
59.8609 4.354 0.213
59.8813 4.292 0.211
59.9018 4.344 0.213
59.9223 4.490 0.216
59.9427 4.333 0.212
59.9632 5.188 0.232
59.9836 5.156 0.232
60.0041 5.688 0.243
60.0246 5.823 0.246
60.0450 5.708 0.244
60.0655 5.906 0.248
60.0860 5.698 0.244
60.1064 5.000 0.228
60.1269 5.052 0.229
60.1474 4.594 0.219
60.1678 4.833 0.224
60.1883 4.948 0.227
60.2087 4.781 0.223
60.2292 4.917 0.226
60.2497 4.656 0.220
60.2701 4.583 0.219
60.2906 4.479 0.216
60.3111 4.333 0.212
60.3315 4.229 0.210
60.3520 4.271 0.211
60.3724 4.229 0.210
60.3929 3.833 0.200
60.4134 3.813 0.199
60.4338 3.906 0.202
60.4543 3.458 0.190
60.4748 3.760 0.198
60.4952 3.698 0.196
60.5157 3.615 0.194
60.5361 3.583 0.193
60.5566 3.594 0.193
60.5771 3.552 0.192
60.5975 3.615 0.194
60.6180 3.677 0.196
60.6385 3.583 0.193
60.6589 3.583 0.193
60.6794 3.875 0.201
60.6998 3.635 0.195
60.7203 3.615 0.194
60.7408 3.417 0.189
60.7612 3.469 0.190
60.7817 3.740 0.197
60.8022 3.479 0.190
60.8226 3.552 0.192
60.8431 3.344 0.187
60.8635 3.292 0.185
60.8840 3.573 0.193
60.9045 3.219 0.183
60.9249 3.573 0.193
60.9454 3.458 0.190
60.9659 3.510 0.191
60.9863 3.802 0.199
61.0068 3.688 0.196
61.0273 3.635 0.195
61.0477 3.792 0.199
61.0682 3.427 0.189
61.0886 3.792 0.199
61.1091 3.719 0.197
61.1296 3.594 0.193
61.1500 3.729 0.197
61.1705 3.406 0.188
61.1910 3.292 0.185
61.2114 3.833 0.200
61.2319 3.656 0.195
61.2523 3.125 0.180
61.2728 3.750 0.198
61.2933 3.458 0.190
61.3137 3.927 0.202
61.3342 3.552 0.192
61.3547 3.438 0.189
61.3751 3.521 0.192
61.3956 3.469 0.190
61.4160 3.760 0.198
61.4365 3.667 0.195
61.4570 3.510 0.191
61.4774 3.885 0.201
61.4979 3.688 0.196
61.5184 3.771 0.198
61.5388 3.625 0.194
61.5593 3.583 0.193
61.5797 3.365 0.187
61.6002 3.354 0.187
61.6207 3.719 0.197
61.6411 3.917 0.202
61.6616 3.896 0.201
61.6821 3.792 0.199
61.7025 3.500 0.191
61.7230 3.469 0.190
61.7434 3.323 0.186
61.7639 3.219 0.183
61.7844 3.500 0.191
61.8048 3.573 0.193
61.8253 3.604 0.194
61.8458 3.990 0.204
61.8662 3.917 0.202
61.8867 3.188 0.182
61.9072 3.375 0.188
61.9276 3.385 0.188
61.9481 3.531 0.192
61.9685 3.563 0.193
61.9890 3.583 0.193
62.0095 3.979 0.204
62.0299 3.500 0.191
62.0504 3.604 0.194
62.0709 3.583 0.193
62.0913 3.802 0.199
62.1118 3.281 0.185
62.1322 3.771 0.198
62.1527 3.594 0.193
62.1732 3.760 0.198
62.1936 4.073 0.206
62.2141 3.646 0.195
62.2346 4.219 0.210
62.2550 4.354 0.213
62.2755 4.010 0.204
62.2959 4.219 0.210
62.3164 4.208 0.209
62.3369 4.729 0.222
62.3573 4.365 0.213
62.3778 4.250 0.210
62.3983 3.969 0.203
62.4187 4.000 0.204
62.4392 4.156 0.208
62.4596 3.521 0.192
62.4801 4.240 0.210
62.5006 3.813 0.199
62.5210 3.427 0.189
62.5415 3.615 0.194
62.5620 3.604 0.194
62.5824 3.479 0.190
62.6029 3.729 0.197
62.6233 3.594 0.193
62.6438 3.302 0.185
62.6643 3.729 0.197
62.6847 3.646 0.195
62.7052 3.542 0.192
62.7257 3.646 0.195
62.7461 3.396 0.188
62.7666 3.177 0.182
62.7871 3.375 0.188
62.8075 3.479 0.190
62.8280 3.438 0.189
62.8484 3.583 0.193
62.8689 3.479 0.190
62.8894 3.385 0.188
62.9098 3.458 0.190
62.9303 3.323 0.186
62.9508 3.281 0.185
62.9712 3.281 0.185
62.9917 3.344 0.187
63.0121 3.385 0.188
63.0326 3.604 0.194
63.0531 3.500 0.191
63.0735 3.615 0.194
63.0940 3.385 0.188
63.1145 3.365 0.187
63.1349 3.573 0.193
63.1554 3.385 0.188
63.1758 3.313 0.186
63.1963 3.354 0.187
63.2168 3.427 0.189
63.2372 3.146 0.181
63.2577 3.552 0.192
63.2782 3.406 0.188
63.2986 3.177 0.182
63.3191 3.740 0.197
63.3395 3.875 0.201
63.3600 3.521 0.192
63.3805 3.448 0.190
63.4009 3.594 0.193
63.4214 3.854 0.200
63.4419 3.792 0.199
63.4623 3.729 0.197
63.4828 3.510 0.191
63.5033 3.781 0.198
63.5237 4.115 0.207
63.5442 3.833 0.200
63.5646 3.604 0.194
63.5851 3.698 0.196
63.6056 4.083 0.206
63.6260 4.000 0.204
63.6465 3.552 0.192
63.6670 4.010 0.204
63.6874 4.271 0.211
63.7079 4.625 0.219
63.7283 4.292 0.211
63.7488 3.990 0.204
63.7693 4.531 0.217
63.7897 4.333 0.212
63.8102 4.427 0.215
63.8307 4.406 0.214
63.8511 3.948 0.203
63.8716 4.323 0.212
63.8920 4.438 0.215
63.9125 4.208 0.209
63.9330 4.010 0.204
63.9534 4.344 0.213
63.9739 4.281 0.211
63.9944 4.219 0.210
64.0148 4.427 0.215
64.0353 4.313 0.212
64.0557 4.323 0.212
64.0762 4.438 0.215
64.0967 4.885 0.226
64.1171 4.240 0.210
64.1376 4.313 0.212
64.1581 4.438 0.215
64.1785 4.771 0.223
64.1990 4.042 0.205
64.2194 4.354 0.213
64.2399 4.417 0.214
64.2604 4.021 0.205
64.2808 4.521 0.217
64.3013 4.406 0.214
64.3218 4.500 0.217
64.3422 4.260 0.211
64.3627 4.240 0.210
64.3832 4.406 0.214
64.4036 4.354 0.213
64.4241 4.031 0.205
64.4445 4.385 0.214
64.4650 4.448 0.215
64.4855 4.458 0.216
64.5059 4.302 0.212
64.5264 4.302 0.212
64.5469 4.708 0.221
64.5673 4.781 0.223
64.5878 4.615 0.219
64.6082 4.615 0.219
64.6287 4.969 0.228
64.6492 4.969 0.228
64.6696 5.948 0.249
64.6901 6.083 0.252
64.7106 6.292 0.256
64.7310 6.615 0.262
64.7515 6.385 0.258
64.7719 6.292 0.256
64.7924 5.771 0.245
64.8129 5.438 0.238
64.8333 5.135 0.231
64.8538 5.271 0.234
64.8743 5.104 0.231
64.8947 5.198 0.233
64.9152 5.729 0.244
64.9356 5.240 0.234
64.9561 4.865 0.225
64.9766 4.969 0.228
64.9970 4.240 0.210
65.0175 4.146 0.208
65.0380 4.750 0.222
65.0584 3.875 0.201
65.0789 4.271 0.211
65.0993 4.281 0.211
65.1198 4.177 0.209
65.1403 4.083 0.206
65.1607 4.240 0.210
65.1812 3.760 0.198
65.2017 3.854 0.200
65.2221 4.156 0.208
65.2426 3.479 0.190
65.2631 3.604 0.194
65.2835 3.781 0.198
65.3040 3.865 0.201
65.3244 3.615 0.194
65.3449 3.656 0.195
65.3654 3.646 0.195
65.3858 3.521 0.192
65.4063 3.698 0.196
65.4268 3.792 0.199
65.4472 3.583 0.193
65.4677 3.885 0.201
65.4881 4.010 0.204
65.5086 3.938 0.203
65.5291 3.948 0.203
65.5495 3.406 0.188
65.5700 4.250 0.210
65.5905 3.979 0.204
65.6109 3.906 0.202
65.6314 4.500 0.217
65.6518 4.615 0.219
65.6723 4.969 0.228
65.6928 4.729 0.222
65.7132 4.292 0.211
65.7337 4.167 0.208
65.7542 4.229 0.210
65.7746 3.948 0.203
65.7951 4.365 0.213
65.8155 4.344 0.213
65.8360 4.458 0.216
65.8565 4.073 0.206
65.8769 3.917 0.202
65.8974 4.135 0.208
65.9179 3.948 0.203
65.9383 4.333 0.212
65.9588 3.573 0.193
65.9792 3.542 0.192
65.9997 3.521 0.192
66.0202 3.802 0.199
66.0406 3.781 0.198
66.0611 3.479 0.190
66.0816 3.313 0.186
66.1020 3.656 0.195
66.1225 3.563 0.193
66.1430 3.438 0.189
66.1634 3.719 0.197
66.1839 3.406 0.188
66.2043 4.000 0.204
66.2248 3.354 0.187
66.2453 3.542 0.192
66.2657 3.344 0.187
66.2862 3.406 0.188
66.3067 3.594 0.193
66.3271 3.229 0.183
66.3476 3.667 0.195
66.3680 3.469 0.190
66.3885 3.333 0.186
66.4090 3.052 0.178
66.4294 3.260 0.184
66.4499 3.583 0.193
66.4704 3.479 0.190
66.4908 3.563 0.193
66.5113 3.646 0.195
66.5317 3.385 0.188
66.5522 3.365 0.187
66.5727 3.302 0.185
66.5931 3.344 0.187
66.6136 3.490 0.191
66.6341 3.615 0.194
66.6545 3.177 0.182
66.6750 3.240 0.184
66.6954 3.010 0.177
66.7159 3.354 0.187
66.7364 3.219 0.183
66.7568 3.250 0.184
66.7773 3.448 0.190
66.7978 3.833 0.200
66.8182 3.854 0.200
66.8387 3.302 0.185
66.8591 3.333 0.186
66.8796 3.500 0.191
66.9001 3.625 0.194
66.9205 3.729 0.197
66.9410 3.417 0.189
66.9615 3.865 0.201
66.9819 3.448 0.190
67.0024 3.281 0.185
67.0229 3.708 0.197
67.0433 3.698 0.196
67.0638 4.094 0.207
67.0842 3.573 0.193
67.1047 3.396 0.188
67.1252 4.042 0.205
67.1456 4.083 0.206
67.1661 4.646 0.220
67.1866 3.844 0.200
67.2070 4.563 0.218
67.2275 4.656 0.220
67.2479 4.604 0.219
67.2684 4.760 0.223
67.2889 5.323 0.235
67.3093 4.906 0.226
67.3298 5.563 0.241
67.3503 6.198 0.254
67.3707 6.417 0.259
67.3912 5.792 0.246
67.4116 5.854 0.247
67.4321 5.844 0.247
67.4526 5.594 0.241
67.4730 5.802 0.246
67.4935 5.854 0.247
67.5140 5.302 0.235
67.5344 5.656 0.243
67.5549 5.063 0.230
67.5753 5.135 0.231
67.5958 5.292 0.235
67.6163 5.219 0.233
67.6367 4.708 0.221
67.6572 4.844 0.225
67.6777 4.438 0.215
67.6981 4.469 0.216
67.7186 4.219 0.210
67.7391 4.135 0.208
67.7595 4.427 0.215
67.7800 4.135 0.208
67.8004 4.260 0.211
67.8209 3.854 0.200
67.8414 4.875 0.225
67.8618 3.781 0.198
67.8823 3.865 0.201
67.9028 3.958 0.203
67.9232 3.708 0.197
67.9437 3.844 0.200
67.9641 3.792 0.199
67.9846 3.740 0.197
68.0051 3.729 0.197
68.0255 4.208 0.209
68.0460 4.000 0.204
68.0665 3.552 0.192
68.0869 3.500 0.191
68.1074 3.792 0.199
68.1278 3.500 0.191
68.1483 3.427 0.189
68.1688 3.802 0.199
68.1892 3.896 0.201
68.2097 3.813 0.199
68.2302 3.531 0.192
68.2506 3.792 0.199
68.2711 3.406 0.188
68.2915 3.823 0.200
68.3120 3.833 0.200
68.3325 3.656 0.195
68.3529 3.990 0.204
68.3734 3.635 0.195
68.3939 4.292 0.211
68.4143 4.167 0.208
68.4348 4.177 0.209
68.4552 4.344 0.213
68.4757 4.333 0.212
68.4962 3.917 0.202
68.5166 3.917 0.202
68.5371 3.938 0.203
68.5576 3.917 0.202
68.5780 3.833 0.200
68.5985 3.938 0.203
68.6190 3.896 0.201
68.6394 4.010 0.204
68.6599 3.479 0.190
68.6803 3.740 0.197
68.7008 3.396 0.188
68.7213 3.885 0.201
68.7417 3.469 0.190
68.7622 3.635 0.195
68.7827 3.740 0.197
68.8031 3.385 0.188
68.8236 3.302 0.185
68.8440 3.667 0.195
68.8645 3.438 0.189
68.8850 3.698 0.196
68.9054 3.208 0.183
68.9259 3.073 0.179
68.9464 3.292 0.185
68.9668 3.177 0.182
68.9873 3.292 0.185
69.0077 3.615 0.194
69.0282 3.500 0.191
69.0487 3.365 0.187
69.0691 3.229 0.183
69.0896 3.656 0.195
69.1101 3.135 0.181
69.1305 3.573 0.193
69.1510 3.688 0.196
69.1714 4.115 0.207
69.1919 3.990 0.204
69.2124 3.958 0.203
69.2328 4.260 0.211
69.2533 4.240 0.210
69.2738 4.260 0.211
69.2942 4.271 0.211
69.3147 4.854 0.225
69.3351 4.594 0.219
69.3556 4.906 0.226
69.3761 4.625 0.219
69.3965 4.740 0.222
69.4170 4.208 0.209
69.4375 4.125 0.207
69.4579 4.188 0.209
69.4784 3.990 0.204
69.4989 4.021 0.205
69.5193 3.927 0.202
69.5398 3.844 0.200
69.5602 3.708 0.197
69.5807 3.906 0.202
69.6012 3.781 0.198
69.6216 3.698 0.196
69.6421 3.302 0.185
69.6626 3.552 0.192
69.6830 3.281 0.185
69.7035 3.042 0.178
69.7239 2.917 0.174
69.7444 3.292 0.185
69.7649 3.156 0.181
69.7853 3.031 0.178
69.8058 3.146 0.181
69.8263 3.021 0.177
69.8467 2.875 0.173
69.8672 3.198 0.183
69.8876 2.917 0.174
69.9081 2.906 0.174
69.9286 2.979 0.176
69.9490 3.396 0.188
69.9695 2.979 0.176
69.9900 3.000 0.177
70.0104 2.646 0.166
70.0309 3.000 0.177
70.0513 2.781 0.170
70.0718 3.115 0.180
70.0923 2.760 0.170
70.1127 2.906 0.174
70.1332 3.427 0.189
70.1537 3.198 0.183
70.1741 2.896 0.174
70.1946 3.052 0.178
70.2150 3.281 0.185
70.2355 2.990 0.176
70.2560 2.948 0.175
70.2764 2.948 0.175
70.2969 3.063 0.179
70.3174 3.115 0.180
70.3378 2.969 0.176
70.3583 2.844 0.172
70.3788 2.948 0.175
70.3992 2.792 0.171
70.4197 3.260 0.184
70.4401 2.594 0.164
70.4606 2.938 0.175
70.4811 3.135 0.181
70.5015 2.688 0.167
70.5220 2.677 0.167
70.5425 3.042 0.178
70.5629 3.104 0.180
70.5834 2.938 0.175
70.6038 2.979 0.176
70.6243 2.729 0.169
70.6448 2.802 0.171
70.6652 2.927 0.175
70.6857 2.708 0.168
70.7062 2.958 0.176
70.7266 2.969 0.176
70.7471 3.052 0.178
70.7675 3.010 0.177
70.7880 2.969 0.176
70.8085 2.688 0.167
70.8289 3.260 0.184
70.8494 2.885 0.173
70.8699 2.969 0.176
70.8903 2.865 0.173
70.9108 2.771 0.170
70.9312 2.771 0.170
70.9517 2.979 0.176
70.9722 2.698 0.168
70.9926 3.115 0.180
71.0131 2.896 0.174
71.0336 3.135 0.181
71.0540 2.958 0.176
71.0745 2.979 0.176
71.0949 2.792 0.171
71.1154 2.708 0.168
71.1359 2.604 0.165
71.1563 2.479 0.161
71.1768 2.813 0.171
71.1973 2.760 0.170
71.2177 2.875 0.173
71.2382 2.667 0.167
71.2587 3.042 0.178
71.2791 2.938 0.175
71.2996 3.000 0.177
71.3200 2.854 0.172
71.3405 2.854 0.172
71.3610 2.958 0.176
71.3814 2.865 0.173
71.4019 2.740 0.169
71.4224 2.885 0.173
71.4428 2.531 0.162
71.4633 2.521 0.162
71.4837 2.688 0.167
71.5042 2.833 0.172
71.5247 3.094 0.180
71.5451 2.531 0.162
71.5656 2.688 0.167
71.5861 2.875 0.173
71.6065 2.958 0.176
71.6270 2.854 0.172
71.6474 2.896 0.174
71.6679 2.552 0.163
71.6884 2.646 0.166
71.7088 2.844 0.172
71.7293 2.906 0.174
71.7498 2.833 0.172
71.7702 2.677 0.167
71.7907 2.594 0.164
71.8111 2.833 0.172
71.8316 2.646 0.166
71.8521 2.698 0.168
71.8725 2.531 0.162
71.8930 2.635 0.166
71.9135 3.021 0.177
71.9339 2.531 0.162
71.9544 2.604 0.165
71.9749 2.656 0.166
71.9953 2.729 0.169
72.0158 2.594 0.164
72.0362 2.583 0.164
72.0567 2.573 0.164
72.0772 2.677 0.167
72.0976 2.510 0.162
72.1181 2.656 0.166
72.1386 2.458 0.160
72.1590 2.448 0.160
72.1795 2.781 0.170
72.1999 2.885 0.173
72.2204 2.813 0.171
72.2409 2.813 0.171
72.2613 2.583 0.164
72.2818 2.688 0.167
72.3023 2.365 0.157
72.3227 2.771 0.170
72.3432 2.771 0.170
72.3636 2.604 0.165
72.3841 2.729 0.169
72.4046 2.667 0.167
72.4250 2.510 0.162
72.4455 2.635 0.166
72.4660 2.333 0.156
72.4864 2.531 0.162
72.5069 2.375 0.157
72.5273 2.385 0.158
72.5478 2.500 0.161
72.5683 2.427 0.159
72.5887 2.552 0.163
72.6092 2.479 0.161
72.6297 2.427 0.159
72.6501 2.448 0.160
72.6706 2.760 0.170
72.6910 2.708 0.168
72.7115 2.792 0.171
72.7320 2.500 0.161
72.7524 2.469 0.160
72.7729 2.510 0.162
72.7934 2.792 0.171
72.8138 2.802 0.171
72.8343 2.646 0.166
72.8548 2.438 0.159
72.8752 2.531 0.162
72.8957 2.677 0.167
72.9161 3.000 0.177
72.9366 2.896 0.174
72.9571 3.406 0.188
72.9775 3.052 0.178
72.9980 3.208 0.183
73.0185 3.094 0.180
73.0389 2.906 0.174
73.0594 2.979 0.176
73.0798 2.979 0.176
73.1003 2.615 0.165
73.1208 2.729 0.169
73.1412 2.844 0.172
73.1617 2.760 0.170
73.1822 2.802 0.171
73.2026 2.781 0.170
73.2231 2.844 0.172
73.2435 2.438 0.159
73.2640 2.656 0.166
73.2845 2.542 0.163
73.3049 2.458 0.160
73.3254 2.760 0.170
73.3459 2.646 0.166
73.3663 2.135 0.149
73.3868 2.552 0.163
73.4072 2.427 0.159
73.4277 2.781 0.170
73.4482 2.552 0.163
73.4686 2.531 0.162
73.4891 2.375 0.157
73.5096 2.490 0.161
73.5300 2.406 0.158
73.5505 2.240 0.153
73.5709 2.354 0.157
73.5914 2.604 0.165
73.6119 2.510 0.162
73.6323 2.406 0.158
73.6528 2.344 0.156
73.6733 2.375 0.157
73.6937 2.500 0.161
73.7142 2.760 0.170
73.7347 2.552 0.163
73.7551 2.552 0.163
73.7756 2.313 0.155
73.7960 2.458 0.160
73.8165 2.427 0.159
73.8370 2.469 0.160
73.8574 2.552 0.163
73.8779 2.448 0.160
73.8984 2.552 0.163
73.9188 2.667 0.167
73.9393 2.229 0.152
73.9597 2.573 0.164
73.9802 2.469 0.160
74.0007 2.802 0.171
74.0211 2.271 0.154
74.0416 2.563 0.163
74.0621 2.427 0.159
74.0825 2.510 0.162
74.1030 2.417 0.159
74.1234 2.521 0.162
74.1439 2.854 0.172
74.1644 2.604 0.165
74.1848 2.479 0.161
74.2053 2.719 0.168
74.2258 2.417 0.159
74.2462 2.802 0.171
74.2667 2.500 0.161
74.2871 2.698 0.168
74.3076 2.552 0.163
74.3281 2.542 0.163
74.3485 2.385 0.158
74.3690 2.792 0.171
74.3895 2.385 0.158
74.4099 2.563 0.163
74.4304 2.531 0.162
74.4508 2.375 0.157
74.4713 2.823 0.171
74.4918 2.490 0.161
74.5122 2.396 0.158
74.5327 2.302 0.155
74.5532 2.417 0.159
74.5736 2.490 0.161
74.5941 2.188 0.151
74.6146 2.344 0.156
74.6350 2.771 0.170
74.6555 2.490 0.161
74.6759 2.313 0.155
74.6964 2.542 0.163
74.7169 2.500 0.161
74.7373 2.083 0.147
74.7578 2.500 0.161
74.7783 2.500 0.161
74.7987 2.427 0.159
74.8192 2.208 0.152
74.8396 2.208 0.152
74.8601 2.427 0.159
74.8806 2.510 0.162
74.9010 2.292 0.155
74.9215 2.521 0.162
74.9420 2.563 0.163
74.9624 2.615 0.165
74.9829 2.302 0.155
75.0033 2.302 0.155
75.0238 2.417 0.159
75.0443 2.135 0.149
75.0647 2.427 0.159
75.0852 2.458 0.160
75.1057 2.500 0.161
75.1261 2.490 0.161
75.1466 2.625 0.165
75.1670 2.323 0.156
75.1875 2.448 0.160
75.2080 2.344 0.156
75.2284 2.563 0.163
75.2489 2.458 0.160
75.2694 2.219 0.152
75.2898 2.448 0.160
75.3103 2.552 0.163
75.3307 2.458 0.160
75.3512 2.552 0.163
75.3717 2.448 0.160
75.3921 2.594 0.164
75.4126 2.417 0.159
75.4331 2.406 0.158
75.4535 2.313 0.155
75.4740 2.510 0.162
75.4945 2.146 0.150
75.5149 2.594 0.164
75.5354 2.531 0.162
75.5558 2.365 0.157
75.5763 2.354 0.157
75.5968 2.365 0.157
75.6172 2.458 0.160
75.6377 2.396 0.158
75.6582 2.219 0.152
75.6786 2.677 0.167
75.6991 2.500 0.161
75.7195 2.625 0.165
75.7400 2.667 0.167
75.7605 2.479 0.161
75.7809 2.417 0.159
75.8014 2.375 0.157
75.8219 2.688 0.167
75.8423 2.760 0.170
75.8628 2.948 0.175
75.8832 2.531 0.162
75.9037 2.729 0.169
75.9242 2.802 0.171
75.9446 3.063 0.179
75.9651 2.948 0.175
75.9856 3.219 0.183
76.0060 3.594 0.193
76.0265 3.313 0.186
76.0469 3.656 0.195
76.0674 3.333 0.186
76.0879 3.146 0.181
76.1083 3.177 0.182
76.1288 3.323 0.186
76.1493 3.104 0.180
76.1697 3.073 0.179
76.1902 3.094 0.180
76.2106 3.531 0.192
76.2311 3.219 0.183
76.2516 3.031 0.178
76.2720 3.240 0.184
76.2925 3.302 0.185
76.3130 2.896 0.174
76.3334 2.719 0.168
76.3539 2.740 0.169
76.3744 2.677 0.167
76.3948 2.823 0.171
76.4153 2.885 0.173
76.4357 2.615 0.165
76.4562 2.510 0.162
76.4767 2.760 0.170
76.4971 2.573 0.164
76.5176 2.615 0.165
76.5381 2.542 0.163
76.5585 2.521 0.162
76.5790 2.760 0.170
76.5994 2.760 0.170
76.6199 2.438 0.159
76.6404 2.615 0.165
76.6608 2.458 0.160
76.6813 2.573 0.164
76.7018 2.385 0.158
76.7222 2.354 0.157
76.7427 2.302 0.155
76.7631 2.448 0.160
76.7836 2.573 0.164
76.8041 2.563 0.163
76.8245 2.563 0.163
76.8450 2.656 0.166
76.8655 2.302 0.155
76.8859 2.552 0.163
76.9064 2.396 0.158
76.9268 2.677 0.167
76.9473 2.438 0.159
76.9678 2.573 0.164
76.9882 2.271 0.154
77.0087 2.573 0.164
77.0292 2.385 0.158
77.0496 2.604 0.165
77.0701 2.385 0.158
77.0906 2.656 0.166
77.1110 2.396 0.158
77.1315 2.510 0.162
77.1519 2.542 0.163
77.1724 2.521 0.162
77.1929 2.573 0.164
77.2133 2.500 0.161
77.2338 2.677 0.167
77.2543 2.448 0.160
77.2747 2.438 0.159
77.2952 2.490 0.161
77.3156 2.458 0.160
77.3361 2.563 0.163
77.3566 2.313 0.155
77.3770 2.604 0.165
77.3975 2.667 0.167
77.4180 2.469 0.160
77.4384 2.531 0.162
77.4589 2.677 0.167
77.4793 2.479 0.161
77.4998 2.479 0.161
77.5203 2.552 0.163
77.5407 2.260 0.153
77.5612 2.635 0.166
77.5817 2.688 0.167
77.6021 2.583 0.164
77.6226 2.510 0.162
77.6430 2.677 0.167
77.6635 2.979 0.176
77.6840 2.885 0.173
77.7044 3.208 0.183
77.7249 3.271 0.185
77.7454 3.000 0.177
77.7658 2.958 0.176
77.7863 2.948 0.175
77.8067 2.833 0.172
77.8272 3.021 0.177
77.8477 3.042 0.178
77.8681 2.917 0.174
77.8886 3.042 0.178
77.9091 3.167 0.182
77.9295 3.125 0.180
77.9500 3.271 0.185
77.9705 2.885 0.173
77.9909 3.208 0.183
78.0114 2.906 0.174
78.0318 2.771 0.170
78.0523 2.688 0.167
78.0728 2.854 0.172
78.0932 2.969 0.176
78.1137 3.333 0.186
78.1342 3.302 0.185
78.1546 3.073 0.179
78.1751 2.448 0.160
78.1955 2.750 0.169
78.2160 2.823 0.171
78.2365 2.917 0.174
78.2569 2.604 0.165
78.2774 2.729 0.169
78.2979 2.615 0.165
78.3183 2.823 0.171
78.3388 2.948 0.175
78.3592 2.771 0.170
78.3797 2.510 0.162
78.4002 2.677 0.167
78.4206 2.531 0.162
78.4411 2.656 0.166
78.4616 2.552 0.163
78.4820 2.656 0.166
78.5025 2.844 0.172
78.5229 2.781 0.170
78.5434 2.792 0.171
78.5639 2.896 0.174
78.5843 2.750 0.169
78.6048 2.573 0.164
78.6253 2.979 0.176
78.6457 2.823 0.171
78.6662 3.063 0.179
78.6866 3.042 0.178
78.7071 2.625 0.165
78.7276 2.927 0.175
78.7480 2.688 0.167
78.7685 3.000 0.177
78.7890 2.958 0.176
78.8094 2.594 0.164
78.8299 2.708 0.168
78.8504 2.646 0.166
78.8708 2.750 0.169
78.8913 2.646 0.166
78.9117 2.740 0.169
78.9322 2.698 0.168
78.9527 2.635 0.166
78.9731 2.594 0.164
78.9936 2.948 0.175
79.0141 2.740 0.169
79.0345 2.552 0.163
79.0550 2.740 0.169
79.0754 2.594 0.164
79.0959 2.990 0.176
79.1164 2.594 0.164
79.1368 2.844 0.172
79.1573 2.625 0.165
79.1778 3.135 0.181
79.1982 2.698 0.168
79.2187 2.635 0.166
79.2391 2.708 0.168
79.2596 2.760 0.170
79.2801 2.948 0.175
79.3005 2.698 0.168
79.3210 3.042 0.178
79.3415 2.760 0.170
79.3619 2.625 0.165
79.3824 2.771 0.170
79.4028 2.646 0.166
79.4233 2.750 0.169
79.4438 2.760 0.170
79.4642 2.302 0.155
79.4847 2.542 0.163
79.5052 2.792 0.171
79.5256 2.646 0.166
79.5461 2.333 0.156
79.5665 2.667 0.167
79.5870 2.990 0.176
79.6075 3.156 0.181
79.6279 2.802 0.171
79.6484 2.708 0.168
79.6689 2.677 0.167
79.6893 2.771 0.170
79.7098 2.885 0.173
79.7303 2.854 0.172
79.7507 2.865 0.173
79.7712 3.021 0.177
79.7916 2.896 0.174
79.8121 2.771 0.170
79.8326 2.927 0.175
79.8530 2.906 0.174
79.8735 2.958 0.176
79.8940 2.854 0.172
79.9144 2.823 0.171
79.9349 2.729 0.169
79.9553 2.573 0.164
79.9758 2.802 0.171
79.9963 2.708 0.168
