'Id: "" Comment: "" Operator: "Lab Manager" Anode: "Cu" Scantype: "Locked Coupled" TimePerStep: "96" X: "0" Y: "0" Z: "0" 
5.0001 24.875 0.509
5.0206 25.344 0.514
5.0410 23.813 0.498
5.0615 24.333 0.503
5.0820 24.083 0.501
5.1024 24.948 0.510
5.1229 24.146 0.502
5.1433 24.198 0.502
5.1638 23.240 0.492
5.1843 23.083 0.490
5.2047 24.438 0.505
5.2252 23.521 0.495
5.2457 23.802 0.498
5.2661 23.688 0.497
5.2866 23.667 0.497
5.3070 23.635 0.496
5.3275 23.979 0.500
5.3480 24.177 0.502
5.3684 23.521 0.495
5.3889 22.677 0.486
5.4094 23.406 0.494
5.4298 23.094 0.490
5.4503 23.583 0.496
5.4707 22.917 0.489
5.4912 23.698 0.497
5.5117 22.802 0.487
5.5321 23.146 0.491
5.5526 23.917 0.499
5.5731 22.573 0.485
5.5935 22.417 0.483
5.6140 22.177 0.481
5.6344 23.406 0.494
5.6549 22.354 0.483
5.6754 22.177 0.481
5.6958 22.313 0.482
5.7163 21.146 0.469
5.7368 21.698 0.475
5.7572 22.135 0.480
5.7777 21.865 0.477
5.7981 22.052 0.479
5.8186 22.135 0.480
5.8391 21.958 0.478
5.8595 22.344 0.482
5.8800 21.302 0.471
5.9005 21.698 0.475
5.9209 21.406 0.472
5.9414 21.188 0.470
5.9619 21.021 0.468
5.9823 22.521 0.484
6.0028 21.573 0.474
6.0232 21.969 0.478
6.0437 21.385 0.472
6.0642 20.979 0.467
6.0846 21.302 0.471
6.1051 21.031 0.468
6.1256 21.552 0.474
6.1460 21.063 0.468
6.1665 21.583 0.474
6.1869 19.906 0.455
6.2074 20.896 0.467
6.2279 20.573 0.463
6.2483 21.427 0.472
6.2688 19.667 0.453
6.2893 20.750 0.465
6.3097 21.208 0.470
6.3302 19.969 0.456
6.3506 21.042 0.468
6.3711 20.823 0.466
6.3916 20.885 0.466
6.4120 20.656 0.464
6.4325 19.750 0.454
6.4530 19.854 0.455
6.4734 19.750 0.454
6.4939 20.740 0.465
6.5143 20.833 0.466
6.5348 20.865 0.466
6.5553 20.031 0.457
6.5757 19.969 0.456
6.5962 19.333 0.449
6.6167 19.750 0.454
6.6371 20.292 0.460
6.6576 19.594 0.452
6.6780 20.073 0.457
6.6985 19.521 0.451
6.7190 19.396 0.449
6.7394 20.021 0.457
6.7599 19.677 0.453
6.7804 19.875 0.455
6.8008 19.208 0.447
6.8213 19.365 0.449
6.8418 19.760 0.454
6.8622 19.146 0.447
6.8827 20.323 0.460
6.9031 19.073 0.446
6.9236 19.073 0.446
6.9441 18.479 0.439
6.9645 19.281 0.448
6.9850 19.052 0.445
7.0055 19.219 0.447
7.0259 19.583 0.452
7.0464 18.740 0.442
7.0668 19.365 0.449
7.0873 19.448 0.450
7.1078 19.219 0.447
7.1282 19.948 0.456
7.1487 18.740 0.442
7.1692 18.698 0.441
7.1896 19.042 0.445
7.2101 18.896 0.444
7.2305 19.573 0.452
7.2510 19.531 0.451
7.2715 19.865 0.455
7.2919 20.104 0.458
7.3124 19.240 0.448
7.3329 18.792 0.442
7.3533 19.615 0.452
7.3738 19.333 0.449
7.3942 19.677 0.453
7.4147 19.438 0.450
7.4352 19.563 0.451
7.4556 19.406 0.450
7.4761 19.333 0.449
7.4966 19.708 0.453
7.5170 19.406 0.450
7.5375 20.188 0.459
7.5580 19.958 0.456
7.5784 18.927 0.444
7.5989 19.146 0.447
7.6193 19.031 0.445
7.6398 18.823 0.443
7.6603 20.052 0.457
7.6807 19.229 0.448
7.7012 20.073 0.457
7.7217 18.990 0.445
7.7421 19.344 0.449
7.7626 18.708 0.441
7.7830 19.188 0.447
7.8035 19.802 0.454
7.8240 19.375 0.449
7.8444 18.490 0.439
7.8649 19.594 0.452
7.8854 19.573 0.452
7.9058 19.167 0.447
7.9263 19.760 0.454
7.9467 19.552 0.451
7.9672 19.375 0.449
7.9877 20.177 0.458
8.0081 19.625 0.452
8.0286 20.844 0.466
8.0491 20.229 0.459
8.0695 19.229 0.448
8.0900 19.865 0.455
8.1104 19.500 0.451
8.1309 20.052 0.457
8.1514 20.000 0.456
8.1718 19.698 0.453
8.1923 20.573 0.463
8.2128 20.979 0.467
8.2332 20.406 0.461
8.2537 19.490 0.451
8.2741 19.885 0.455
8.2946 19.781 0.454
8.3151 19.552 0.451
8.3355 19.542 0.451
8.3560 19.260 0.448
8.3765 20.323 0.460
8.3969 19.438 0.450
8.4174 19.135 0.446
8.4379 20.521 0.462
8.4583 19.083 0.446
8.4788 20.167 0.458
8.4992 20.427 0.461
8.5197 19.875 0.455
8.5402 19.552 0.451
8.5606 20.490 0.462
8.5811 19.135 0.446
8.6016 19.938 0.456
8.6220 20.115 0.458
8.6425 19.521 0.451
8.6629 19.813 0.454
8.6834 21.135 0.469
8.7039 19.750 0.454
8.7243 20.729 0.465
8.7448 20.729 0.465
8.7653 21.292 0.471
8.7857 20.906 0.467
8.8062 22.177 0.481
8.8266 21.760 0.476
8.8471 23.333 0.493
8.8676 23.135 0.491
8.8880 23.542 0.495
8.9085 24.823 0.508
8.9290 25.469 0.515
8.9494 27.333 0.534
8.9699 31.208 0.570
8.9903 33.177 0.588
9.0108 39.156 0.639
9.0313 46.844 0.699
9.0517 56.698 0.769
9.0722 62.875 0.809
9.0927 60.479 0.794
9.1131 47.646 0.704
9.1336 36.479 0.616
9.1540 28.792 0.548
9.1745 25.063 0.511
9.1950 23.844 0.498
9.2154 24.073 0.501
9.2359 24.344 0.504
9.2564 22.396 0.483
9.2768 23.760 0.497
9.2973 24.271 0.503
9.3178 23.271 0.492
9.3382 23.208 0.492
9.3587 23.604 0.496
9.3791 23.271 0.492
9.3996 24.115 0.501
9.4201 23.615 0.496
9.4405 24.479 0.505
9.4610 24.583 0.506
9.4815 26.188 0.522
9.5019 25.885 0.519
9.5224 27.177 0.532
9.5428 28.792 0.548
9.5633 30.271 0.562
9.5838 31.708 0.575
9.6042 33.354 0.589
9.6247 35.354 0.607
9.6452 38.375 0.632
9.6656 41.406 0.657
9.6861 45.406 0.688
9.7065 50.156 0.723
9.7270 56.042 0.764
9.7475 63.531 0.814
9.7679 75.552 0.887
9.7884 92.240 0.980
9.8089 114.313 1.091
9.8293 150.083 1.250
9.8498 197.177 1.433
9.8702 256.406 1.634
9.8907 319.125 1.823
9.9112 350.417 1.911
9.9316 325.510 1.841
9.9521 271.021 1.680
9.9726 221.677 1.520
9.9930 187.990 1.399
10.0135 164.875 1.311
10.0339 148.031 1.242
10.0544 134.083 1.182
10.0749 122.719 1.131
10.0953 116.823 1.103
10.1158 109.750 1.069
10.1363 101.094 1.026
10.1567 95.625 0.998
10.1772 92.104 0.979
10.1977 86.979 0.952
10.2181 83.990 0.935
10.2386 79.031 0.907
10.2590 79.625 0.911
10.2795 73.573 0.875
10.3000 70.302 0.856
10.3204 70.000 0.854
10.3409 67.469 0.838
10.3614 64.979 0.823
10.3818 64.229 0.818
10.4023 61.073 0.798
10.4227 61.802 0.802
10.4432 59.906 0.790
10.4637 58.365 0.780
10.4841 59.323 0.786
10.5046 57.292 0.773
10.5251 57.677 0.775
10.5455 55.156 0.758
10.5660 54.219 0.752
10.5864 54.927 0.756
10.6069 54.219 0.752
10.6274 53.208 0.744
10.6478 53.083 0.744
10.6683 50.792 0.727
10.6888 52.448 0.739
10.7092 51.646 0.733
10.7297 52.740 0.741
10.7501 49.615 0.719
10.7706 49.531 0.718
10.7911 48.719 0.712
10.8115 46.844 0.699
10.8320 45.427 0.688
10.8525 43.479 0.673
10.8729 40.604 0.650
10.8934 38.750 0.635
10.9138 37.698 0.627
10.9343 35.063 0.604
10.9548 34.354 0.598
10.9752 33.083 0.587
10.9957 31.521 0.573
11.0162 30.823 0.567
11.0366 30.740 0.566
11.0571 29.125 0.551
11.0776 29.104 0.551
11.0980 28.313 0.543
11.1185 27.958 0.540
11.1389 27.542 0.536
11.1594 25.438 0.515
11.1799 25.948 0.520
11.2003 25.667 0.517
11.2208 25.646 0.517
11.2413 25.135 0.512
11.2617 24.333 0.503
11.2822 23.698 0.497
11.3026 23.667 0.497
11.3231 23.010 0.490
11.3436 23.802 0.498
11.3640 21.875 0.477
11.3845 22.125 0.480
11.4050 21.677 0.475
11.4254 21.594 0.474
11.4459 21.365 0.472
11.4663 21.625 0.475
11.4868 20.573 0.463
11.5073 21.760 0.476
11.5277 20.708 0.464
11.5482 19.990 0.456
11.5687 19.438 0.450
11.5891 20.135 0.458
11.6096 20.031 0.457
11.6300 20.104 0.458
11.6505 19.490 0.451
11.6710 19.385 0.449
11.6914 18.875 0.443
11.7119 18.115 0.434
11.7324 18.667 0.441
11.7528 18.646 0.441
11.7733 17.552 0.428
11.7938 17.573 0.428
11.8142 18.021 0.433
11.8347 18.583 0.440
11.8551 18.281 0.436
11.8756 17.500 0.427
11.8961 17.094 0.422
11.9165 17.198 0.423
11.9370 16.792 0.418
11.9575 17.063 0.422
11.9779 16.948 0.420
11.9984 16.375 0.413
12.0188 17.365 0.425
12.0393 16.646 0.416
12.0598 17.010 0.421
12.0802 17.250 0.424
12.1007 16.031 0.409
12.1212 16.854 0.419
12.1416 16.844 0.419
12.1621 15.750 0.405
12.1825 16.552 0.415
12.2030 15.927 0.407
12.2235 16.167 0.410
12.2439 15.635 0.404
12.2644 15.677 0.404
12.2849 15.813 0.406
12.3053 16.000 0.408
12.3258 16.375 0.413
12.3462 15.281 0.399
12.3667 15.240 0.398
12.3872 14.896 0.394
12.4076 14.990 0.395
12.4281 14.521 0.389
12.4486 14.802 0.393
12.4690 14.906 0.394
12.4895 15.438 0.401
12.5099 15.042 0.396
12.5304 14.844 0.393
12.5509 14.260 0.385
12.5713 15.115 0.397
12.5918 14.927 0.394
12.6123 14.833 0.393
12.6327 14.219 0.385
12.6532 13.906 0.381
12.6737 14.000 0.382
12.6941 14.177 0.384
12.7146 14.771 0.392
12.7350 14.479 0.388
12.7555 14.427 0.388
12.7760 14.010 0.382
12.7964 14.250 0.385
12.8169 14.052 0.383
12.8374 14.240 0.385
12.8578 14.094 0.383
12.8783 14.073 0.383
12.8987 13.875 0.380
12.9192 13.531 0.375
12.9397 13.750 0.378
12.9601 12.958 0.367
12.9806 13.563 0.376
13.0011 13.969 0.381
13.0215 13.146 0.370
13.0420 13.740 0.378
13.0624 13.896 0.380
13.0829 13.260 0.372
13.1034 13.740 0.378
13.1238 13.708 0.378
13.1443 13.948 0.381
13.1648 13.229 0.371
13.1852 13.625 0.377
13.2057 12.990 0.368
13.2261 13.469 0.375
13.2466 13.156 0.370
13.2671 12.635 0.363
13.2875 13.073 0.369
13.3080 12.865 0.366
13.3285 12.708 0.364
13.3489 12.781 0.365
13.3694 13.146 0.370
13.3898 12.875 0.366
13.4103 12.781 0.365
13.4308 12.906 0.367
13.4512 13.354 0.373
13.4717 13.104 0.369
13.4922 13.042 0.369
13.5126 12.438 0.360
13.5331 12.208 0.357
13.5536 12.083 0.355
13.5740 13.021 0.368
13.5945 12.979 0.368
13.6149 11.521 0.346
13.6354 12.583 0.362
13.6559 11.740 0.350
13.6763 12.552 0.362
13.6968 12.323 0.358
13.7173 12.365 0.359
13.7377 12.417 0.360
13.7582 12.698 0.364
13.7786 12.115 0.355
13.7991 11.917 0.352
13.8196 12.260 0.357
13.8400 12.052 0.354
13.8605 11.948 0.353
13.8810 11.625 0.348
13.9014 12.063 0.354
13.9219 11.677 0.349
13.9423 12.146 0.356
13.9628 11.917 0.352
13.9833 11.677 0.349
14.0037 11.854 0.351
14.0242 11.698 0.349
14.0447 12.240 0.357
14.0651 12.135 0.356
14.0856 12.042 0.354
14.1060 11.667 0.349
14.1265 11.615 0.348
14.1470 11.594 0.348
14.1674 11.667 0.349
14.1879 11.625 0.348
14.2084 11.646 0.348
14.2288 11.302 0.343
14.2493 11.844 0.351
14.2697 11.594 0.348
14.2902 11.000 0.339
14.3107 11.260 0.342
14.3311 11.948 0.353
14.3516 11.729 0.350
14.3721 11.615 0.348
14.3925 11.375 0.344
14.4130 11.135 0.341
14.4335 11.635 0.348
14.4539 11.750 0.350
14.4744 10.740 0.334
14.4948 11.323 0.343
14.5153 11.656 0.348
14.5358 11.708 0.349
14.5562 11.594 0.348
14.5767 11.094 0.340
14.5972 10.677 0.333
14.6176 11.146 0.341
14.6381 11.771 0.350
14.6585 11.063 0.339
14.6790 10.375 0.329
14.6995 11.198 0.342
14.7199 11.135 0.341
14.7404 10.969 0.338
14.7609 10.969 0.338
14.7813 10.417 0.329
14.8018 11.365 0.344
14.8222 11.260 0.342
14.8427 11.021 0.339
14.8632 10.833 0.336
14.8836 10.927 0.337
14.9041 11.010 0.339
14.9246 11.031 0.339
14.9450 11.594 0.348
14.9655 10.938 0.338
14.9859 10.906 0.337
15.0064 11.365 0.344
15.0269 11.021 0.339
15.0473 10.854 0.336
15.0678 11.146 0.341
15.0883 10.260 0.327
15.1087 11.635 0.348
15.1292 11.188 0.341
15.1496 11.219 0.342
15.1701 10.813 0.336
15.1906 10.438 0.330
15.2110 10.354 0.328
15.2315 10.604 0.332
15.2520 11.115 0.340
15.2724 11.313 0.343
15.2929 11.979 0.353
15.3134 11.250 0.342
15.3338 11.167 0.341
15.3543 11.656 0.348
15.3747 11.260 0.342
15.3952 10.833 0.336
15.4157 11.500 0.346
15.4361 11.271 0.343
15.4566 11.510 0.346
15.4771 11.156 0.341
15.4975 11.292 0.343
15.5180 11.583 0.347
15.5384 11.375 0.344
15.5589 11.313 0.343
15.5794 11.677 0.349
15.5998 11.760 0.350
15.6203 11.958 0.353
15.6408 13.292 0.372
15.6612 13.594 0.376
15.6817 15.292 0.399
15.7021 17.427 0.426
15.7226 21.406 0.472
15.7431 27.417 0.534
15.7635 29.927 0.558
15.7840 28.094 0.541
15.8045 23.781 0.498
15.8249 19.198 0.447
15.8454 14.979 0.395
15.8658 13.740 0.378
15.8863 12.177 0.356
15.9068 12.083 0.355
15.9272 11.531 0.347
15.9477 11.302 0.343
15.9682 11.240 0.342
15.9886 10.906 0.337
16.0091 10.906 0.337
16.0296 10.667 0.333
16.0500 11.354 0.344
16.0705 11.604 0.348
16.0909 11.042 0.339
16.1114 10.458 0.330
16.1319 10.802 0.335
16.1523 10.917 0.337
16.1728 10.885 0.337
16.1933 10.604 0.332
16.2137 10.792 0.335
16.2342 11.167 0.341
16.2546 10.323 0.328
16.2751 10.771 0.335
16.2956 10.333 0.328
16.3160 10.667 0.333
16.3365 10.365 0.329
16.3570 10.896 0.337
16.3774 10.573 0.332
16.3979 10.729 0.334
16.4183 10.479 0.330
16.4388 10.417 0.329
16.4593 11.063 0.339
16.4797 10.458 0.330
16.5002 10.969 0.338
16.5207 10.948 0.338
16.5411 10.594 0.332
16.5616 10.938 0.338
16.5820 11.146 0.341
16.6025 11.021 0.339
16.6230 10.938 0.338
16.6434 10.990 0.338
16.6639 11.156 0.341
16.6844 11.510 0.346
16.7048 10.823 0.336
16.7253 10.917 0.337
16.7457 10.938 0.338
16.7662 11.677 0.349
16.7867 11.219 0.342
16.8071 11.615 0.348
16.8276 11.083 0.340
16.8481 11.625 0.348
16.8685 11.583 0.347
16.8890 10.510 0.331
16.9095 10.927 0.337
16.9299 10.958 0.338
16.9504 11.510 0.346
16.9708 11.010 0.339
16.9913 11.427 0.345
17.0118 11.813 0.351
17.0322 10.688 0.334
17.0527 11.677 0.349
17.0732 11.438 0.345
17.0936 11.438 0.345
17.1141 12.292 0.358
17.1345 11.094 0.340
17.1550 11.781 0.350
17.1755 12.063 0.354
17.1959 11.646 0.348
17.2164 12.135 0.356
17.2369 12.469 0.360
17.2573 12.448 0.360
17.2778 12.125 0.355
17.2982 11.698 0.349
17.3187 12.354 0.359
17.3392 12.719 0.364
17.3596 13.375 0.373
17.3801 13.333 0.373
17.4006 13.146 0.370
17.4210 12.990 0.368
17.4415 12.354 0.359
17.4619 12.802 0.365
17.4824 13.479 0.375
17.5029 13.521 0.375
17.5233 13.177 0.370
17.5438 14.083 0.383
17.5643 14.104 0.383
17.5847 14.438 0.388
17.6052 14.073 0.383
17.6256 14.979 0.395
17.6461 15.188 0.398
17.6666 15.177 0.398
17.6870 15.625 0.403
17.7075 15.719 0.405
17.7280 16.885 0.419
17.7484 17.719 0.430
17.7689 18.990 0.445
17.7894 21.385 0.472
17.8098 22.583 0.485
17.8303 21.667 0.475
17.8507 20.635 0.464
17.8712 18.750 0.442
17.8917 19.135 0.446
17.9121 19.323 0.449
17.9326 18.958 0.444
17.9531 18.115 0.434
17.9735 19.094 0.446
17.9940 18.865 0.443
18.0144 19.510 0.451
18.0349 20.281 0.460
18.0554 21.063 0.468
18.0758 21.625 0.475
18.0963 20.844 0.466
18.1168 20.656 0.464
18.1372 20.677 0.464
18.1577 19.885 0.455
18.1781 19.833 0.455
18.1986 20.948 0.467
18.2191 20.813 0.466
18.2395 20.833 0.466
18.2600 21.479 0.473
18.2805 21.094 0.469
18.3009 21.521 0.473
18.3214 20.542 0.463
18.3418 21.792 0.476
18.3623 21.406 0.472
18.3828 22.135 0.480
18.4032 21.813 0.477
18.4237 20.813 0.466
18.4442 21.135 0.469
18.4646 20.760 0.465
18.4851 21.656 0.475
18.5055 21.083 0.469
18.5260 20.167 0.458
18.5465 20.906 0.467
18.5669 21.063 0.468
18.5874 20.365 0.461
18.6079 20.948 0.467
18.6283 20.844 0.466
18.6488 21.188 0.470
18.6693 21.542 0.474
18.6897 20.448 0.462
18.7102 19.927 0.456
18.7306 20.646 0.464
18.7511 20.198 0.459
18.7716 21.167 0.470
18.7920 20.500 0.462
18.8125 21.698 0.475
18.8330 23.219 0.492
18.8534 24.010 0.500
18.8739 25.604 0.516
18.8943 24.896 0.509
18.9148 24.323 0.503
18.9353 22.271 0.482
18.9557 19.417 0.450
18.9762 18.438 0.438
18.9967 16.969 0.420
19.0171 16.490 0.414
19.0376 17.260 0.424
19.0580 16.771 0.418
19.0785 16.292 0.412
19.0990 16.083 0.409
19.1194 16.208 0.411
19.1399 16.188 0.411
19.1604 14.698 0.391
19.1808 15.094 0.397
19.2013 14.656 0.391
19.2217 15.104 0.397
19.2422 14.031 0.382
19.2627 14.646 0.391
19.2831 14.760 0.392
19.3036 14.823 0.393
19.3241 14.615 0.390
19.3445 14.854 0.393
19.3650 15.458 0.401
19.3854 15.052 0.396
19.4059 15.458 0.401
19.4264 14.688 0.391
19.4468 14.740 0.392
19.4673 15.552 0.402
19.4878 15.479 0.402
19.5082 15.427 0.401
19.5287 15.875 0.407
19.5492 17.000 0.421
19.5696 16.417 0.414
19.5901 17.333 0.425
19.6105 18.031 0.433
19.6310 18.010 0.433
19.6515 18.531 0.439
19.6719 20.250 0.459
19.6924 20.417 0.461
19.7129 21.313 0.471
19.7333 23.125 0.491
19.7538 25.219 0.513
19.7742 28.344 0.543
19.7947 32.458 0.581
19.8152 39.771 0.644
19.8356 49.531 0.718
19.8561 61.677 0.802
19.8766 73.885 0.877
19.8970 76.135 0.891
19.9175 74.552 0.881
19.9379 69.896 0.853
19.9584 59.656 0.788
19.9789 51.344 0.731
19.9993 45.198 0.686
20.0198 41.448 0.657
20.0403 39.833 0.644
20.0607 37.240 0.623
20.0812 36.635 0.618
20.1016 34.635 0.601
20.1221 32.875 0.585
20.1426 32.948 0.586
20.1630 33.229 0.588
20.1835 31.531 0.573
20.2040 31.406 0.572
20.2244 30.906 0.567
20.2449 31.313 0.571
20.2654 31.229 0.570
20.2858 31.563 0.573
20.3063 30.583 0.564
20.3267 30.771 0.566
20.3472 30.531 0.564
20.3677 31.313 0.571
20.3881 30.792 0.566
20.4086 30.010 0.559
20.4291 29.688 0.556
20.4495 29.531 0.555
20.4700 28.125 0.541
20.4904 28.583 0.546
20.5109 28.146 0.541
20.5314 26.594 0.526
20.5518 26.438 0.525
20.5723 25.781 0.518
20.5928 24.281 0.503
20.6132 23.948 0.499
20.6337 22.354 0.483
20.6541 22.802 0.487
20.6746 22.615 0.485
20.6951 20.813 0.466
20.7155 21.115 0.469
20.7360 20.438 0.461
20.7565 19.729 0.453
20.7769 19.281 0.448
20.7974 18.979 0.445
20.8178 18.688 0.441
20.8383 19.323 0.449
20.8588 18.354 0.437
20.8792 18.042 0.434
20.8997 17.885 0.432
20.9202 18.063 0.434
20.9406 16.563 0.415
20.9611 17.115 0.422
20.9815 17.073 0.422
21.0020 16.146 0.410
21.0225 17.177 0.423
21.0429 15.906 0.407
21.0634 16.490 0.414
21.0839 16.406 0.413
21.1043 16.417 0.414
21.1248 15.844 0.406
21.1453 16.438 0.414
21.1657 16.073 0.409
21.1862 14.823 0.393
21.2066 15.188 0.398
21.2271 14.865 0.393
21.2476 15.365 0.400
21.2680 15.719 0.405
21.2885 15.156 0.397
21.3090 14.688 0.391
21.3294 15.042 0.396
21.3499 15.250 0.399
21.3703 14.698 0.391
21.3908 16.021 0.409
21.4113 15.510 0.402
21.4317 15.115 0.397
21.4522 15.198 0.398
21.4727 15.656 0.404
21.4931 15.604 0.403
21.5136 15.438 0.401
21.5340 15.458 0.401
21.5545 15.177 0.398
21.5750 15.219 0.398
21.5954 15.542 0.402
21.6159 15.698 0.404
21.6364 16.177 0.411
21.6568 15.521 0.402
21.6773 15.542 0.402
21.6977 16.135 0.410
21.7182 15.750 0.405
21.7387 16.656 0.417
21.7591 15.927 0.407
21.7796 16.135 0.410
21.8001 16.396 0.413
21.8205 15.365 0.400
21.8410 15.573 0.403
21.8614 16.323 0.412
21.8819 16.156 0.410
21.9024 15.385 0.400
21.9228 16.052 0.409
21.9433 15.563 0.403
21.9638 15.969 0.408
21.9842 16.823 0.419
22.0047 16.844 0.419
22.0252 17.240 0.424
22.0456 17.917 0.432
22.0661 18.385 0.438
22.0865 19.552 0.451
22.1070 22.177 0.481
22.1275 24.542 0.506
22.1479 28.156 0.542
22.1684 31.042 0.569
22.1889 33.438 0.590
22.2093 35.958 0.612
22.2298 33.094 0.587
22.2502 30.698 0.565
22.2707 28.073 0.541
22.2912 24.292 0.503
22.3116 20.115 0.458
22.3321 18.906 0.444
22.3526 17.740 0.430
22.3730 16.490 0.414
22.3935 16.063 0.409
22.4139 15.344 0.400
22.4344 15.146 0.397
22.4549 14.635 0.390
22.4753 14.250 0.385
22.4958 14.125 0.384
22.5163 13.125 0.370
22.5367 12.531 0.361
22.5572 12.708 0.364
22.5776 12.406 0.359
22.5981 12.323 0.358
22.6186 12.323 0.358
22.6390 12.229 0.357
22.6595 12.604 0.362
22.6800 12.594 0.362
22.7004 11.677 0.349
22.7209 12.104 0.355
22.7413 11.646 0.348
22.7618 12.042 0.354
22.7823 12.229 0.357
22.8027 12.729 0.364
22.8232 12.833 0.366
22.8437 14.885 0.394
22.8641 17.000 0.421
22.8846 18.771 0.442
22.9051 21.677 0.475
22.9255 21.406 0.472
22.9460 20.792 0.465
22.9664 18.188 0.435
22.9869 15.542 0.402
23.0074 13.875 0.380
23.0278 12.771 0.365
23.0483 11.938 0.353
23.0688 11.490 0.346
23.0892 10.760 0.335
23.1097 10.219 0.326
23.1301 9.625 0.317
23.1506 10.865 0.336
23.1711 10.240 0.327
23.1915 10.042 0.323
23.2120 10.073 0.324
23.2325 10.375 0.329
23.2529 10.604 0.332
23.2734 9.615 0.316
23.2938 10.063 0.324
23.3143 9.510 0.315
23.3348 10.073 0.324
23.3552 10.198 0.326
23.3757 9.750 0.319
23.3962 9.760 0.319
23.4166 9.438 0.314
23.4371 9.594 0.316
23.4575 9.406 0.313
23.4780 9.385 0.313
23.4985 9.677 0.317
23.5189 9.240 0.310
23.5394 8.979 0.306
23.5599 9.885 0.321
23.5803 9.927 0.322
23.6008 9.990 0.323
23.6212 9.958 0.322
23.6417 9.771 0.319
23.6622 10.344 0.328
23.6826 9.885 0.321
23.7031 9.406 0.313
23.7236 9.677 0.317
23.7440 9.573 0.316
23.7645 9.365 0.312
23.7850 9.229 0.310
23.8054 9.573 0.316
23.8259 8.948 0.305
23.8463 9.302 0.311
23.8668 9.094 0.308
23.8873 9.219 0.310
23.9077 9.313 0.311
23.9282 9.115 0.308
23.9487 9.094 0.308
23.9691 9.177 0.309
23.9896 9.344 0.312
24.0100 9.396 0.313
24.0305 9.302 0.311
24.0510 8.948 0.305
24.0714 9.073 0.307
24.0919 9.313 0.311
24.1124 9.021 0.307
24.1328 8.906 0.305
24.1533 9.667 0.317
24.1737 10.021 0.323
24.1942 10.281 0.327
24.2147 9.990 0.323
24.2351 10.271 0.327
24.2556 10.292 0.327
24.2761 10.208 0.326
24.2965 9.906 0.321
24.3170 11.042 0.339
24.3374 11.104 0.340
24.3579 11.323 0.343
24.3784 10.677 0.333
24.3988 10.906 0.337
24.4193 10.385 0.329
24.4398 10.313 0.328
24.4602 9.604 0.316
24.4807 9.490 0.314
24.5012 9.063 0.307
24.5216 8.688 0.301
24.5421 9.354 0.312
24.5625 9.250 0.310
24.5830 9.417 0.313
24.6035 8.917 0.305
24.6239 9.479 0.314
24.6444 9.854 0.320
24.6649 10.281 0.327
24.6853 11.167 0.341
24.7058 10.938 0.338
24.7262 10.063 0.324
24.7467 10.063 0.324
24.7672 9.708 0.318
24.7876 8.969 0.306
24.8081 8.969 0.306
24.8286 8.917 0.305
24.8490 9.115 0.308
24.8695 9.521 0.315
24.8899 8.844 0.304
24.9104 9.146 0.309
24.9309 8.969 0.306
24.9513 8.948 0.305
24.9718 9.208 0.310
24.9923 9.167 0.309
25.0127 8.948 0.305
25.0332 8.552 0.298
25.0536 8.875 0.304
25.0741 8.698 0.301
25.0946 8.521 0.298
25.1150 8.104 0.291
25.1355 8.417 0.296
25.1560 8.208 0.292
25.1764 8.729 0.302
25.1969 8.104 0.291
25.2173 8.698 0.301
25.2378 8.240 0.293
25.2583 8.365 0.295
25.2787 8.323 0.294
25.2992 8.208 0.292
25.3197 7.771 0.285
25.3401 9.219 0.310
25.3606 8.604 0.299
25.3811 8.177 0.292
25.4015 9.188 0.309
25.4220 9.042 0.307
25.4424 8.760 0.302
25.4629 8.396 0.296
25.4834 8.927 0.305
25.5038 10.021 0.323
25.5243 10.625 0.333
25.5448 11.146 0.341
25.5652 12.375 0.359
25.5857 13.521 0.375
25.6061 13.854 0.380
25.6266 13.698 0.378
25.6471 12.771 0.365
25.6675 11.875 0.352
25.6880 10.698 0.334
25.7085 9.708 0.318
25.7289 9.792 0.319
25.7494 8.854 0.304
25.7698 8.792 0.303
25.7903 9.167 0.309
25.8108 9.031 0.307
25.8312 8.385 0.296
25.8517 8.833 0.303
25.8722 8.031 0.289
25.8926 8.479 0.297
25.9131 8.510 0.298
25.9335 8.198 0.292
25.9540 8.323 0.294
25.9745 8.302 0.294
25.9949 8.292 0.294
26.0154 7.792 0.285
26.0359 8.344 0.295
26.0563 8.427 0.296
26.0768 8.177 0.292
26.0972 8.604 0.299
26.1177 8.115 0.291
26.1382 8.510 0.298
26.1586 8.396 0.296
26.1791 8.052 0.290
26.1996 8.240 0.293
26.2200 8.448 0.297
26.2405 8.229 0.293
26.2610 8.688 0.301
26.2814 8.573 0.299
26.3019 8.219 0.293
26.3223 8.875 0.304
26.3428 8.510 0.298
26.3633 8.208 0.292
26.3837 8.635 0.300
26.4042 8.344 0.295
26.4247 8.125 0.291
26.4451 8.229 0.293
26.4656 8.656 0.300
26.4860 8.677 0.301
26.5065 8.521 0.298
26.5270 8.708 0.301
26.5474 8.792 0.303
26.5679 8.188 0.292
26.5884 8.792 0.303
26.6088 8.448 0.297
26.6293 8.531 0.298
26.6497 8.635 0.300
26.6702 8.875 0.304
26.6907 7.938 0.288
26.7111 8.583 0.299
26.7316 8.583 0.299
26.7521 8.458 0.297
26.7725 7.771 0.285
26.7930 8.698 0.301
26.8134 8.292 0.294
26.8339 8.438 0.296
26.8544 8.427 0.296
26.8748 8.479 0.297
26.8953 8.625 0.300
26.9158 8.563 0.299
26.9362 8.240 0.293
26.9567 8.594 0.299
26.9771 8.542 0.298
26.9976 9.281 0.311
27.0181 8.771 0.302
27.0385 8.938 0.305
27.0590 8.563 0.299
27.0795 8.313 0.294
27.0999 9.010 0.306
27.1204 9.104 0.308
27.1409 8.792 0.303
27.1613 8.677 0.301
27.1818 9.396 0.313
27.2022 9.083 0.308
27.2227 8.750 0.302
27.2432 9.719 0.318
27.2636 9.177 0.309
27.2841 8.229 0.293
27.3046 9.208 0.310
27.3250 9.073 0.307
27.3455 8.479 0.297
27.3659 8.979 0.306
27.3864 8.833 0.303
27.4069 9.177 0.309
27.4273 9.677 0.317
27.4478 9.729 0.318
27.4683 11.135 0.341
27.4887 11.573 0.347
27.5092 10.844 0.336
27.5296 10.438 0.330
27.5501 9.854 0.320
27.5706 9.740 0.319
27.5910 9.438 0.314
27.6115 8.615 0.300
27.6320 8.781 0.302
27.6524 8.771 0.302
27.6729 8.625 0.300
27.6933 8.594 0.299
27.7138 7.802 0.285
27.7343 8.115 0.291
27.7547 8.500 0.298
27.7752 7.729 0.284
27.7957 7.917 0.287
27.8161 8.229 0.293
27.8366 8.010 0.289
27.8570 8.479 0.297
27.8775 8.417 0.296
27.8980 7.948 0.288
27.9184 8.448 0.297
27.9389 8.302 0.294
27.9594 8.552 0.298
27.9798 7.938 0.288
28.0003 7.854 0.286
28.0208 8.313 0.294
28.0412 7.698 0.283
28.0617 7.990 0.288
28.0821 8.073 0.290
28.1026 7.885 0.287
28.1231 8.063 0.290
28.1435 7.469 0.279
28.1640 7.906 0.287
28.1845 8.083 0.290
28.2049 7.500 0.280
28.2254 7.625 0.282
28.2458 8.000 0.289
28.2663 7.573 0.281
28.2868 7.167 0.273
28.3072 7.979 0.288
28.3277 7.500 0.280
28.3482 7.438 0.278
28.3686 7.740 0.284
28.3891 7.573 0.281
28.4095 7.729 0.284
28.4300 7.510 0.280
28.4505 7.417 0.278
28.4709 7.167 0.273
28.4914 7.438 0.278
28.5119 7.333 0.276
28.5323 7.063 0.271
28.5528 7.760 0.284
28.5732 7.583 0.281
28.5937 7.500 0.280
28.6142 8.010 0.289
28.6346 7.740 0.284
28.6551 7.844 0.286
28.6756 7.667 0.283
28.6960 7.729 0.284
28.7165 7.635 0.282
28.7370 7.240 0.275
28.7574 8.458 0.297
28.7779 7.406 0.278
28.7983 7.583 0.281
28.8188 7.510 0.280
28.8393 7.667 0.283
28.8597 7.990 0.288
28.8802 8.125 0.291
28.9007 7.833 0.286
28.9211 6.979 0.270
28.9416 7.271 0.275
28.9620 7.292 0.276
28.9825 7.760 0.284
29.0030 7.333 0.276
29.0234 7.021 0.270
29.0439 7.625 0.282
29.0644 7.469 0.279
29.0848 7.146 0.273
29.1053 7.708 0.283
29.1257 7.365 0.277
29.1462 7.281 0.275
29.1667 6.563 0.261
29.1871 7.583 0.281
29.2076 7.583 0.281
29.2281 7.385 0.277
29.2485 7.635 0.282
29.2690 7.563 0.281
29.2894 7.052 0.271
29.3099 8.115 0.291
29.3304 7.385 0.277
29.3508 8.052 0.290
29.3713 8.063 0.290
29.3918 7.458 0.279
29.4122 8.396 0.296
29.4327 7.427 0.278
29.4531 7.125 0.272
29.4736 7.396 0.278
29.4941 7.417 0.278
29.5145 7.563 0.281
29.5350 7.729 0.284
29.5555 7.802 0.285
29.5759 8.427 0.296
29.5964 8.063 0.290
29.6169 8.010 0.289
29.6373 8.365 0.295
29.6578 7.677 0.283
29.6782 7.510 0.280
29.6987 7.604 0.281
29.7192 7.365 0.277
29.7396 7.083 0.272
29.7601 7.469 0.279
29.7806 6.667 0.264
29.8010 7.750 0.284
29.8215 7.000 0.270
29.8419 7.021 0.270
29.8624 6.760 0.265
29.8829 7.333 0.276
29.9033 7.240 0.275
29.9238 6.802 0.266
29.9443 6.865 0.267
29.9647 6.542 0.261
29.9852 6.656 0.263
30.0056 7.375 0.277
30.0261 7.667 0.283
30.0466 7.396 0.278
30.0670 7.104 0.272
30.0875 7.229 0.274
30.1080 6.823 0.267
30.1284 7.490 0.279
30.1489 7.281 0.275
30.1693 6.729 0.265
30.1898 6.823 0.267
30.2103 7.010 0.270
30.2307 6.708 0.264
30.2512 6.802 0.266
30.2717 6.458 0.259
30.2921 7.198 0.274
30.3126 6.594 0.262
30.3330 5.969 0.249
30.3535 6.490 0.260
30.3740 6.156 0.253
30.3944 6.833 0.267
30.4149 7.479 0.279
30.4354 7.146 0.273
30.4558 6.938 0.269
30.4763 6.740 0.265
30.4968 7.313 0.276
30.5172 7.448 0.279
30.5377 6.719 0.265
30.5581 6.729 0.265
30.5786 6.490 0.260
30.5991 6.875 0.268
30.6195 6.948 0.269
30.6400 7.208 0.274
30.6605 7.167 0.273
30.6809 6.938 0.269
30.7014 7.135 0.273
30.7218 7.208 0.274
30.7423 7.260 0.275
30.7628 7.667 0.283
30.7832 7.594 0.281
30.8037 8.063 0.290
30.8242 8.031 0.289
30.8446 8.240 0.293
30.8651 9.479 0.314
30.8855 9.708 0.318
30.9060 10.292 0.327
30.9265 12.594 0.362
30.9469 15.573 0.403
30.9674 21.438 0.473
30.9879 30.427 0.563
31.0083 40.177 0.647
31.0288 42.854 0.668
31.0492 35.510 0.608
31.0697 30.938 0.568
31.0902 29.865 0.558
31.1106 26.438 0.525
31.1311 21.292 0.471
31.1516 16.958 0.420
31.1720 14.813 0.393
31.1925 13.521 0.375
31.2129 11.781 0.350
31.2334 11.156 0.341
31.2539 11.156 0.341
31.2743 10.010 0.323
31.2948 9.625 0.317
31.3153 9.167 0.309
31.3357 9.073 0.307
31.3562 9.250 0.310
31.3767 9.104 0.308
31.3971 8.792 0.303
31.4176 8.323 0.294
31.4380 8.229 0.293
31.4585 8.490 0.297
31.4790 8.021 0.289
31.4994 7.990 0.288
31.5199 7.771 0.285
31.5404 7.750 0.284
31.5608 7.719 0.284
31.5813 7.813 0.285
31.6017 8.271 0.294
31.6222 7.958 0.288
31.6427 7.635 0.282
31.6631 7.917 0.287
31.6836 7.292 0.276
31.7041 8.260 0.293
31.7245 8.396 0.296
31.7450 8.281 0.294
31.7654 8.083 0.290
31.7859 8.292 0.294
31.8064 8.292 0.294
31.8268 8.906 0.305
31.8473 9.448 0.314
31.8678 9.031 0.307
31.8882 9.490 0.314
31.9087 8.688 0.301
31.9291 9.281 0.311
31.9496 9.625 0.317
31.9701 9.177 0.309
31.9905 9.063 0.307
32.0110 9.333 0.312
32.0315 9.958 0.322
32.0519 9.083 0.308
32.0724 9.771 0.319
32.0928 10.885 0.337
32.1133 10.021 0.323
32.1338 11.198 0.342
32.1542 12.208 0.357
32.1747 12.833 0.366
32.1952 14.510 0.389
32.2156 15.365 0.400
32.2361 16.198 0.411
32.2566 16.156 0.410
32.2770 15.271 0.399
32.2975 14.635 0.390
32.3179 13.542 0.376
32.3384 12.396 0.359
32.3589 11.917 0.352
32.3793 11.010 0.339
32.3998 10.458 0.330
32.4203 10.177 0.326
32.4407 9.875 0.321
32.4612 10.521 0.331
32.4816 10.042 0.323
32.5021 10.427 0.330
32.5226 11.125 0.340
32.5430 11.229 0.342
32.5635 12.469 0.360
32.5840 13.792 0.379
32.6044 15.177 0.398
32.6249 16.250 0.411
32.6453 17.729 0.430
32.6658 17.177 0.423
32.6863 15.240 0.398
32.7067 14.219 0.385
32.7272 13.344 0.373
32.7477 12.698 0.364
32.7681 11.052 0.339
32.7886 10.583 0.332
32.8090 10.469 0.330
32.8295 9.781 0.319
32.8500 9.271 0.311
32.8704 8.719 0.301
32.8909 8.948 0.305
32.9114 9.083 0.308
32.9318 8.458 0.297
32.9523 8.708 0.301
32.9728 9.052 0.307
32.9932 9.146 0.309
33.0137 8.521 0.298
33.0341 8.490 0.297
33.0546 8.021 0.289
33.0751 8.292 0.294
33.0955 7.885 0.287
33.1160 8.313 0.294
33.1365 8.542 0.298
33.1569 9.177 0.309
33.1774 9.031 0.307
33.1978 8.563 0.299
33.2183 8.979 0.306
33.2388 8.667 0.300
33.2592 8.563 0.299
33.2797 8.604 0.299
33.3002 8.417 0.296
33.3206 7.979 0.288
33.3411 8.042 0.289
33.3615 8.167 0.292
33.3820 8.302 0.294
33.4025 8.906 0.305
33.4229 8.906 0.305
33.4434 9.052 0.307
33.4639 8.385 0.296
33.4843 7.906 0.287
33.5048 7.781 0.285
33.5252 7.833 0.286
33.5457 7.521 0.280
33.5662 7.219 0.274
33.5866 7.458 0.279
33.6071 6.990 0.270
33.6276 6.958 0.269
33.6480 7.156 0.273
33.6685 7.396 0.278
33.6889 7.271 0.275
33.7094 6.990 0.270
33.7299 7.500 0.280
33.7503 6.854 0.267
33.7708 7.375 0.277
33.7913 6.875 0.268
33.8117 6.813 0.266
33.8322 6.990 0.270
33.8527 6.979 0.270
33.8731 7.563 0.281
33.8936 6.594 0.262
33.9140 7.260 0.275
33.9345 7.010 0.270
33.9550 6.938 0.269
33.9754 6.844 0.267
33.9959 7.219 0.274
34.0164 7.188 0.274
34.0368 7.063 0.271
34.0573 7.219 0.274
34.0777 7.625 0.282
34.0982 7.438 0.278
34.1187 7.594 0.281
34.1391 7.750 0.284
34.1596 7.771 0.285
34.1801 7.927 0.287
34.2005 8.938 0.305
34.2210 9.042 0.307
34.2414 9.219 0.310
34.2619 9.885 0.321
34.2824 9.688 0.318
34.3028 10.042 0.323
34.3233 8.792 0.303
34.3438 8.302 0.294
34.3642 8.344 0.295
34.3847 8.031 0.289
34.4051 8.010 0.289
34.4256 7.656 0.282
34.4461 7.260 0.275
34.4665 6.875 0.268
34.4870 7.083 0.272
34.5075 7.146 0.273
34.5279 6.615 0.262
34.5484 7.021 0.270
34.5688 6.760 0.265
34.5893 6.771 0.266
34.6098 6.594 0.262
34.6302 6.896 0.268
34.6507 7.073 0.271
34.6712 6.792 0.266
34.6916 6.896 0.268
34.7121 6.865 0.267
34.7326 6.740 0.265
34.7530 7.302 0.276
34.7735 6.990 0.270
34.7939 7.375 0.277
34.8144 6.760 0.265
34.8349 7.521 0.280
34.8553 7.760 0.284
34.8758 8.115 0.291
34.8963 8.896 0.304
34.9167 9.813 0.320
34.9372 12.177 0.356
34.9576 12.448 0.360
34.9781 14.552 0.389
34.9986 13.573 0.376
35.0190 12.448 0.360
35.0395 13.219 0.371
35.0600 12.635 0.363
35.0804 12.000 0.354
35.1009 10.906 0.337
35.1213 9.823 0.320
35.1418 8.688 0.301
35.1623 7.885 0.287
35.1827 7.938 0.288
35.2032 7.896 0.287
35.2237 7.271 0.275
35.2441 7.302 0.276
35.2646 7.250 0.275
35.2850 6.969 0.269
35.3055 7.344 0.277
35.3260 7.115 0.272
35.3464 6.823 0.267
35.3669 7.260 0.275
35.3874 7.115 0.272
35.4078 7.031 0.271
35.4283 7.292 0.276
35.4487 7.375 0.277
35.4692 7.188 0.274
35.4897 7.760 0.284
35.5101 7.188 0.274
35.5306 7.885 0.287
35.5511 8.115 0.291
35.5715 7.750 0.284
35.5920 7.448 0.279
35.6125 7.438 0.278
35.6329 7.313 0.276
35.6534 7.917 0.287
35.6738 7.656 0.282
35.6943 7.740 0.284
35.7148 7.792 0.285
35.7352 7.510 0.280
35.7557 7.896 0.287
35.7762 8.052 0.290
35.7966 8.292 0.294
35.8171 8.198 0.292
35.8375 8.260 0.293
35.8580 8.271 0.294
35.8785 8.552 0.298
35.8989 8.677 0.301
35.9194 8.990 0.306
35.9399 9.615 0.316
35.9603 9.792 0.319
35.9808 10.958 0.338
36.0012 10.927 0.337
36.0217 11.740 0.350
36.0422 11.458 0.345
36.0626 12.177 0.356
36.0831 12.302 0.358
36.1036 12.177 0.356
36.1240 12.313 0.358
36.1445 13.354 0.373
36.1649 11.833 0.351
36.1854 12.188 0.356
36.2059 12.115 0.355
36.2263 11.625 0.348
36.2468 13.125 0.370
36.2673 12.094 0.355
36.2877 11.990 0.353
36.3082 12.708 0.364
36.3286 12.490 0.361
36.3491 12.979 0.368
36.3696 13.396 0.374
36.3900 12.896 0.367
36.4105 13.417 0.374
36.4310 13.448 0.374
36.4514 14.698 0.391
36.4719 14.667 0.391
36.4924 15.594 0.403
36.5128 16.052 0.409
36.5333 17.896 0.432
36.5537 20.385 0.461
36.5742 21.844 0.477
36.5947 24.240 0.502
36.6151 25.854 0.519
36.6356 24.198 0.502
36.6561 22.667 0.486
36.6765 21.458 0.473
36.6970 21.740 0.476
36.7174 19.240 0.448
36.7379 19.052 0.445
36.7584 16.854 0.419
36.7788 16.250 0.411
36.7993 15.854 0.406
36.8198 15.833 0.406
36.8402 15.438 0.401
36.8607 15.490 0.402
36.8811 15.573 0.403
36.9016 16.250 0.411
36.9221 16.667 0.417
36.9425 16.615 0.416
36.9630 18.698 0.441
36.9835 17.396 0.426
37.0039 18.625 0.440
37.0244 19.552 0.451
37.0448 20.906 0.467
37.0653 24.854 0.509
37.0858 26.010 0.521
37.1062 28.281 0.543
37.1267 28.344 0.543
37.1472 28.583 0.546
37.1676 26.771 0.528
37.1881 25.927 0.520
37.2085 24.979 0.510
37.2290 24.385 0.504
37.2495 21.813 0.477
37.2699 20.156 0.458
37.2904 18.896 0.444
37.3109 18.271 0.436
37.3313 16.271 0.412
37.3518 15.823 0.406
37.3723 15.542 0.402
37.3927 15.594 0.403
37.4132 14.646 0.391
37.4336 13.896 0.380
37.4541 13.344 0.373
37.4746 13.417 0.374
37.4950 13.344 0.373
37.5155 13.292 0.372
37.5360 12.760 0.365
37.5564 12.740 0.364
37.5769 12.844 0.366
37.5973 13.177 0.370
37.6178 12.781 0.365
37.6383 11.823 0.351
37.6587 12.260 0.357
37.6792 12.625 0.363
37.6997 12.208 0.357
37.7201 12.656 0.363
37.7406 12.448 0.360
37.7610 12.167 0.356
37.7815 12.052 0.354
37.8020 11.844 0.351
37.8224 11.771 0.350
37.8429 12.000 0.354
37.8634 11.646 0.348
37.8838 11.813 0.351
37.9043 11.802 0.351
37.9247 13.073 0.369
37.9452 12.167 0.356
37.9657 12.781 0.365
37.9861 13.469 0.375
38.0066 14.083 0.383
38.0271 13.948 0.381
38.0475 14.260 0.385
38.0680 15.052 0.396
38.0885 15.979 0.408
38.1089 16.219 0.411
38.1294 16.250 0.411
38.1498 15.885 0.407
38.1703 16.021 0.409
38.1908 15.156 0.397
38.2112 15.375 0.400
38.2317 14.875 0.394
38.2522 13.885 0.380
38.2726 13.771 0.379
38.2931 13.813 0.379
38.3135 13.385 0.373
38.3340 13.344 0.373
38.3545 13.542 0.376
38.3749 12.667 0.363
38.3954 13.510 0.375
38.4159 14.417 0.388
38.4363 14.271 0.386
38.4568 14.979 0.395
38.4772 14.656 0.391
38.4977 14.396 0.387
38.5182 13.698 0.378
38.5386 13.104 0.369
38.5591 13.271 0.372
38.5796 13.063 0.369
38.6000 11.552 0.347
38.6205 11.677 0.349
38.6409 11.260 0.342
38.6614 10.781 0.335
38.6819 10.375 0.329
38.7023 11.229 0.342
38.7228 10.729 0.334
38.7433 10.323 0.328
38.7637 9.677 0.317
38.7842 10.000 0.323
38.8046 10.052 0.324
38.8251 10.021 0.323
38.8456 9.490 0.314
38.8660 9.375 0.313
38.8865 9.760 0.319
38.9070 9.135 0.308
38.9274 9.094 0.308
38.9479 9.240 0.310
38.9684 9.417 0.313
38.9888 9.646 0.317
39.0093 9.250 0.310
39.0297 9.281 0.311
39.0502 9.531 0.315
39.0707 8.740 0.302
39.0911 9.021 0.307
39.1116 9.667 0.317
39.1321 9.271 0.311
39.1525 9.000 0.306
39.1730 9.188 0.309
39.1934 9.208 0.310
39.2139 9.177 0.309
39.2344 9.208 0.310
39.2548 8.750 0.302
39.2753 8.927 0.305
39.2958 8.510 0.298
39.3162 8.344 0.295
39.3367 9.167 0.309
39.3571 9.604 0.316
39.3776 9.073 0.307
39.3981 9.010 0.306
39.4185 9.292 0.311
39.4390 9.010 0.306
39.4595 8.708 0.301
39.4799 9.073 0.307
39.5004 8.938 0.305
39.5208 8.594 0.299
39.5413 8.865 0.304
39.5618 9.104 0.308
39.5822 9.000 0.306
39.6027 8.729 0.302
39.6232 8.969 0.306
39.6436 9.667 0.317
39.6641 9.417 0.313
39.6845 10.260 0.327
39.7050 9.823 0.320
39.7255 9.760 0.319
39.7459 9.792 0.319
39.7664 10.469 0.330
39.7869 11.146 0.341
39.8073 11.521 0.346
39.8278 11.802 0.351
39.8483 11.406 0.345
39.8687 11.063 0.339
39.8892 11.188 0.341
39.9096 10.906 0.337
39.9301 11.052 0.339
39.9506 10.615 0.333
39.9710 10.323 0.328
39.9915 10.115 0.325
40.0120 9.219 0.310
40.0324 9.198 0.310
40.0529 9.500 0.315
40.0733 9.563 0.316
40.0938 8.583 0.299
40.1143 9.281 0.311
40.1347 9.365 0.312
40.1552 9.490 0.314
40.1757 9.708 0.318
40.1961 9.531 0.315
40.2166 9.573 0.316
40.2370 9.448 0.314
40.2575 9.490 0.314
40.2780 10.385 0.329
40.2984 10.042 0.323
40.3189 10.469 0.330
40.3394 10.260 0.327
40.3598 11.427 0.345
40.3803 12.438 0.360
40.4007 11.708 0.349
40.4212 12.458 0.360
40.4417 12.208 0.357
40.4621 11.146 0.341
40.4826 11.938 0.353
40.5031 11.771 0.350
40.5235 10.948 0.338
40.5440 11.292 0.343
40.5644 11.094 0.340
40.5849 10.354 0.328
40.6054 10.448 0.330
40.6258 10.177 0.326
40.6463 10.646 0.333
40.6668 11.594 0.348
40.6872 11.333 0.344
40.7077 11.302 0.343
40.7282 10.448 0.330
40.7486 12.115 0.355
40.7691 12.125 0.355
40.7895 13.073 0.369
40.8100 14.438 0.388
40.8305 14.385 0.387
40.8509 14.604 0.390
40.8714 14.156 0.384
40.8919 13.927 0.381
40.9123 13.188 0.371
40.9328 12.896 0.367
40.9532 12.542 0.361
40.9737 12.719 0.364
40.9942 11.990 0.353
41.0146 11.240 0.342
41.0351 11.031 0.339
41.0556 10.885 0.337
41.0760 10.719 0.334
41.0965 10.781 0.335
41.1169 11.073 0.340
41.1374 11.510 0.346
41.1579 12.219 0.357
41.1783 12.625 0.363
41.1988 13.198 0.371
41.2193 14.104 0.383
41.2397 14.552 0.389
41.2602 14.708 0.391
41.2806 14.115 0.383
41.3011 13.302 0.372
41.3216 12.531 0.361
41.3420 12.313 0.358
41.3625 12.365 0.359
41.3830 11.583 0.347
41.4034 11.365 0.344
41.4239 9.531 0.315
41.4443 10.031 0.323
41.4648 9.542 0.315
41.4853 9.167 0.309
41.5057 9.104 0.308
41.5262 9.281 0.311
41.5467 9.344 0.312
41.5671 9.031 0.307
41.5876 8.271 0.294
41.6081 8.865 0.304
41.6285 8.375 0.295
41.6490 8.208 0.292
41.6694 9.344 0.312
41.6899 8.448 0.297
41.7104 8.552 0.298
41.7308 8.458 0.297
41.7513 8.375 0.295
41.7718 8.646 0.300
41.7922 8.458 0.297
41.8127 8.750 0.302
41.8331 9.250 0.310
41.8536 9.510 0.315
41.8741 9.448 0.314
41.8945 10.115 0.325
41.9150 11.594 0.348
41.9355 11.000 0.339
41.9559 10.573 0.332
41.9764 10.510 0.331
41.9968 10.219 0.326
42.0173 10.135 0.325
42.0378 9.448 0.314
42.0582 8.875 0.304
42.0787 9.250 0.310
42.0992 8.583 0.299
42.1196 8.729 0.302
42.1401 8.344 0.295
42.1605 8.500 0.298
42.1810 7.958 0.288
42.2015 7.927 0.287
42.2219 7.823 0.285
42.2424 8.000 0.289
42.2629 7.656 0.282
42.2833 8.198 0.292
42.3038 8.229 0.293
42.3243 7.729 0.284
42.3447 7.552 0.280
42.3652 7.354 0.277
42.3856 7.958 0.288
42.4061 8.010 0.289
42.4266 8.010 0.289
42.4470 8.323 0.294
42.4675 8.365 0.295
42.4880 8.292 0.294
42.5084 8.417 0.296
42.5289 8.208 0.292
42.5493 8.083 0.290
42.5698 8.271 0.294
42.5903 8.563 0.299
42.6107 8.979 0.306
42.6312 8.417 0.296
42.6517 8.375 0.295
42.6721 8.573 0.299
42.6926 8.031 0.289
42.7130 8.813 0.303
42.7335 8.438 0.296
42.7540 8.479 0.297
42.7744 8.292 0.294
42.7949 7.594 0.281
42.8154 7.750 0.284
42.8358 7.990 0.288
42.8563 8.396 0.296
42.8767 8.219 0.293
42.8972 8.042 0.289
42.9177 7.583 0.281
42.9381 7.938 0.288
42.9586 8.167 0.292
42.9791 7.635 0.282
42.9995 8.094 0.290
43.0200 8.135 0.291
43.0404 8.719 0.301
43.0609 8.094 0.290
43.0814 8.313 0.294
43.1018 8.656 0.300
43.1223 8.677 0.301
43.1428 8.698 0.301
43.1632 8.802 0.303
43.1837 9.115 0.308
43.2042 9.510 0.315
43.2246 9.906 0.321
43.2451 10.229 0.326
43.2655 10.010 0.323
43.2860 10.385 0.329
43.3065 10.052 0.324
43.3269 10.625 0.333
43.3474 10.396 0.329
43.3679 10.208 0.326
43.3883 11.094 0.340
43.4088 10.635 0.333
43.4292 10.094 0.324
43.4497 10.635 0.333
43.4702 11.250 0.342
43.4906 10.927 0.337
43.5111 10.958 0.338
43.5316 12.354 0.359
43.5520 12.208 0.357
43.5725 12.292 0.358
43.5929 13.125 0.370
43.6134 13.875 0.380
43.6339 14.490 0.389
43.6543 15.865 0.407
43.6748 16.948 0.420
43.6953 17.688 0.429
43.7157 18.198 0.435
43.7362 18.552 0.440
43.7566 17.448 0.426
43.7771 17.031 0.421
43.7976 16.260 0.412
43.8180 16.396 0.413
43.8385 15.188 0.398
43.8590 15.083 0.396
43.8794 14.719 0.392
43.8999 13.396 0.374
43.9203 12.521 0.361
43.9408 12.021 0.354
43.9613 10.927 0.337
43.9817 11.802 0.351
44.0022 11.302 0.343
44.0227 10.479 0.330
44.0431 11.000 0.339
44.0636 9.313 0.311
44.0841 10.000 0.323
44.1045 9.063 0.307
44.1250 9.208 0.310
44.1454 9.719 0.318
44.1659 8.698 0.301
44.1864 9.260 0.311
44.2068 8.781 0.302
44.2273 8.427 0.296
44.2478 8.500 0.298
44.2682 8.625 0.300
44.2887 8.375 0.295
44.3091 8.635 0.300
44.3296 8.750 0.302
44.3501 8.729 0.302
44.3705 8.667 0.300
44.3910 8.896 0.304
44.4115 8.896 0.304
44.4319 8.573 0.299
44.4524 8.656 0.300
44.4728 8.198 0.292
44.4933 8.698 0.301
44.5138 8.333 0.295
44.5342 8.073 0.290
44.5547 7.854 0.286
44.5752 7.927 0.287
44.5956 7.958 0.288
44.6161 8.500 0.298
44.6365 8.021 0.289
44.6570 7.875 0.286
44.6775 8.115 0.291
44.6979 8.156 0.291
44.7184 8.177 0.292
44.7389 8.031 0.289
44.7593 8.250 0.293
44.7798 8.115 0.291
44.8002 7.594 0.281
44.8207 8.010 0.289
44.8412 8.208 0.292
44.8616 7.833 0.286
44.8821 7.573 0.281
44.9026 8.177 0.292
44.9230 7.990 0.288
44.9435 8.104 0.291
44.9640 7.885 0.287
44.9844 8.156 0.291
45.0049 8.333 0.295
45.0253 8.063 0.290
45.0458 8.292 0.294
45.0663 8.198 0.292
45.0867 7.594 0.281
45.1072 7.823 0.285
45.1277 7.906 0.287
45.1481 8.042 0.289
45.1686 8.219 0.293
45.1890 9.042 0.307
45.2095 8.625 0.300
45.2300 9.177 0.309
45.2504 9.823 0.320
45.2709 9.771 0.319
45.2914 10.490 0.331
45.3118 10.510 0.331
45.3323 10.563 0.332
45.3527 10.000 0.323
45.3732 9.521 0.315
45.3937 9.521 0.315
45.4141 10.021 0.323
45.4346 9.844 0.320
45.4551 9.583 0.316
45.4755 9.208 0.310
45.4960 8.979 0.306
45.5164 8.240 0.293
45.5369 8.479 0.297
45.5574 7.865 0.286
45.5778 7.635 0.282
45.5983 7.760 0.284
45.6188 7.698 0.283
45.6392 7.583 0.281
45.6597 7.438 0.278
45.6801 7.979 0.288
45.7006 6.688 0.264
45.7211 6.969 0.269
45.7415 7.604 0.281
45.7620 7.271 0.275
45.7825 7.104 0.272
45.8029 7.583 0.281
45.8234 7.198 0.274
45.8439 7.365 0.277
45.8643 7.240 0.275
45.8848 7.448 0.279
45.9052 7.271 0.275
45.9257 8.063 0.290
45.9462 7.385 0.277
45.9666 7.813 0.285
45.9871 7.531 0.280
46.0076 7.521 0.280
46.0280 7.292 0.276
46.0485 7.594 0.281
46.0689 7.104 0.272
46.0894 6.719 0.265
46.1099 6.865 0.267
46.1303 7.156 0.273
46.1508 7.208 0.274
46.1713 6.521 0.261
46.1917 6.969 0.269
46.2122 7.042 0.271
46.2326 6.656 0.263
46.2531 6.896 0.268
46.2736 7.292 0.276
46.2940 7.406 0.278
46.3145 7.177 0.273
46.3350 7.115 0.272
46.3554 7.063 0.271
46.3759 6.813 0.266
46.3963 6.490 0.260
46.4168 6.896 0.268
46.4373 6.479 0.260
46.4577 6.406 0.258
46.4782 6.719 0.265
46.4987 7.156 0.273
46.5191 7.219 0.274
46.5396 7.333 0.276
46.5601 7.208 0.274
46.5805 7.438 0.278
46.6010 7.865 0.286
46.6214 7.729 0.284
46.6419 8.333 0.295
46.6624 8.344 0.295
46.6828 8.198 0.292
46.7033 7.479 0.279
46.7238 7.448 0.279
46.7442 7.625 0.282
46.7647 7.500 0.280
46.7851 7.958 0.288
46.8056 7.708 0.283
46.8261 7.083 0.272
46.8465 7.250 0.275
46.8670 7.156 0.273
46.8875 6.948 0.269
46.9079 6.875 0.268
46.9284 6.927 0.269
46.9488 7.208 0.274
46.9693 6.896 0.268
46.9898 6.875 0.268
47.0102 6.292 0.256
47.0307 7.240 0.275
47.0512 6.438 0.259
47.0716 6.740 0.265
47.0921 7.344 0.277
47.1125 6.552 0.261
47.1330 7.219 0.274
47.1535 6.760 0.265
47.1739 6.865 0.267
47.1944 7.010 0.270
47.2149 7.177 0.273
47.2353 7.073 0.271
47.2558 6.344 0.257
47.2762 6.500 0.260
47.2967 7.135 0.273
47.3172 7.344 0.277
47.3376 6.667 0.264
47.3581 6.760 0.265
47.3786 6.823 0.267
47.3990 7.292 0.276
47.4195 7.073 0.271
47.4400 7.073 0.271
47.4604 7.385 0.277
47.4809 7.375 0.277
47.5013 7.563 0.281
47.5218 7.740 0.284
47.5423 7.604 0.281
47.5627 7.677 0.283
47.5832 7.271 0.275
47.6037 7.333 0.276
47.6241 8.260 0.293
47.6446 8.323 0.294
47.6650 8.177 0.292
47.6855 8.552 0.298
47.7060 9.167 0.309
47.7264 9.542 0.315
47.7469 9.854 0.320
47.7674 9.531 0.315
47.7878 9.656 0.317
47.8083 8.802 0.303
47.8287 9.156 0.309
47.8492 8.427 0.296
47.8697 8.188 0.292
47.8901 8.469 0.297
47.9106 7.781 0.285
47.9311 7.698 0.283
47.9515 7.406 0.278
47.9720 7.042 0.271
47.9924 7.313 0.276
48.0129 6.771 0.266
48.0334 6.813 0.266
48.0538 6.979 0.270
48.0743 6.698 0.264
48.0948 6.646 0.263
48.1152 6.260 0.255
48.1357 6.594 0.262
48.1561 6.573 0.262
48.1766 7.104 0.272
48.1971 6.625 0.263
48.2175 7.115 0.272
48.2380 6.990 0.270
48.2585 7.250 0.275
48.2789 7.656 0.282
48.2994 7.635 0.282
48.3199 7.854 0.286
48.3403 8.083 0.290
48.3608 7.198 0.274
48.3812 7.875 0.286
48.4017 7.344 0.277
48.4222 7.385 0.277
48.4426 7.365 0.277
48.4631 7.521 0.280
48.4836 7.313 0.276
48.5040 7.563 0.281
48.5245 7.594 0.281
48.5449 7.323 0.276
48.5654 7.063 0.271
48.5859 7.802 0.285
48.6063 7.448 0.279
48.6268 7.344 0.277
48.6473 7.417 0.278
48.6677 7.781 0.285
48.6882 8.073 0.290
48.7086 7.667 0.283
48.7291 8.042 0.289
48.7496 7.979 0.288
48.7700 7.948 0.288
48.7905 7.385 0.277
48.8110 7.313 0.276
48.8314 7.500 0.280
48.8519 7.094 0.272
48.8723 7.323 0.276
48.8928 7.646 0.282
48.9133 7.000 0.270
48.9337 6.667 0.264
48.9542 6.823 0.267
48.9747 6.604 0.262
48.9951 6.563 0.261
49.0156 7.125 0.272
49.0360 6.688 0.264
49.0565 7.302 0.276
49.0770 6.813 0.266
49.0974 7.354 0.277
49.1179 7.427 0.278
49.1384 7.365 0.277
49.1588 6.969 0.269
49.1793 7.260 0.275
49.1998 7.313 0.276
49.2202 7.271 0.275
49.2407 6.896 0.268
49.2611 6.865 0.267
49.2816 6.875 0.268
49.3021 7.583 0.281
49.3225 7.594 0.281
49.3430 7.250 0.275
49.3635 7.594 0.281
49.3839 7.854 0.286
49.4044 7.365 0.277
49.4248 7.250 0.275
49.4453 7.667 0.283
49.4658 7.896 0.287
49.4862 7.271 0.275
49.5067 7.990 0.288
49.5272 7.823 0.285
49.5476 7.740 0.284
49.5681 7.604 0.281
49.5885 7.667 0.283
49.6090 7.750 0.284
49.6295 8.000 0.289
49.6499 8.510 0.298
49.6704 8.344 0.295
49.6909 8.490 0.297
49.7113 8.792 0.303
49.7318 8.510 0.298
49.7522 8.708 0.301
49.7727 8.948 0.305
49.7932 9.490 0.314
49.8136 10.344 0.328
49.8341 10.375 0.329
49.8546 11.438 0.345
49.8750 11.885 0.352
49.8955 12.729 0.364
49.9159 13.615 0.377
49.9364 13.594 0.376
49.9569 13.542 0.376
49.9773 13.146 0.370
49.9978 12.146 0.356
50.0183 12.115 0.355
50.0387 12.156 0.356
50.0592 11.906 0.352
50.0797 11.458 0.345
50.1001 10.958 0.338
50.1206 9.750 0.319
50.1410 10.042 0.323
50.1615 9.500 0.315
50.1820 9.656 0.317
50.2024 9.646 0.317
50.2229 9.344 0.312
50.2434 9.948 0.322
50.2638 9.365 0.312
50.2843 8.938 0.305
50.3047 8.563 0.299
50.3252 8.521 0.298
50.3457 8.250 0.293
50.3661 8.010 0.289
50.3866 7.896 0.287
50.4071 8.094 0.290
50.4275 7.302 0.276
50.4480 6.781 0.266
50.4684 7.021 0.270
50.4889 6.344 0.257
50.5094 7.198 0.274
50.5298 7.021 0.270
50.5503 6.458 0.259
50.5708 6.854 0.267
50.5912 6.406 0.258
50.6117 6.750 0.265
50.6321 6.781 0.266
50.6526 7.490 0.279
50.6731 6.396 0.258
50.6935 6.458 0.259
50.7140 6.365 0.257
50.7345 6.490 0.260
50.7549 6.698 0.264
50.7754 6.385 0.258
50.7959 6.417 0.259
50.8163 6.979 0.270
50.8368 5.990 0.250
50.8572 6.333 0.257
50.8777 5.854 0.247
50.8982 6.198 0.254
50.9186 5.979 0.250
50.9391 6.521 0.261
50.9596 5.885 0.248
50.9800 6.375 0.258
51.0005 6.667 0.264
51.0209 6.604 0.262
51.0414 6.656 0.263
51.0619 6.469 0.260
51.0823 6.667 0.264
51.1028 7.000 0.270
51.1233 7.458 0.279
51.1437 6.979 0.270
51.1642 7.427 0.278
51.1846 7.375 0.277
51.2051 6.729 0.265
51.2256 7.042 0.271
51.2460 7.010 0.270
51.2665 6.875 0.268
51.2870 7.042 0.271
51.3074 6.583 0.262
51.3279 7.167 0.273
51.3483 6.688 0.264
51.3688 6.427 0.259
51.3893 7.260 0.275
51.4097 6.563 0.261
51.4302 6.198 0.254
51.4507 6.354 0.257
51.4711 6.552 0.261
51.4916 6.385 0.258
51.5120 6.406 0.258
51.5325 6.427 0.259
51.5530 6.500 0.260
51.5734 6.490 0.260
51.5939 6.542 0.261
51.6144 6.448 0.259
51.6348 6.594 0.262
51.6553 6.990 0.270
51.6758 7.115 0.272
51.6962 6.729 0.265
51.7167 7.063 0.271
51.7371 6.833 0.267
51.7576 7.396 0.278
51.7781 6.917 0.268
51.7985 6.708 0.264
51.8190 7.458 0.279
51.8395 7.438 0.278
51.8599 6.656 0.263
51.8804 7.458 0.279
51.9008 6.688 0.264
51.9213 6.948 0.269
51.9418 6.333 0.257
51.9622 7.208 0.274
51.9827 6.448 0.259
52.0032 6.385 0.258
52.0236 5.938 0.249
52.0441 6.198 0.254
52.0645 6.833 0.267
52.0850 6.156 0.253
52.1055 6.229 0.255
52.1259 5.927 0.248
52.1464 5.948 0.249
52.1669 6.323 0.257
52.1873 6.115 0.252
52.2078 6.010 0.250
52.2282 5.948 0.249
52.2487 5.958 0.249
52.2692 5.781 0.245
52.2896 5.594 0.241
52.3101 5.323 0.235
52.3306 6.229 0.255
52.3510 5.958 0.249
52.3715 5.813 0.246
52.3919 5.854 0.247
52.4124 6.229 0.255
52.4329 6.031 0.251
52.4533 6.052 0.251
52.4738 5.969 0.249
52.4943 5.917 0.248
52.5147 5.646 0.243
52.5352 5.802 0.246
52.5557 5.958 0.249
52.5761 6.198 0.254
52.5966 5.635 0.242
52.6170 6.083 0.252
52.6375 5.667 0.243
52.6580 5.656 0.243
52.6784 5.469 0.239
52.6989 5.583 0.241
52.7194 5.635 0.242
52.7398 5.594 0.241
52.7603 5.188 0.232
52.7807 5.396 0.237
52.8012 5.406 0.237
52.8217 5.708 0.244
52.8421 5.229 0.233
52.8626 5.833 0.247
52.8831 5.385 0.237
52.9035 5.490 0.239
52.9240 5.615 0.242
52.9444 5.500 0.239
52.9649 5.125 0.231
52.9854 5.458 0.238
53.0058 5.625 0.242
53.0263 5.458 0.238
53.0468 5.333 0.236
53.0672 5.625 0.242
53.0877 5.771 0.245
53.1081 5.698 0.244
53.1286 5.667 0.243
53.1491 6.104 0.252
53.1695 5.333 0.236
53.1900 6.146 0.253
53.2105 5.667 0.243
53.2309 5.490 0.239
53.2514 5.917 0.248
53.2718 5.323 0.235
53.2923 5.396 0.237
53.3128 5.552 0.240
53.3332 5.042 0.229
53.3537 5.188 0.232
53.3742 5.490 0.239
53.3946 5.260 0.234
53.4151 4.927 0.227
53.4356 4.906 0.226
53.4560 5.594 0.241
53.4765 5.063 0.230
53.4969 4.823 0.224
53.5174 4.979 0.228
53.5379 4.854 0.225
53.5583 5.073 0.230
53.5788 5.094 0.230
53.5993 5.021 0.229
53.6197 5.094 0.230
53.6402 5.260 0.234
53.6606 5.344 0.236
53.6811 5.021 0.229
53.7016 5.417 0.238
53.7220 5.208 0.233
53.7425 5.510 0.240
53.7630 5.219 0.233
53.7834 5.583 0.241
53.8039 5.406 0.237
53.8243 5.771 0.245
53.8448 5.594 0.241
53.8653 5.208 0.233
53.8857 5.323 0.235
53.9062 5.063 0.230
53.9267 5.417 0.238
53.9471 5.531 0.240
53.9676 5.375 0.237
53.9880 5.458 0.238
54.0085 5.406 0.237
54.0290 5.500 0.239
54.0494 5.448 0.238
54.0699 5.271 0.234
54.0904 5.844 0.247
54.1108 5.563 0.241
54.1313 5.771 0.245
54.1517 5.979 0.250
54.1722 5.698 0.244
54.1927 5.833 0.247
54.2131 5.615 0.242
54.2336 5.792 0.246
54.2541 5.917 0.248
54.2745 5.896 0.248
54.2950 5.771 0.245
54.3155 5.313 0.235
54.3359 5.750 0.245
54.3564 5.458 0.238
54.3768 5.760 0.245
54.3973 5.469 0.239
54.4178 5.146 0.232
54.4382 5.458 0.238
54.4587 5.698 0.244
54.4792 5.021 0.229
54.4996 5.354 0.236
54.5201 5.271 0.234
54.5405 4.917 0.226
54.5610 5.125 0.231
54.5815 5.635 0.242
54.6019 5.625 0.242
54.6224 5.104 0.231
54.6429 5.521 0.240
54.6633 5.833 0.247
54.6838 5.677 0.243
54.7042 5.219 0.233
54.7247 5.406 0.237
54.7452 5.438 0.238
54.7656 5.198 0.233
54.7861 5.115 0.231
54.8066 5.615 0.242
54.8270 5.458 0.238
54.8475 5.354 0.236
54.8679 5.865 0.247
54.8884 5.490 0.239
54.9089 4.906 0.226
54.9293 5.375 0.237
54.9498 5.385 0.237
54.9703 5.729 0.244
54.9907 5.896 0.248
55.0112 5.865 0.247
55.0317 6.240 0.255
55.0521 6.438 0.259
55.0726 7.188 0.274
55.0930 8.052 0.290
55.1135 9.281 0.311
55.1340 11.156 0.341
55.1544 12.583 0.362
55.1749 14.500 0.389
55.1954 16.083 0.409
55.2158 15.313 0.399
55.2363 14.458 0.388
55.2567 13.615 0.377
55.2772 12.906 0.367
55.2977 12.042 0.354
55.3181 12.052 0.354
55.3386 12.219 0.357
55.3591 12.177 0.356
55.3795 12.260 0.357
55.4000 10.135 0.325
55.4204 8.458 0.297
55.4409 7.990 0.288
55.4614 7.656 0.282
55.4818 7.854 0.286
55.5023 7.740 0.284
55.5228 6.396 0.258
55.5432 7.063 0.271
55.5637 6.615 0.262
55.5841 6.448 0.259
55.6046 6.552 0.261
55.6251 6.052 0.251
55.6455 6.156 0.253
55.6660 6.281 0.256
55.6865 6.198 0.254
55.7069 6.344 0.257
55.7274 6.438 0.259
55.7478 6.344 0.257
55.7683 6.583 0.262
55.7888 7.000 0.270
55.8092 6.625 0.263
55.8297 6.521 0.261
55.8502 6.573 0.262
55.8706 6.844 0.267
55.8911 6.823 0.267
55.9116 6.844 0.267
55.9320 6.906 0.268
55.9525 6.958 0.269
55.9729 7.156 0.273
55.9934 7.042 0.271
56.0139 6.552 0.261
56.0343 7.146 0.273
56.0548 7.354 0.277
56.0753 7.271 0.275
56.0957 7.760 0.284
56.1162 7.813 0.285
56.1366 7.844 0.286
56.1571 7.771 0.285
56.1776 8.729 0.302
56.1980 8.604 0.299
56.2185 9.750 0.319
56.2390 8.615 0.300
56.2594 8.781 0.302
56.2799 8.521 0.298
56.3003 7.260 0.275
56.3208 7.552 0.280
56.3413 7.688 0.283
56.3617 7.344 0.277
56.3822 7.188 0.274
56.4027 6.688 0.264
56.4231 6.635 0.263
56.4436 5.875 0.247
56.4640 5.948 0.249
56.4845 5.604 0.242
56.5050 5.948 0.249
56.5254 5.969 0.249
56.5459 5.375 0.237
56.5664 5.469 0.239
56.5868 5.604 0.242
56.6073 5.510 0.240
56.6277 5.125 0.231
56.6482 5.042 0.229
56.6687 5.500 0.239
56.6891 5.646 0.243
56.7096 5.583 0.241
56.7301 5.969 0.249
56.7505 5.542 0.240
56.7710 5.927 0.248
56.7915 5.292 0.235
56.8119 5.167 0.232
56.8324 5.365 0.236
56.8528 5.750 0.245
56.8733 5.333 0.236
56.8938 4.885 0.226
56.9142 5.271 0.234
56.9347 5.104 0.231
56.9552 5.167 0.232
56.9756 4.958 0.227
56.9961 5.042 0.229
57.0165 4.958 0.227
57.0370 5.167 0.232
57.0575 5.031 0.229
57.0779 4.833 0.224
57.0984 4.854 0.225
57.1189 5.229 0.233
57.1393 4.865 0.225
57.1598 5.010 0.228
57.1802 4.625 0.219
57.2007 4.698 0.221
57.2212 4.708 0.221
57.2416 5.167 0.232
57.2621 4.927 0.227
57.2826 4.938 0.227
57.3030 4.813 0.224
57.3235 4.875 0.225
57.3439 5.063 0.230
57.3644 5.000 0.228
57.3849 5.375 0.237
57.4053 4.635 0.220
57.4258 5.083 0.230
57.4463 5.031 0.229
57.4667 4.771 0.223
57.4872 5.406 0.237
57.5076 4.594 0.219
57.5281 4.906 0.226
57.5486 5.385 0.237
57.5690 5.438 0.238
57.5895 4.771 0.223
57.6100 5.594 0.241
57.6304 5.333 0.236
57.6509 5.458 0.238
57.6714 5.021 0.229
57.6918 5.427 0.238
57.7123 4.906 0.226
57.7327 5.042 0.229
57.7532 5.208 0.233
57.7737 5.167 0.232
57.7941 5.490 0.239
57.8146 5.240 0.234
57.8351 5.354 0.236
57.8555 5.792 0.246
57.8760 5.719 0.244
57.8964 5.500 0.239
57.9169 5.729 0.244
57.9374 6.250 0.255
57.9578 6.313 0.256
57.9783 6.271 0.256
57.9988 6.375 0.258
58.0192 6.667 0.264
58.0397 7.375 0.277
58.0601 7.229 0.274
58.0806 7.479 0.279
58.1011 7.354 0.277
58.1215 7.417 0.278
58.1420 6.698 0.264
58.1625 7.271 0.275
58.1829 7.302 0.276
58.2034 7.010 0.270
58.2238 7.000 0.270
58.2443 6.938 0.269
58.2648 6.448 0.259
58.2852 6.490 0.260
58.3057 6.531 0.261
58.3262 6.240 0.255
58.3466 5.844 0.247
58.3671 5.240 0.234
58.3875 5.594 0.241
58.4080 5.896 0.248
58.4285 5.427 0.238
58.4489 5.375 0.237
58.4694 5.583 0.241
58.4899 5.563 0.241
58.5103 5.531 0.240
58.5308 5.688 0.243
58.5513 5.615 0.242
58.5717 5.448 0.238
58.5922 5.521 0.240
58.6126 5.542 0.240
58.6331 5.427 0.238
58.6536 5.396 0.237
58.6740 5.188 0.232
58.6945 5.385 0.237
58.7150 5.375 0.237
58.7354 5.448 0.238
58.7559 5.240 0.234
58.7763 5.260 0.234
58.7968 5.104 0.231
58.8173 5.385 0.237
58.8377 4.823 0.224
58.8582 5.333 0.236
58.8787 4.844 0.225
58.8991 4.969 0.228
58.9196 4.531 0.217
58.9400 5.063 0.230
58.9605 5.010 0.228
58.9810 5.010 0.228
59.0014 5.240 0.234
59.0219 4.625 0.219
59.0424 5.156 0.232
59.0628 5.771 0.245
59.0833 5.250 0.234
59.1037 4.771 0.223
59.1242 5.146 0.232
59.1447 5.792 0.246
59.1651 5.469 0.239
59.1856 6.021 0.250
59.2061 5.708 0.244
59.2265 6.010 0.250
59.2470 6.667 0.264
59.2675 6.625 0.263
59.2879 6.302 0.256
59.3084 6.125 0.253
59.3288 6.052 0.251
59.3493 5.604 0.242
59.3698 5.510 0.240
59.3902 5.740 0.245
59.4107 5.469 0.239
59.4312 5.563 0.241
59.4516 5.375 0.237
59.4721 5.323 0.235
59.4925 5.104 0.231
59.5130 4.760 0.223
59.5335 4.906 0.226
59.5539 4.813 0.224
59.5744 4.865 0.225
59.5949 4.635 0.220
59.6153 4.438 0.215
59.6358 4.469 0.216
59.6562 4.469 0.216
59.6767 4.240 0.210
59.6972 4.313 0.212
59.7176 4.844 0.225
59.7381 4.448 0.215
59.7586 4.531 0.217
59.7790 4.833 0.224
59.7995 4.823 0.224
59.8199 4.885 0.226
59.8404 4.510 0.217
59.8609 4.344 0.213
59.8813 4.833 0.224
59.9018 5.271 0.234
59.9223 5.490 0.239
59.9427 5.938 0.249
59.9632 5.781 0.245
59.9836 6.115 0.252
60.0041 6.313 0.256
60.0246 5.823 0.246
60.0450 5.740 0.245
60.0655 5.833 0.247
60.0860 5.813 0.246
60.1064 5.969 0.249
60.1269 5.698 0.244
60.1474 5.146 0.232
60.1678 5.042 0.229
60.1883 5.365 0.236
60.2087 5.406 0.237
60.2292 4.771 0.223
60.2497 4.281 0.211
60.2701 4.698 0.221
60.2906 4.865 0.225
60.3111 4.573 0.218
60.3315 4.448 0.215
60.3520 4.365 0.213
60.3724 4.281 0.211
60.3929 4.719 0.222
60.4134 4.188 0.209
60.4338 4.313 0.212
60.4543 4.438 0.215
60.4748 4.500 0.217
60.4952 4.458 0.216
60.5157 4.021 0.205
60.5361 4.594 0.219
60.5566 4.302 0.212
60.5771 4.656 0.220
60.5975 4.042 0.205
60.6180 4.177 0.209
60.6385 4.188 0.209
60.6589 4.302 0.212
60.6794 4.333 0.212
60.6998 3.750 0.198
60.7203 3.948 0.203
60.7408 4.198 0.209
60.7612 4.292 0.211
60.7817 4.333 0.212
60.8022 4.469 0.216
60.8226 3.948 0.203
60.8431 4.448 0.215
60.8635 4.458 0.216
60.8840 4.125 0.207
60.9045 4.063 0.206
60.9249 4.000 0.204
60.9454 4.344 0.213
60.9659 4.458 0.216
60.9863 4.302 0.212
61.0068 4.250 0.210
61.0273 4.313 0.212
61.0477 4.135 0.208
61.0682 4.490 0.216
61.0886 4.813 0.224
61.1091 4.229 0.210
61.1296 4.427 0.215
61.1500 4.083 0.206
61.1705 3.896 0.201
61.1910 4.229 0.210
61.2114 4.365 0.213
61.2319 4.198 0.209
61.2523 4.552 0.218
61.2728 4.698 0.221
61.2933 4.146 0.208
61.3137 4.094 0.207
61.3342 4.354 0.213
61.3547 4.417 0.214
61.3751 4.156 0.208
61.3956 4.427 0.215
61.4160 4.469 0.216
61.4365 4.229 0.210
61.4570 4.250 0.210
61.4774 4.875 0.225
61.4979 4.271 0.211
61.5184 4.115 0.207
61.5388 4.156 0.208
61.5593 4.083 0.206
61.5797 4.188 0.209
61.6002 4.333 0.212
61.6207 4.677 0.221
61.6411 4.260 0.211
61.6616 4.313 0.212
61.6821 3.833 0.200
61.7025 4.396 0.214
61.7230 3.969 0.203
61.7434 4.031 0.205
61.7639 4.208 0.209
61.7844 3.823 0.200
61.8048 4.250 0.210
61.8253 4.542 0.218
61.8458 4.438 0.215
61.8662 4.094 0.207
61.8867 4.365 0.213
61.9072 4.365 0.213
61.9276 3.917 0.202
61.9481 4.042 0.205
61.9685 4.021 0.205
61.9890 4.083 0.206
62.0095 4.667 0.220
62.0299 4.396 0.214
62.0504 4.292 0.211
62.0709 4.052 0.205
62.0913 4.698 0.221
62.1118 4.396 0.214
62.1322 4.281 0.211
62.1527 4.219 0.210
62.1732 4.719 0.222
62.1936 5.188 0.232
62.2141 4.625 0.219
62.2346 4.760 0.223
62.2550 4.948 0.227
62.2755 4.615 0.219
62.2959 4.750 0.222
62.3164 4.500 0.217
62.3369 4.563 0.218
62.3573 4.271 0.211
62.3778 4.260 0.211
62.3983 4.448 0.215
62.4187 4.573 0.218
62.4392 4.479 0.216
62.4596 4.188 0.209
62.4801 4.302 0.212
62.5006 4.021 0.205
62.5210 4.396 0.214
62.5415 4.135 0.208
62.5620 4.385 0.214
62.5824 4.052 0.205
62.6029 3.854 0.200
62.6233 3.938 0.203
62.6438 3.885 0.201
62.6643 3.760 0.198
62.6847 3.938 0.203
62.7052 3.854 0.200
62.7257 3.708 0.197
62.7461 3.750 0.198
62.7666 3.396 0.188
62.7871 3.854 0.200
62.8075 3.615 0.194
62.8280 3.469 0.190
62.8484 3.927 0.202
62.8689 3.990 0.204
62.8894 4.208 0.209
62.9098 3.646 0.195
62.9303 4.094 0.207
62.9508 3.698 0.196
62.9712 3.844 0.200
62.9917 3.667 0.195
63.0121 3.927 0.202
63.0326 4.042 0.205
63.0531 3.885 0.201
63.0735 3.708 0.197
63.0940 4.229 0.210
63.1145 4.115 0.207
63.1349 4.010 0.204
63.1554 3.833 0.200
63.1758 4.052 0.205
63.1963 3.792 0.199
63.2168 3.979 0.204
63.2372 3.938 0.203
63.2577 4.094 0.207
63.2782 3.823 0.200
63.2986 4.177 0.209
63.3191 3.979 0.204
63.3395 4.531 0.217
63.3600 4.010 0.204
63.3805 4.167 0.208
63.4009 4.427 0.215
63.4214 4.375 0.213
63.4419 4.292 0.211
63.4623 4.552 0.218
63.4828 4.667 0.220
63.5033 4.667 0.220
63.5237 4.740 0.222
63.5442 4.677 0.221
63.5646 4.406 0.214
63.5851 4.729 0.222
63.6056 5.000 0.228
63.6260 4.896 0.226
63.6465 4.865 0.225
63.6670 4.875 0.225
63.6874 5.250 0.234
63.7079 4.948 0.227
63.7283 4.479 0.216
63.7488 5.021 0.229
63.7693 4.594 0.219
63.7897 5.594 0.241
63.8102 5.427 0.238
63.8307 5.760 0.245
63.8511 5.229 0.233
63.8716 5.073 0.230
63.8920 4.854 0.225
63.9125 4.781 0.223
63.9330 4.833 0.224
63.9534 5.073 0.230
63.9739 4.896 0.226
63.9944 4.927 0.227
64.0148 4.896 0.226
64.0353 4.823 0.224
64.0557 5.156 0.232
64.0762 5.156 0.232
64.0967 4.740 0.222
64.1171 4.948 0.227
64.1376 5.219 0.233
64.1581 4.802 0.224
64.1785 5.125 0.231
64.1990 4.365 0.213
64.2194 4.719 0.222
64.2399 4.979 0.228
64.2604 4.958 0.227
64.2808 5.042 0.229
64.3013 5.010 0.228
64.3218 4.865 0.225
64.3422 4.771 0.223
64.3627 4.802 0.224
64.3832 4.854 0.225
64.4036 4.698 0.221
64.4241 4.708 0.221
64.4445 4.958 0.227
64.4650 4.958 0.227
64.4855 4.646 0.220
64.5059 5.073 0.230
64.5264 5.198 0.233
64.5469 5.229 0.233
64.5673 5.479 0.239
64.5878 5.448 0.238
64.6082 6.365 0.257
64.6287 5.688 0.243
64.6492 7.260 0.275
64.6696 7.208 0.274
64.6901 7.469 0.279
64.7106 7.385 0.277
64.7310 6.708 0.264
64.7515 6.167 0.253
64.7719 5.833 0.247
64.7924 6.375 0.258
64.8129 6.031 0.251
64.8333 6.156 0.253
64.8538 6.469 0.260
64.8743 6.250 0.255
64.8947 5.906 0.248
64.9152 5.260 0.234
64.9356 5.479 0.239
64.9561 5.000 0.228
64.9766 4.750 0.222
64.9970 4.844 0.225
65.0175 4.438 0.215
65.0380 4.958 0.227
65.0584 4.927 0.227
65.0789 4.667 0.220
65.0993 4.927 0.227
65.1198 4.240 0.210
65.1403 4.625 0.219
65.1607 4.427 0.215
65.1812 4.573 0.218
65.2017 4.813 0.224
65.2221 4.250 0.210
65.2426 4.552 0.218
65.2631 4.146 0.208
65.2835 4.208 0.209
65.3040 4.417 0.214
65.3244 4.438 0.215
65.3449 4.271 0.211
65.3654 4.385 0.214
65.3858 4.281 0.211
65.4063 4.542 0.218
65.4268 4.615 0.219
65.4472 4.719 0.222
65.4677 4.719 0.222
65.4881 4.646 0.220
65.5086 4.146 0.208
65.5291 4.656 0.220
65.5495 4.927 0.227
65.5700 4.719 0.222
65.5905 5.281 0.235
65.6109 5.083 0.230
65.6314 4.854 0.225
65.6518 5.125 0.231
65.6723 5.083 0.230
65.6928 5.333 0.236
65.7132 4.823 0.224
65.7337 5.000 0.228
65.7542 4.865 0.225
65.7746 4.573 0.218
65.7951 4.448 0.215
65.8155 4.615 0.219
65.8360 4.583 0.219
65.8565 4.458 0.216
65.8769 4.031 0.205
65.8974 4.667 0.220
65.9179 4.635 0.220
65.9383 4.594 0.219
65.9588 4.333 0.212
65.9792 4.604 0.219
65.9997 4.240 0.210
66.0202 4.188 0.209
66.0406 4.167 0.208
66.0611 4.594 0.219
66.0816 4.104 0.207
66.1020 4.281 0.211
66.1225 3.927 0.202
66.1430 4.521 0.217
66.1634 4.125 0.207
66.1839 3.938 0.203
66.2043 3.906 0.202
66.2248 4.406 0.214
66.2453 4.073 0.206
66.2657 4.219 0.210
66.2862 4.125 0.207
66.3067 3.927 0.202
66.3271 3.948 0.203
66.3476 3.938 0.203
66.3680 4.229 0.210
66.3885 3.833 0.200
66.4090 3.979 0.204
66.4294 4.083 0.206
66.4499 3.844 0.200
66.4704 4.219 0.210
66.4908 3.729 0.197
66.5113 3.573 0.193
66.5317 4.083 0.206
66.5522 4.042 0.205
66.5727 3.969 0.203
66.5931 4.281 0.211
66.6136 3.781 0.198
66.6341 4.281 0.211
66.6545 3.771 0.198
66.6750 3.990 0.204
66.6954 3.646 0.195
66.7159 3.646 0.195
66.7364 3.938 0.203
66.7568 4.021 0.205
66.7773 3.875 0.201
66.7978 4.260 0.211
66.8182 3.844 0.200
66.8387 4.115 0.207
66.8591 4.021 0.205
66.8796 3.906 0.202
66.9001 4.135 0.208
66.9205 4.146 0.208
66.9410 4.094 0.207
66.9615 4.177 0.209
66.9819 4.063 0.206
67.0024 4.229 0.210
67.0229 4.313 0.212
67.0433 4.135 0.208
67.0638 4.469 0.216
67.0842 4.188 0.209
67.1047 4.167 0.208
67.1252 4.885 0.226
67.1456 4.781 0.223
67.1661 4.792 0.223
67.1866 4.990 0.228
67.2070 5.563 0.241
67.2275 5.208 0.233
67.2479 5.406 0.237
67.2684 6.042 0.251
67.2889 6.031 0.251
67.3093 6.031 0.251
67.3298 6.354 0.257
67.3503 6.656 0.263
67.3707 5.802 0.246
67.3912 6.375 0.258
67.4116 6.385 0.258
67.4321 6.417 0.259
67.4526 6.250 0.255
67.4730 5.729 0.244
67.4935 5.979 0.250
67.5140 5.583 0.241
67.5344 5.521 0.240
67.5549 5.760 0.245
67.5753 5.646 0.243
67.5958 5.323 0.235
67.6163 5.208 0.233
67.6367 5.177 0.232
67.6572 5.469 0.239
67.6777 5.302 0.235
67.6981 4.979 0.228
67.7186 4.948 0.227
67.7391 4.854 0.225
67.7595 4.583 0.219
67.7800 4.719 0.222
67.8004 4.792 0.223
67.8209 4.771 0.223
67.8414 4.917 0.226
67.8618 4.719 0.222
67.8823 4.406 0.214
67.9028 4.010 0.204
67.9232 4.510 0.217
67.9437 4.125 0.207
67.9641 4.490 0.216
67.9846 4.417 0.214
68.0051 4.406 0.214
68.0255 4.260 0.211
68.0460 4.615 0.219
68.0665 4.219 0.210
68.0869 4.438 0.215
68.1074 4.375 0.213
68.1278 3.917 0.202
68.1483 4.583 0.219
68.1688 4.229 0.210
68.1892 4.396 0.214
68.2097 4.448 0.215
68.2302 4.688 0.221
68.2506 4.167 0.208
68.2711 4.490 0.216
68.2915 4.656 0.220
68.3120 4.729 0.222
68.3325 4.688 0.221
68.3529 4.146 0.208
68.3734 4.750 0.222
68.3939 4.781 0.223
68.4143 5.135 0.231
68.4348 4.688 0.221
68.4552 4.667 0.220
68.4757 4.260 0.211
68.4962 4.604 0.219
68.5166 4.552 0.218
68.5371 4.385 0.214
68.5576 4.406 0.214
68.5780 3.875 0.201
68.5985 4.438 0.215
68.6190 4.042 0.205
68.6394 4.292 0.211
68.6599 4.719 0.222
68.6803 4.177 0.209
68.7008 4.510 0.217
68.7213 4.281 0.211
68.7417 3.865 0.201
68.7622 4.115 0.207
68.7827 3.844 0.200
68.8031 3.958 0.203
68.8236 3.990 0.204
68.8440 4.125 0.207
68.8645 3.906 0.202
68.8850 4.146 0.208
68.9054 3.854 0.200
68.9259 3.771 0.198
68.9464 3.760 0.198
68.9668 3.688 0.196
68.9873 4.292 0.211
69.0077 3.771 0.198
69.0282 4.031 0.205
69.0487 4.042 0.205
69.0691 3.990 0.204
69.0896 4.260 0.211
69.1101 4.208 0.209
69.1305 4.417 0.214
69.1510 4.604 0.219
69.1714 4.510 0.217
69.1919 4.417 0.214
69.2124 4.625 0.219
69.2328 4.646 0.220
69.2533 5.260 0.234
69.2738 5.063 0.230
69.2942 5.198 0.233
69.3147 4.708 0.221
69.3351 4.844 0.225
69.3556 5.240 0.234
69.3761 4.385 0.214
69.3965 4.552 0.218
69.4170 4.698 0.221
69.4375 4.552 0.218
69.4579 4.594 0.219
69.4784 4.563 0.218
69.4989 4.052 0.205
69.5193 4.635 0.220
69.5398 4.146 0.208
69.5602 4.042 0.205
69.5807 3.906 0.202
69.6012 3.740 0.197
69.6216 3.719 0.197
69.6421 3.823 0.200
69.6626 3.708 0.197
69.6830 3.417 0.189
69.7035 3.688 0.196
69.7239 3.635 0.195
69.7444 3.604 0.194
69.7649 3.510 0.191
69.7853 3.625 0.194
69.8058 3.594 0.193
69.8263 3.552 0.192
69.8467 3.323 0.186
69.8672 3.542 0.192
69.8876 3.240 0.184
69.9081 3.583 0.193
69.9286 3.292 0.185
69.9490 3.250 0.184
69.9695 3.385 0.188
69.9900 3.146 0.181
70.0104 3.281 0.185
70.0309 3.563 0.193
70.0513 3.646 0.195
70.0718 3.302 0.185
70.0923 3.719 0.197
70.1127 3.521 0.192
70.1332 3.135 0.181
70.1537 3.500 0.191
70.1741 3.542 0.192
70.1946 3.802 0.199
70.2150 3.313 0.186
70.2355 3.729 0.197
70.2560 3.625 0.194
70.2764 3.406 0.188
70.2969 3.479 0.190
70.3174 3.760 0.198
70.3378 3.500 0.191
70.3583 3.479 0.190
70.3788 3.563 0.193
70.3992 3.396 0.188
70.4197 3.594 0.193
70.4401 3.438 0.189
70.4606 3.479 0.190
70.4811 3.479 0.190
70.5015 3.469 0.190
70.5220 3.698 0.196
70.5425 3.271 0.185
70.5629 3.594 0.193
70.5834 3.240 0.184
70.6038 3.208 0.183
70.6243 3.594 0.193
70.6448 3.302 0.185
70.6652 3.552 0.192
70.6857 3.573 0.193
70.7062 3.479 0.190
70.7266 3.542 0.192
70.7471 3.469 0.190
70.7675 3.250 0.184
70.7880 3.229 0.183
70.8085 3.281 0.185
70.8289 3.229 0.183
70.8494 3.135 0.181
70.8699 3.510 0.191
70.8903 3.479 0.190
70.9108 3.052 0.178
70.9312 3.385 0.188
70.9517 3.198 0.183
70.9722 3.302 0.185
70.9926 3.156 0.181
71.0131 3.500 0.191
71.0336 3.500 0.191
71.0540 3.198 0.183
71.0745 3.198 0.183
71.0949 3.573 0.193
71.1154 2.979 0.176
71.1359 3.354 0.187
71.1563 3.229 0.183
71.1768 3.135 0.181
71.1973 3.531 0.192
71.2177 3.271 0.185
71.2382 3.156 0.181
71.2587 3.000 0.177
71.2791 3.260 0.184
71.2996 3.323 0.186
71.3200 3.031 0.178
71.3405 3.313 0.186
71.3610 3.260 0.184
71.3814 3.490 0.191
71.4019 3.240 0.184
71.4224 3.333 0.186
71.4428 3.417 0.189
71.4633 3.021 0.177
71.4837 3.385 0.188
71.5042 3.479 0.190
71.5247 3.510 0.191
71.5451 3.375 0.188
71.5656 2.938 0.175
71.5861 3.208 0.183
71.6065 3.427 0.189
71.6270 3.750 0.198
71.6474 3.052 0.178
71.6679 3.208 0.183
71.6884 3.250 0.184
71.7088 2.917 0.174
71.7293 3.125 0.180
71.7498 3.219 0.183
71.7702 3.385 0.188
71.7907 3.365 0.187
71.8111 3.240 0.184
71.8316 3.292 0.185
71.8521 3.125 0.180
71.8725 2.917 0.174
71.8930 3.177 0.182
71.9135 2.979 0.176
71.9339 3.115 0.180
71.9544 2.740 0.169
71.9749 3.104 0.180
71.9953 2.958 0.176
72.0158 3.021 0.177
72.0362 3.052 0.178
72.0567 3.135 0.181
72.0772 2.875 0.173
72.0976 2.958 0.176
72.1181 3.135 0.181
72.1386 3.115 0.180
72.1590 2.948 0.175
72.1795 2.802 0.171
72.1999 3.417 0.189
72.2204 3.281 0.185
72.2409 3.115 0.180
72.2613 3.292 0.185
72.2818 3.302 0.185
72.3023 2.969 0.176
72.3227 2.896 0.174
72.3432 3.250 0.184
72.3636 3.000 0.177
72.3841 3.135 0.181
72.4046 3.323 0.186
72.4250 3.177 0.182
72.4455 3.385 0.188
72.4660 3.500 0.191
72.4864 3.271 0.185
72.5069 3.010 0.177
72.5273 3.479 0.190
72.5478 3.094 0.180
72.5683 3.104 0.180
72.5887 3.167 0.182
72.6092 3.260 0.184
72.6297 3.208 0.183
72.6501 2.823 0.171
72.6706 3.198 0.183
72.6910 3.250 0.184
72.7115 2.979 0.176
72.7320 2.813 0.171
72.7524 2.917 0.174
72.7729 3.260 0.184
72.7934 2.885 0.173
72.8138 3.156 0.181
72.8343 3.094 0.180
72.8548 3.271 0.185
72.8752 3.042 0.178
72.8957 3.354 0.187
72.9161 3.281 0.185
72.9366 3.302 0.185
72.9571 3.292 0.185
72.9775 2.927 0.175
72.9980 3.302 0.185
73.0185 3.104 0.180
73.0389 3.240 0.184
73.0594 3.219 0.183
73.0798 3.458 0.190
73.1003 3.031 0.178
73.1208 3.302 0.185
73.1412 3.104 0.180
73.1617 3.042 0.178
73.1822 3.385 0.188
73.2026 3.104 0.180
73.2231 3.229 0.183
73.2435 3.146 0.181
73.2640 3.042 0.178
73.2845 2.771 0.170
73.3049 2.917 0.174
73.3254 3.063 0.179
73.3459 2.646 0.166
73.3663 3.021 0.177
73.3868 2.750 0.169
73.4072 2.573 0.164
73.4277 2.844 0.172
73.4482 2.990 0.176
73.4686 2.917 0.174
73.4891 2.792 0.171
73.5096 3.167 0.182
73.5300 3.125 0.180
73.5505 2.729 0.169
73.5709 3.000 0.177
73.5914 2.719 0.168
73.6119 2.781 0.170
73.6323 2.646 0.166
73.6528 2.708 0.168
73.6733 2.802 0.171
73.6937 2.760 0.170
73.7142 2.677 0.167
73.7347 2.781 0.170
73.7551 2.750 0.169
73.7756 2.823 0.171
73.7960 2.760 0.170
73.8165 2.906 0.174
73.8370 2.708 0.168
73.8574 2.844 0.172
73.8779 2.854 0.172
73.8984 3.115 0.180
73.9188 2.885 0.173
73.9393 2.771 0.170
73.9597 2.802 0.171
73.9802 2.990 0.176
74.0007 2.969 0.176
74.0211 3.208 0.183
74.0416 3.042 0.178
74.0621 3.292 0.185
74.0825 3.510 0.191
74.1030 2.906 0.174
74.1234 3.167 0.182
74.1439 2.969 0.176
74.1644 2.844 0.172
74.1848 2.865 0.173
74.2053 2.708 0.168
74.2258 2.823 0.171
74.2462 2.938 0.175
74.2667 2.906 0.174
74.2871 2.927 0.175
74.3076 2.854 0.172
74.3281 2.813 0.171
74.3485 2.781 0.170
74.3690 2.917 0.174
74.3895 2.781 0.170
74.4099 3.167 0.182
74.4304 2.833 0.172
74.4508 2.927 0.175
74.4713 3.083 0.179
74.4918 2.823 0.171
74.5122 2.750 0.169
74.5327 2.781 0.170
74.5532 2.448 0.160
74.5736 2.938 0.175
74.5941 2.865 0.173
74.6146 3.021 0.177
74.6350 2.729 0.169
74.6555 2.479 0.161
74.6759 2.750 0.169
74.6964 3.073 0.179
74.7169 2.760 0.170
74.7373 2.552 0.163
74.7578 2.656 0.166
74.7783 2.740 0.169
74.7987 2.979 0.176
74.8192 3.000 0.177
74.8396 2.635 0.166
74.8601 2.490 0.161
74.8806 2.771 0.170
74.9010 2.552 0.163
74.9215 2.802 0.171
74.9420 2.604 0.165
74.9624 3.052 0.178
74.9829 2.698 0.168
75.0033 3.135 0.181
75.0238 2.667 0.167
75.0443 2.813 0.171
75.0647 2.500 0.161
75.0852 2.771 0.170
75.1057 2.438 0.159
75.1261 3.052 0.178
75.1466 2.854 0.172
75.1670 2.677 0.167
75.1875 2.729 0.169
75.2080 2.573 0.164
75.2284 3.083 0.179
75.2489 2.604 0.165
75.2694 2.740 0.169
75.2898 2.750 0.169
75.3103 3.115 0.180
75.3307 2.969 0.176
75.3512 3.104 0.180
75.3717 2.854 0.172
75.3921 3.083 0.179
75.4126 3.177 0.182
75.4331 2.833 0.172
75.4535 2.604 0.165
75.4740 2.938 0.175
75.4945 2.958 0.176
75.5149 3.073 0.179
75.5354 2.552 0.163
75.5558 2.781 0.170
75.5763 3.094 0.180
75.5968 3.073 0.179
75.6172 2.646 0.166
75.6377 3.052 0.178
75.6582 3.125 0.180
75.6786 2.990 0.176
75.6991 2.802 0.171
75.7195 3.031 0.178
75.7400 3.063 0.179
75.7605 2.844 0.172
75.7809 2.719 0.168
75.8014 2.688 0.167
75.8219 3.490 0.191
75.8423 3.271 0.185
75.8628 3.260 0.184
75.8832 3.448 0.190
75.9037 3.594 0.193
75.9242 3.250 0.184
75.9446 3.354 0.187
75.9651 3.177 0.182
75.9856 3.260 0.184
76.0060 3.615 0.194
76.0265 4.042 0.205
76.0469 3.604 0.194
76.0674 3.323 0.186
76.0879 3.521 0.192
76.1083 3.813 0.199
76.1288 3.625 0.194
76.1493 3.448 0.190
76.1697 3.375 0.188
76.1902 3.427 0.189
76.2106 3.479 0.190
76.2311 3.198 0.183
76.2516 3.385 0.188
76.2720 3.490 0.191
76.2925 3.365 0.187
76.3130 3.156 0.181
76.3334 3.135 0.181
76.3539 3.073 0.179
76.3744 3.594 0.193
76.3948 3.021 0.177
76.4153 3.094 0.180
76.4357 3.250 0.184
76.4562 3.063 0.179
76.4767 2.958 0.176
76.4971 3.094 0.180
76.5176 2.802 0.171
76.5381 3.094 0.180
76.5585 3.406 0.188
76.5790 3.240 0.184
76.5994 2.615 0.165
76.6199 3.094 0.180
76.6404 3.073 0.179
76.6608 2.760 0.170
76.6813 3.031 0.178
76.7018 2.885 0.173
76.7222 2.760 0.170
76.7427 3.135 0.181
76.7631 3.010 0.177
76.7836 2.833 0.172
76.8041 2.635 0.166
76.8245 2.615 0.165
76.8450 2.698 0.168
76.8655 2.854 0.172
76.8859 2.677 0.167
76.9064 2.938 0.175
76.9268 2.521 0.162
76.9473 2.365 0.157
76.9678 2.958 0.176
76.9882 2.781 0.170
77.0087 2.896 0.174
77.0292 2.958 0.176
77.0496 2.896 0.174
77.0701 2.854 0.172
77.0906 3.094 0.180
77.1110 2.833 0.172
77.1315 2.833 0.172
77.1519 3.135 0.181
77.1724 2.958 0.176
77.1929 3.063 0.179
77.2133 2.677 0.167
77.2338 2.906 0.174
77.2543 3.156 0.181
77.2747 2.750 0.169
77.2952 2.292 0.155
77.3156 3.156 0.181
77.3361 2.958 0.176
77.3566 2.750 0.169
77.3770 2.677 0.167
77.3975 2.875 0.173
77.4180 2.729 0.169
77.4384 3.010 0.177
77.4589 2.927 0.175
77.4793 3.188 0.182
77.4998 3.021 0.177
77.5203 3.010 0.177
77.5407 3.292 0.185
77.5612 2.875 0.173
77.5817 3.208 0.183
77.6021 3.229 0.183
77.6226 3.354 0.187
77.6430 3.490 0.191
77.6635 3.417 0.189
77.6840 3.104 0.180
77.7044 3.167 0.182
77.7249 3.490 0.191
77.7454 3.083 0.179
77.7658 2.729 0.169
77.7863 3.219 0.183
77.8067 3.115 0.180
77.8272 3.427 0.189
77.8477 3.510 0.191
77.8681 3.719 0.197
77.8886 3.656 0.195
77.9091 3.510 0.191
77.9295 3.406 0.188
77.9500 3.792 0.199
77.9705 3.365 0.187
77.9909 3.458 0.190
78.0114 3.177 0.182
78.0318 3.344 0.187
78.0523 3.365 0.187
78.0728 3.260 0.184
78.0932 3.094 0.180
78.1137 3.250 0.184
78.1342 3.406 0.188
78.1546 3.188 0.182
78.1751 2.750 0.169
78.1955 3.125 0.180
78.2160 3.365 0.187
78.2365 2.865 0.173
78.2569 3.344 0.187
78.2774 3.313 0.186
78.2979 2.938 0.175
78.3183 3.021 0.177
78.3388 3.010 0.177
78.3592 3.198 0.183
78.3797 3.250 0.184
78.4002 3.125 0.180
78.4206 2.719 0.168
78.4411 3.240 0.184
78.4616 3.292 0.185
78.4820 3.000 0.177
78.5025 3.271 0.185
78.5229 3.281 0.185
78.5434 3.615 0.194
78.5639 3.500 0.191
78.5843 3.448 0.190
78.6048 3.021 0.177
78.6253 3.479 0.190
78.6457 3.344 0.187
78.6662 3.188 0.182
78.6866 3.063 0.179
78.7071 3.604 0.194
78.7276 3.000 0.177
78.7480 3.021 0.177
78.7685 3.188 0.182
78.7890 3.115 0.180
78.8094 3.375 0.188
78.8299 3.406 0.188
78.8504 3.052 0.178
78.8708 2.917 0.174
78.8913 3.156 0.181
78.9117 3.146 0.181
78.9322 3.229 0.183
78.9527 3.292 0.185
78.9731 3.073 0.179
78.9936 2.969 0.176
79.0141 3.219 0.183
79.0345 3.146 0.181
79.0550 3.073 0.179
79.0754 3.198 0.183
79.0959 3.344 0.187
79.1164 3.010 0.177
79.1368 2.896 0.174
79.1573 3.313 0.186
79.1778 3.302 0.185
79.1982 3.323 0.186
79.2187 3.313 0.186
79.2391 3.198 0.183
79.2596 3.333 0.186
79.2801 3.115 0.180
79.3005 3.083 0.179
79.3210 3.365 0.187
79.3415 3.229 0.183
79.3619 3.021 0.177
79.3824 3.292 0.185
79.4028 3.042 0.178
79.4233 3.219 0.183
79.4438 2.896 0.174
79.4642 2.969 0.176
79.4847 3.094 0.180
79.5052 3.333 0.186
79.5256 3.438 0.189
79.5461 3.479 0.190
79.5665 3.292 0.185
79.5870 2.958 0.176
79.6075 3.635 0.195
79.6279 2.854 0.172
79.6484 3.104 0.180
79.6689 3.146 0.181
79.6893 3.469 0.190
79.7098 3.198 0.183
79.7303 3.667 0.195
79.7507 3.156 0.181
79.7712 3.500 0.191
79.7916 3.427 0.189
79.8121 3.219 0.183
79.8326 3.271 0.185
79.8530 3.438 0.189
79.8735 3.271 0.185
79.8940 3.167 0.182
79.9144 2.896 0.174
79.9349 3.271 0.185
79.9553 3.125 0.180
79.9758 3.406 0.188
79.9963 3.042 0.178
