'Id: "" Comment: "" Operator: "Lab Manager" Anode: "Cu" Scantype: "Locked Coupled" TimePerStep: "96" X: "0" Y: "0" Z: "0" 
5.0001 25.292 0.513
5.0206 23.948 0.499
5.0410 23.938 0.499
5.0615 24.979 0.510
5.0820 24.240 0.502
5.1024 23.760 0.497
5.1229 24.927 0.510
5.1433 24.208 0.502
5.1638 23.875 0.499
5.1843 23.719 0.497
5.2047 22.844 0.488
5.2252 24.396 0.504
5.2457 23.385 0.494
5.2661 22.208 0.481
5.2866 23.385 0.494
5.3070 23.740 0.497
5.3275 23.510 0.495
5.3480 22.813 0.487
5.3684 23.469 0.494
5.3889 23.188 0.491
5.4094 23.323 0.493
5.4298 22.990 0.489
5.4503 23.156 0.491
5.4707 22.552 0.485
5.4912 22.667 0.486
5.5117 22.729 0.487
5.5321 22.833 0.488
5.5526 21.958 0.478
5.5731 22.552 0.485
5.5935 22.323 0.482
5.6140 21.948 0.478
5.6344 21.385 0.472
5.6549 22.479 0.484
5.6754 22.563 0.485
5.6958 21.063 0.468
5.7163 21.583 0.474
5.7368 21.521 0.473
5.7572 21.656 0.475
5.7777 21.281 0.471
5.7981 21.479 0.473
5.8186 22.135 0.480
5.8391 21.115 0.469
5.8595 20.896 0.467
5.8800 21.063 0.468
5.9005 21.427 0.472
5.9209 20.563 0.463
5.9414 20.823 0.466
5.9619 20.688 0.464
5.9823 21.104 0.469
6.0028 20.823 0.466
6.0232 20.333 0.460
6.0437 20.635 0.464
6.0642 20.490 0.462
6.0846 20.854 0.466
6.1051 21.031 0.468
6.1256 19.688 0.453
6.1460 20.167 0.458
6.1665 20.563 0.463
6.1869 19.833 0.455
6.2074 19.688 0.453
6.2279 20.917 0.467
6.2483 19.708 0.453
6.2688 20.406 0.461
6.2893 19.510 0.451
6.3097 20.667 0.464
6.3302 20.385 0.461
6.3506 19.427 0.450
6.3711 19.792 0.454
6.3916 19.740 0.453
6.4120 19.917 0.455
6.4325 19.198 0.447
6.4530 20.323 0.460
6.4734 20.271 0.460
6.4939 19.729 0.453
6.5143 19.938 0.456
6.5348 19.844 0.455
6.5553 19.479 0.450
6.5757 21.167 0.470
6.5962 19.875 0.455
6.6167 19.802 0.454
6.6371 19.490 0.451
6.6576 20.938 0.467
6.6780 20.979 0.467
6.6985 19.813 0.454
6.7190 19.188 0.447
6.7394 19.896 0.455
6.7599 19.094 0.446
6.7804 20.177 0.458
6.8008 19.781 0.454
6.8213 19.896 0.455
6.8418 19.906 0.455
6.8622 20.500 0.462
6.8827 20.156 0.458
6.9031 18.969 0.445
6.9236 18.969 0.445
6.9441 18.813 0.443
6.9645 19.906 0.455
6.9850 19.375 0.449
7.0055 20.021 0.457
7.0259 19.323 0.449
7.0464 19.083 0.446
7.0668 19.229 0.448
7.0873 19.042 0.445
7.1078 19.875 0.455
7.1282 18.604 0.440
7.1487 18.750 0.442
7.1692 18.677 0.441
7.1896 18.833 0.443
7.2101 19.490 0.451
7.2305 19.677 0.453
7.2510 19.771 0.454
7.2715 18.656 0.441
7.2919 18.760 0.442
7.3124 18.177 0.435
7.3329 19.052 0.445
7.3533 18.604 0.440
7.3738 19.135 0.446
7.3942 19.698 0.453
7.4147 19.042 0.445
7.4352 18.750 0.442
7.4556 18.396 0.438
7.4761 19.802 0.454
7.4966 18.698 0.441
7.5170 18.719 0.442
7.5375 19.500 0.451
7.5580 18.896 0.444
7.5784 19.417 0.450
7.5989 19.302 0.448
7.6193 18.552 0.440
7.6398 20.292 0.460
7.6603 18.365 0.437
7.6807 19.302 0.448
7.7012 18.781 0.442
7.7217 19.281 0.448
7.7421 18.052 0.434
7.7626 18.917 0.444
7.7830 19.833 0.455
7.8035 18.604 0.440
7.8240 19.333 0.449
7.8444 19.146 0.447
7.8649 19.667 0.453
7.8854 19.760 0.454
7.9058 19.750 0.454
7.9263 19.615 0.452
7.9467 20.208 0.459
7.9672 19.771 0.454
7.9877 19.583 0.452
8.0081 19.490 0.451
8.0286 19.396 0.449
8.0491 19.688 0.453
8.0695 19.615 0.452
8.0900 19.979 0.456
8.1104 19.417 0.450
8.1309 19.490 0.451
8.1514 19.396 0.449
8.1718 20.479 0.462
8.1923 20.625 0.464
8.2128 20.813 0.466
8.2332 19.896 0.455
8.2537 20.052 0.457
8.2741 20.125 0.458
8.2946 19.896 0.455
8.3151 19.083 0.446
8.3355 19.667 0.453
8.3560 20.333 0.460
8.3765 19.927 0.456
8.3969 20.063 0.457
8.4174 19.906 0.455
8.4379 18.563 0.440
8.4583 20.354 0.460
8.4788 19.760 0.454
8.4992 20.594 0.463
8.5197 19.875 0.455
8.5402 19.833 0.455
8.5606 20.479 0.462
8.5811 20.573 0.463
8.6016 19.500 0.451
8.6220 20.281 0.460
8.6425 20.667 0.464
8.6629 20.313 0.460
8.6834 20.604 0.463
8.7039 20.479 0.462
8.7243 19.917 0.455
8.7448 21.250 0.470
8.7653 20.833 0.466
8.7857 21.792 0.476
8.8062 21.125 0.469
8.8266 22.229 0.481
8.8471 23.229 0.492
8.8676 21.844 0.477
8.8880 23.635 0.496
8.9085 23.896 0.499
8.9290 24.094 0.501
8.9494 25.688 0.517
8.9699 27.698 0.537
8.9903 30.104 0.560
9.0108 32.969 0.586
9.0313 38.458 0.633
9.0517 43.823 0.676
9.0722 49.760 0.720
9.0927 50.042 0.722
9.1131 43.583 0.674
9.1336 35.208 0.606
9.1540 28.854 0.548
9.1745 25.490 0.515
9.1950 24.125 0.501
9.2154 22.729 0.487
9.2359 22.927 0.489
9.2564 22.792 0.487
9.2768 22.802 0.487
9.2973 23.573 0.496
9.3178 23.323 0.493
9.3382 22.167 0.481
9.3587 22.740 0.487
9.3791 23.031 0.490
9.3996 23.406 0.494
9.4201 24.729 0.508
9.4405 23.688 0.497
9.4610 23.875 0.499
9.4815 24.396 0.504
9.5019 25.292 0.513
9.5224 25.844 0.519
9.5428 27.354 0.534
9.5633 29.635 0.556
9.5838 31.292 0.571
9.6042 33.823 0.594
9.6247 36.573 0.617
9.6452 39.188 0.639
9.6656 41.740 0.659
9.6861 44.583 0.681
9.7065 50.167 0.723
9.7270 55.281 0.759
9.7475 61.052 0.797
9.7679 72.906 0.871
9.7884 89.146 0.964
9.8089 114.771 1.093
9.8293 152.135 1.259
9.8498 212.344 1.487
9.8702 301.344 1.772
9.8907 418.104 2.087
9.9112 535.135 2.361
9.9316 543.781 2.380
9.9521 455.104 2.177
9.9726 330.563 1.856
9.9930 240.438 1.583
10.0135 189.646 1.406
10.0339 159.969 1.291
10.0544 137.719 1.198
10.0749 122.073 1.128
10.0953 109.708 1.069
10.1158 101.292 1.027
10.1363 91.823 0.978
10.1567 87.813 0.956
10.1772 80.896 0.918
10.1977 76.885 0.895
10.2181 73.604 0.876
10.2386 68.177 0.843
10.2590 66.583 0.833
10.2795 63.063 0.810
10.3000 59.125 0.785
10.3204 57.979 0.777
10.3409 55.667 0.761
10.3614 54.792 0.755
10.3818 51.771 0.734
10.4023 52.656 0.741
10.4227 50.604 0.726
10.4432 50.292 0.724
10.4637 48.115 0.708
10.4841 47.781 0.705
10.5046 46.333 0.695
10.5251 46.240 0.694
10.5455 46.031 0.692
10.5660 45.177 0.686
10.5864 43.219 0.671
10.6069 43.313 0.672
10.6274 43.750 0.675
10.6478 43.594 0.674
10.6683 42.271 0.664
10.6888 42.521 0.666
10.7092 42.010 0.662
10.7297 40.854 0.652
10.7501 40.885 0.653
10.7706 39.167 0.639
10.7911 38.510 0.633
10.8115 36.844 0.620
10.8320 36.344 0.615
10.8525 35.500 0.608
10.8729 33.125 0.587
10.8934 31.656 0.574
10.9138 30.563 0.564
10.9343 28.479 0.545
10.9548 28.365 0.544
10.9752 26.292 0.523
10.9957 27.521 0.535
11.0162 25.615 0.517
11.0366 25.625 0.517
11.0571 24.500 0.505
11.0776 24.542 0.506
11.0980 24.073 0.501
11.1185 24.521 0.505
11.1389 22.750 0.487
11.1594 22.927 0.489
11.1799 23.219 0.492
11.2003 22.583 0.485
11.2208 21.927 0.478
11.2413 21.813 0.477
11.2617 21.031 0.468
11.2822 20.885 0.466
11.3026 20.979 0.467
11.3231 20.740 0.465
11.3436 20.188 0.459
11.3640 19.698 0.453
11.3845 20.313 0.460
11.4050 20.531 0.462
11.4254 20.135 0.458
11.4459 19.417 0.450
11.4663 18.823 0.443
11.4868 18.677 0.441
11.5073 19.083 0.446
11.5277 19.708 0.453
11.5482 18.229 0.436
11.5687 18.385 0.438
11.5891 18.625 0.440
11.6096 18.365 0.437
11.6300 18.198 0.435
11.6505 18.063 0.434
11.6710 17.719 0.430
11.6914 17.490 0.427
11.7119 18.188 0.435
11.7324 18.281 0.436
11.7528 18.104 0.434
11.7733 17.083 0.422
11.7938 17.677 0.429
11.8142 17.854 0.431
11.8347 17.375 0.425
11.8551 18.042 0.434
11.8756 17.531 0.427
11.8961 16.719 0.417
11.9165 16.469 0.414
11.9370 16.458 0.414
11.9575 16.740 0.418
11.9779 15.927 0.407
11.9984 16.625 0.416
12.0188 15.917 0.407
12.0393 16.083 0.409
12.0598 16.271 0.412
12.0802 17.000 0.421
12.1007 15.354 0.400
12.1212 16.302 0.412
12.1416 15.719 0.405
12.1621 15.500 0.402
12.1825 16.969 0.420
12.2030 15.927 0.407
12.2235 16.583 0.416
12.2439 16.479 0.414
12.2644 15.677 0.404
12.2849 15.875 0.407
12.3053 16.417 0.414
12.3258 15.198 0.398
12.3462 15.938 0.407
12.3667 15.938 0.407
12.3872 15.313 0.399
12.4076 15.260 0.399
12.4281 15.500 0.402
12.4486 14.792 0.393
12.4690 15.885 0.407
12.4895 15.521 0.402
12.5099 14.729 0.392
12.5304 14.885 0.394
12.5509 14.260 0.385
12.5713 13.781 0.379
12.5918 14.094 0.383
12.6123 14.729 0.392
12.6327 14.615 0.390
12.6532 14.542 0.389
12.6737 14.010 0.382
12.6941 14.417 0.388
12.7146 13.615 0.377
12.7350 14.385 0.387
12.7555 14.969 0.395
12.7760 14.021 0.382
12.7964 13.979 0.382
12.8169 13.760 0.379
12.8374 13.823 0.379
12.8578 13.896 0.380
12.8783 13.604 0.376
12.8987 13.771 0.379
12.9192 13.333 0.373
12.9397 12.990 0.368
12.9601 14.021 0.382
12.9806 13.677 0.377
13.0011 13.760 0.379
13.0215 13.250 0.372
13.0420 13.604 0.376
13.0624 13.281 0.372
13.0829 13.271 0.372
13.1034 13.510 0.375
13.1238 13.760 0.379
13.1443 13.083 0.369
13.1648 12.510 0.361
13.1852 13.135 0.370
13.2057 12.604 0.362
13.2261 13.208 0.371
13.2466 12.917 0.367
13.2671 12.979 0.368
13.2875 12.865 0.366
13.3080 13.417 0.374
13.3285 12.677 0.363
13.3489 12.604 0.362
13.3694 13.365 0.373
13.3898 12.448 0.360
13.4103 12.542 0.361
13.4308 12.729 0.364
13.4512 12.583 0.362
13.4717 12.198 0.356
13.4922 12.927 0.367
13.5126 12.313 0.358
13.5331 12.406 0.359
13.5536 12.719 0.364
13.5740 12.229 0.357
13.5945 12.417 0.360
13.6149 12.344 0.359
13.6354 12.313 0.358
13.6559 11.760 0.350
13.6763 12.490 0.361
13.6968 12.156 0.356
13.7173 11.833 0.351
13.7377 12.698 0.364
13.7582 11.948 0.353
13.7786 12.385 0.359
13.7991 12.354 0.359
13.8196 12.531 0.361
13.8400 12.490 0.361
13.8605 11.688 0.349
13.8810 12.115 0.355
13.9014 12.510 0.361
13.9219 12.010 0.354
13.9423 12.146 0.356
13.9628 12.156 0.356
13.9833 11.885 0.352
14.0037 12.052 0.354
14.0242 11.760 0.350
14.0447 11.792 0.350
14.0651 11.417 0.345
14.0856 11.813 0.351
14.1060 11.500 0.346
14.1265 12.115 0.355
14.1470 12.240 0.357
14.1674 12.479 0.361
14.1879 11.604 0.348
14.2084 11.833 0.351
14.2288 11.885 0.352
14.2493 11.490 0.346
14.2697 11.427 0.345
14.2902 11.302 0.343
14.3107 11.031 0.339
14.3311 11.667 0.349
14.3516 11.021 0.339
14.3721 12.000 0.354
14.3925 11.729 0.350
14.4130 11.438 0.345
14.4335 10.990 0.338
14.4539 11.135 0.341
14.4744 10.844 0.336
14.4948 11.292 0.343
14.5153 11.646 0.348
14.5358 11.271 0.343
14.5562 11.313 0.343
14.5767 10.906 0.337
14.5972 11.656 0.348
14.6176 11.281 0.343
14.6381 10.750 0.335
14.6585 11.260 0.342
14.6790 10.938 0.338
14.6995 11.010 0.339
14.7199 11.260 0.342
14.7404 11.323 0.343
14.7609 11.240 0.342
14.7813 10.802 0.335
14.8018 11.281 0.343
14.8222 10.615 0.333
14.8427 11.333 0.344
14.8632 11.177 0.341
14.8836 10.583 0.332
14.9041 11.271 0.343
14.9246 10.771 0.335
14.9450 10.844 0.336
14.9655 10.990 0.338
14.9859 10.771 0.335
15.0064 10.969 0.338
15.0269 11.156 0.341
15.0473 10.896 0.337
15.0678 10.750 0.335
15.0883 10.521 0.331
15.1087 11.406 0.345
15.1292 10.813 0.336
15.1496 11.010 0.339
15.1701 11.021 0.339
15.1906 11.073 0.340
15.2110 11.594 0.348
15.2315 11.365 0.344
15.2520 10.729 0.334
15.2724 11.208 0.342
15.2929 10.688 0.334
15.3134 11.167 0.341
15.3338 11.500 0.346
15.3543 10.729 0.334
15.3747 11.583 0.347
15.3952 11.073 0.340
15.4157 11.594 0.348
15.4361 11.073 0.340
15.4566 10.917 0.337
15.4771 11.156 0.341
15.4975 11.823 0.351
15.5180 11.521 0.346
15.5384 11.479 0.346
15.5589 10.990 0.338
15.5794 11.906 0.352
15.5998 12.021 0.354
15.6203 11.677 0.349
15.6408 12.094 0.355
15.6612 13.604 0.376
15.6817 13.281 0.372
15.7021 15.510 0.402
15.7226 18.104 0.434
15.7431 19.917 0.455
15.7635 23.167 0.491
15.7840 23.563 0.495
15.8045 21.885 0.477
15.8249 18.115 0.434
15.8454 14.979 0.395
15.8658 13.438 0.374
15.8863 12.427 0.360
15.9068 11.563 0.347
15.9272 11.281 0.343
15.9477 11.531 0.347
15.9682 10.990 0.338
15.9886 11.635 0.348
16.0091 11.760 0.350
16.0296 11.313 0.343
16.0500 11.146 0.341
16.0705 11.042 0.339
16.0909 10.969 0.338
16.1114 10.167 0.325
16.1319 10.427 0.330
16.1523 11.063 0.339
16.1728 10.354 0.328
16.1933 10.583 0.332
16.2137 10.823 0.336
16.2342 10.760 0.335
16.2546 10.750 0.335
16.2751 10.521 0.331
16.2956 10.969 0.338
16.3160 10.292 0.327
16.3365 10.198 0.326
16.3570 11.177 0.341
16.3774 11.292 0.343
16.3979 10.729 0.334
16.4183 10.333 0.328
16.4388 10.792 0.335
16.4593 10.854 0.336
16.4797 11.177 0.341
16.5002 10.333 0.328
16.5207 11.271 0.343
16.5411 10.781 0.335
16.5616 10.917 0.337
16.5820 10.563 0.332
16.6025 10.771 0.335
16.6230 11.344 0.344
16.6434 10.167 0.325
16.6639 10.698 0.334
16.6844 11.375 0.344
16.7048 11.646 0.348
16.7253 10.990 0.338
16.7457 11.063 0.339
16.7662 10.844 0.336
16.7867 10.948 0.338
16.8071 11.583 0.347
16.8276 11.313 0.343
16.8481 11.063 0.339
16.8685 11.448 0.345
16.8890 11.583 0.347
16.9095 10.781 0.335
16.9299 11.281 0.343
16.9504 11.552 0.347
16.9708 11.250 0.342
16.9913 11.344 0.344
17.0118 11.156 0.341
17.0322 11.969 0.353
17.0527 12.094 0.355
17.0732 11.646 0.348
17.0936 11.573 0.347
17.1141 11.083 0.340
17.1345 12.031 0.354
17.1550 12.083 0.355
17.1755 12.125 0.355
17.1959 11.375 0.344
17.2164 11.542 0.347
17.2369 11.885 0.352
17.2573 13.010 0.368
17.2778 12.219 0.357
17.2982 12.417 0.360
17.3187 12.594 0.362
17.3392 12.625 0.363
17.3596 12.427 0.360
17.3801 12.771 0.365
17.4006 12.469 0.360
17.4210 12.875 0.366
17.4415 13.198 0.371
17.4619 13.490 0.375
17.4824 13.448 0.374
17.5029 13.760 0.379
17.5233 13.740 0.378
17.5438 13.563 0.376
17.5643 13.500 0.375
17.5847 13.729 0.378
17.6052 13.823 0.379
17.6256 13.677 0.377
17.6461 13.958 0.381
17.6666 14.594 0.390
17.6870 15.333 0.400
17.7075 15.135 0.397
17.7280 16.354 0.413
17.7484 16.948 0.420
17.7689 17.615 0.428
17.7894 18.354 0.437
17.8098 19.052 0.445
17.8303 20.083 0.457
17.8507 19.740 0.453
17.8712 18.260 0.436
17.8917 18.979 0.445
17.9121 18.344 0.437
17.9326 17.844 0.431
17.9531 18.167 0.435
17.9735 18.427 0.438
17.9940 18.760 0.442
18.0144 18.969 0.445
18.0349 20.271 0.460
18.0554 21.323 0.471
18.0758 20.104 0.458
18.0963 19.563 0.451
18.1168 20.313 0.460
18.1372 20.396 0.461
18.1577 18.948 0.444
18.1781 19.646 0.452
18.1986 19.875 0.455
18.2191 21.115 0.469
18.2395 20.469 0.462
18.2600 20.490 0.462
18.2805 20.510 0.462
18.3009 19.396 0.449
18.3214 20.667 0.464
18.3418 20.885 0.466
18.3623 20.219 0.459
18.3828 21.510 0.473
18.4032 20.302 0.460
18.4237 20.156 0.458
18.4442 20.146 0.458
18.4646 20.354 0.460
18.4851 20.646 0.464
18.5055 21.083 0.469
18.5260 20.260 0.459
18.5465 20.073 0.457
18.5669 20.177 0.458
18.5874 20.750 0.465
18.6079 20.438 0.461
18.6283 20.208 0.459
18.6488 20.427 0.461
18.6693 20.500 0.462
18.6897 20.542 0.463
18.7102 20.531 0.462
18.7306 20.375 0.461
18.7511 20.667 0.464
18.7716 20.813 0.466
18.7920 20.729 0.465
18.8125 20.927 0.467
18.8330 20.646 0.464
18.8534 21.458 0.473
18.8739 23.813 0.498
18.8943 22.990 0.489
18.9148 22.479 0.484
18.9353 20.885 0.466
18.9557 20.000 0.456
18.9762 19.010 0.445
18.9967 17.583 0.428
19.0171 17.010 0.421
19.0376 15.677 0.404
19.0580 15.771 0.405
19.0785 15.917 0.407
19.0990 15.344 0.400
19.1194 15.573 0.403
19.1399 15.531 0.402
19.1604 15.469 0.401
19.1808 15.667 0.404
19.2013 15.031 0.396
19.2217 14.406 0.387
19.2422 14.979 0.395
19.2627 14.104 0.383
19.2831 15.042 0.396
19.3036 14.917 0.394
19.3241 14.646 0.391
19.3445 14.906 0.394
19.3650 15.208 0.398
19.3854 14.740 0.392
19.4059 15.198 0.398
19.4264 15.167 0.397
19.4468 15.125 0.397
19.4673 15.271 0.399
19.4878 14.906 0.394
19.5082 14.865 0.393
19.5287 14.969 0.395
19.5492 15.010 0.395
19.5696 16.063 0.409
19.5901 16.677 0.417
19.6105 17.698 0.429
19.6310 17.688 0.429
19.6515 18.333 0.437
19.6719 18.260 0.436
19.6924 19.625 0.452
19.7129 20.542 0.463
19.7333 20.969 0.467
19.7538 23.719 0.497
19.7742 25.844 0.519
19.7947 29.833 0.557
19.8152 35.031 0.604
19.8356 44.865 0.684
19.8561 60.354 0.793
19.8766 82.729 0.928
19.8970 110.323 1.072
19.9175 117.688 1.107
19.9379 109.156 1.066
19.9584 96.948 1.005
19.9789 81.396 0.921
19.9993 64.438 0.819
20.0198 53.656 0.748
20.0403 47.208 0.701
20.0607 40.365 0.648
20.0812 38.448 0.633
20.1016 35.354 0.607
20.1221 34.719 0.601
20.1426 33.271 0.589
20.1630 31.979 0.577
20.1835 30.833 0.567
20.2040 31.427 0.572
20.2244 31.000 0.568
20.2449 30.042 0.559
20.2654 29.750 0.557
20.2858 29.344 0.553
20.3063 29.990 0.559
20.3267 28.688 0.547
20.3472 28.250 0.542
20.3677 28.604 0.546
20.3881 28.073 0.541
20.4086 28.396 0.544
20.4291 28.385 0.544
20.4495 28.219 0.542
20.4700 27.219 0.532
20.4904 26.604 0.526
20.5109 26.031 0.521
20.5314 26.073 0.521
20.5518 24.708 0.507
20.5723 24.521 0.505
20.5928 23.531 0.495
20.6132 23.385 0.494
20.6337 22.406 0.483
20.6541 21.573 0.474
20.6746 20.313 0.460
20.6951 20.667 0.464
20.7155 19.802 0.454
20.7360 19.948 0.456
20.7565 18.333 0.437
20.7769 18.594 0.440
20.7974 19.385 0.449
20.8178 16.927 0.420
20.8383 16.833 0.419
20.8588 17.688 0.429
20.8792 16.906 0.420
20.8997 16.104 0.410
20.9202 16.823 0.419
20.9406 15.344 0.400
20.9611 15.521 0.402
20.9815 15.281 0.399
21.0020 15.156 0.397
21.0225 15.260 0.399
21.0429 15.552 0.402
21.0634 14.885 0.394
21.0839 15.583 0.403
21.1043 15.531 0.402
21.1248 14.792 0.393
21.1453 15.167 0.397
21.1657 14.438 0.388
21.1862 14.583 0.390
21.2066 14.469 0.388
21.2271 14.802 0.393
21.2476 13.750 0.378
21.2680 14.146 0.384
21.2885 13.729 0.378
21.3090 13.802 0.379
21.3294 13.542 0.376
21.3499 13.740 0.378
21.3703 13.875 0.380
21.3908 14.479 0.388
21.4113 14.135 0.384
21.4317 13.885 0.380
21.4522 14.458 0.388
21.4727 14.646 0.391
21.4931 13.573 0.376
21.5136 13.938 0.381
21.5340 13.010 0.368
21.5545 13.771 0.379
21.5750 13.531 0.375
21.5954 13.729 0.378
21.6159 14.188 0.384
21.6364 14.417 0.388
21.6568 14.469 0.388
21.6773 14.458 0.388
21.6977 14.292 0.386
21.7182 13.865 0.380
21.7387 14.177 0.384
21.7591 14.573 0.390
21.7796 14.354 0.387
21.8001 14.542 0.389
21.8205 13.344 0.373
21.8410 14.833 0.393
21.8614 14.344 0.387
21.8819 15.219 0.398
21.9024 14.833 0.393
21.9228 14.583 0.390
21.9433 14.698 0.391
21.9638 14.802 0.393
21.9842 15.344 0.400
22.0047 14.302 0.386
22.0252 15.563 0.403
22.0456 15.948 0.408
22.0661 17.573 0.428
22.0865 18.677 0.441
22.1070 19.844 0.455
22.1275 21.917 0.478
22.1479 25.021 0.511
22.1684 31.833 0.576
22.1889 36.667 0.618
22.2093 40.917 0.653
22.2298 39.563 0.642
22.2502 35.031 0.604
22.2707 32.458 0.581
22.2912 26.927 0.530
22.3116 22.167 0.481
22.3321 20.031 0.457
22.3526 18.031 0.433
22.3730 15.396 0.400
22.3935 14.979 0.395
22.4139 14.448 0.388
22.4344 14.615 0.390
22.4549 13.719 0.378
22.4753 12.854 0.366
22.4958 13.052 0.369
22.5163 13.208 0.371
22.5367 12.271 0.358
22.5572 11.865 0.352
22.5776 11.781 0.350
22.5981 11.625 0.348
22.6186 12.073 0.355
22.6390 11.021 0.339
22.6595 11.792 0.350
22.6800 10.958 0.338
22.7004 11.156 0.341
22.7209 11.229 0.342
22.7413 11.000 0.339
22.7618 11.771 0.350
22.7823 11.167 0.341
22.8027 11.688 0.349
22.8232 11.979 0.353
22.8437 12.885 0.366
22.8641 13.740 0.378
22.8846 15.885 0.407
22.9051 16.563 0.415
22.9255 17.667 0.429
22.9460 17.490 0.427
22.9664 15.531 0.402
22.9869 14.208 0.385
23.0074 13.760 0.379
23.0278 12.115 0.355
23.0483 11.375 0.344
23.0688 10.792 0.335
23.0892 10.427 0.330
23.1097 9.948 0.322
23.1301 9.740 0.319
23.1506 9.958 0.322
23.1711 9.823 0.320
23.1915 10.219 0.326
23.2120 9.594 0.316
23.2325 9.177 0.309
23.2529 9.708 0.318
23.2734 9.302 0.311
23.2938 8.906 0.305
23.3143 9.177 0.309
23.3348 9.448 0.314
23.3552 9.323 0.312
23.3757 9.615 0.316
23.3962 9.344 0.312
23.4166 9.198 0.310
23.4371 8.938 0.305
23.4575 9.031 0.307
23.4780 9.188 0.309
23.4985 9.292 0.311
23.5189 9.583 0.316
23.5394 9.510 0.315
23.5599 9.854 0.320
23.5803 9.771 0.319
23.6008 10.021 0.323
23.6212 10.531 0.331
23.6417 10.281 0.327
23.6622 10.365 0.329
23.6826 10.656 0.333
23.7031 10.115 0.325
23.7236 10.104 0.324
23.7440 10.021 0.323
23.7645 9.271 0.311
23.7850 9.458 0.314
23.8054 8.990 0.306
23.8259 8.854 0.304
23.8463 9.292 0.311
23.8668 9.490 0.314
23.8873 9.448 0.314
23.9077 9.563 0.316
23.9282 8.917 0.305
23.9487 8.990 0.306
23.9691 9.594 0.316
23.9896 8.906 0.305
24.0100 9.125 0.308
24.0305 9.323 0.312
24.0510 8.865 0.304
24.0714 9.240 0.310
24.0919 9.156 0.309
24.1124 9.094 0.308
24.1328 9.417 0.313
24.1533 9.531 0.315
24.1737 8.990 0.306
24.1942 9.604 0.316
24.2147 9.510 0.315
24.2351 9.958 0.322
24.2556 10.042 0.323
24.2761 9.781 0.319
24.2965 10.583 0.332
24.3170 10.521 0.331
24.3374 10.813 0.336
24.3579 11.708 0.349
24.3784 11.552 0.347
24.3988 11.198 0.342
24.4193 10.906 0.337
24.4398 10.198 0.326
24.4602 10.271 0.327
24.4807 10.229 0.326
24.5012 9.094 0.308
24.5216 9.521 0.315
24.5421 9.375 0.313
24.5625 8.615 0.300
24.5830 8.865 0.304
24.6035 8.656 0.300
24.6239 9.156 0.309
24.6444 8.729 0.302
24.6649 9.625 0.317
24.6853 9.938 0.322
24.7058 9.896 0.321
24.7262 9.813 0.320
24.7467 9.708 0.318
24.7672 9.010 0.306
24.7876 9.042 0.307
24.8081 9.104 0.308
24.8286 9.115 0.308
24.8490 9.021 0.307
24.8695 9.302 0.311
24.8899 9.021 0.307
24.9104 8.719 0.301
24.9309 9.333 0.312
24.9513 8.469 0.297
24.9718 8.573 0.299
24.9923 8.156 0.291
25.0127 8.896 0.304
25.0332 8.885 0.304
25.0536 8.646 0.300
25.0741 8.677 0.301
25.0946 8.302 0.294
25.1150 8.427 0.296
25.1355 8.365 0.295
25.1560 8.927 0.305
25.1764 8.146 0.291
25.1969 8.354 0.295
25.2173 8.313 0.294
25.2378 9.198 0.310
25.2583 8.396 0.296
25.2787 8.198 0.292
25.2992 8.083 0.290
25.3197 8.135 0.291
25.3401 8.990 0.306
25.3606 8.625 0.300
25.3811 8.885 0.304
25.4015 8.490 0.297
25.4220 8.625 0.300
25.4424 8.708 0.301
25.4629 8.823 0.303
25.4834 8.771 0.302
25.5038 9.302 0.311
25.5243 9.594 0.316
25.5448 10.396 0.329
25.5652 11.656 0.348
25.5857 11.458 0.345
25.6061 12.323 0.358
25.6266 12.281 0.358
25.6471 11.667 0.349
25.6675 11.083 0.340
25.6880 10.115 0.325
25.7085 9.917 0.321
25.7289 9.427 0.313
25.7494 9.365 0.312
25.7698 8.813 0.303
25.7903 8.688 0.301
25.8108 8.708 0.301
25.8312 8.531 0.298
25.8517 8.781 0.302
25.8722 8.438 0.296
25.8926 8.385 0.296
25.9131 8.552 0.298
25.9335 7.854 0.286
25.9540 8.531 0.298
25.9745 8.542 0.298
25.9949 8.365 0.295
26.0154 8.552 0.298
26.0359 8.010 0.289
26.0563 8.760 0.302
26.0768 8.354 0.295
26.0972 8.510 0.298
26.1177 8.750 0.302
26.1382 9.115 0.308
26.1586 8.771 0.302
26.1791 9.448 0.314
26.1996 9.094 0.308
26.2200 8.938 0.305
26.2405 8.667 0.300
26.2610 8.771 0.302
26.2814 8.781 0.302
26.3019 8.490 0.297
26.3223 8.854 0.304
26.3428 8.229 0.293
26.3633 8.354 0.295
26.3837 8.438 0.296
26.4042 8.500 0.298
26.4247 8.938 0.305
26.4451 8.646 0.300
26.4656 8.594 0.299
26.4860 8.719 0.301
26.5065 8.854 0.304
26.5270 8.615 0.300
26.5474 8.823 0.303
26.5679 8.438 0.296
26.5884 8.469 0.297
26.6088 8.865 0.304
26.6293 8.365 0.295
26.6497 8.417 0.296
26.6702 8.396 0.296
26.6907 8.865 0.304
26.7111 8.896 0.304
26.7316 8.677 0.301
26.7521 8.146 0.291
26.7725 8.719 0.301
26.7930 9.010 0.306
26.8134 9.031 0.307
26.8339 8.281 0.294
26.8544 8.813 0.303
26.8748 8.208 0.292
26.8953 8.750 0.302
26.9158 8.500 0.298
26.9362 8.615 0.300
26.9567 8.427 0.296
26.9771 8.667 0.300
26.9976 8.969 0.306
27.0181 8.844 0.304
27.0385 9.323 0.312
27.0590 8.656 0.300
27.0795 9.115 0.308
27.0999 8.781 0.302
27.1204 8.885 0.304
27.1409 8.958 0.305
27.1613 8.802 0.303
27.1818 8.948 0.305
27.2022 9.438 0.314
27.2227 9.323 0.312
27.2432 9.490 0.314
27.2636 9.240 0.310
27.2841 9.031 0.307
27.3046 9.094 0.308
27.3250 8.552 0.298
27.3455 8.583 0.299
27.3659 8.573 0.299
27.3864 9.104 0.308
27.4069 9.146 0.309
27.4273 9.208 0.310
27.4478 9.396 0.313
27.4683 10.260 0.327
27.4887 10.271 0.327
27.5092 9.917 0.321
27.5296 10.490 0.331
27.5501 9.448 0.314
27.5706 9.146 0.309
27.5910 9.146 0.309
27.6115 8.885 0.304
27.6320 9.354 0.312
27.6524 8.271 0.294
27.6729 8.156 0.291
27.6933 8.625 0.300
27.7138 8.208 0.292
27.7343 8.375 0.295
27.7547 8.740 0.302
27.7752 8.552 0.298
27.7957 8.135 0.291
27.8161 8.260 0.293
27.8366 8.625 0.300
27.8570 8.167 0.292
27.8775 8.677 0.301
27.8980 8.083 0.290
27.9184 8.542 0.298
27.9389 7.865 0.286
27.9594 8.688 0.301
27.9798 7.948 0.288
28.0003 8.813 0.303
28.0208 8.406 0.296
28.0412 8.719 0.301
28.0617 8.313 0.294
28.0821 8.042 0.289
28.1026 7.979 0.288
28.1231 8.208 0.292
28.1435 7.906 0.287
28.1640 8.000 0.289
28.1845 7.896 0.287
28.2049 7.979 0.288
28.2254 8.833 0.303
28.2458 8.229 0.293
28.2663 8.104 0.291
28.2868 8.188 0.292
28.3072 7.458 0.279
28.3277 7.917 0.287
28.3482 7.802 0.285
28.3686 7.573 0.281
28.3891 8.333 0.295
28.4095 7.615 0.282
28.4300 7.052 0.271
28.4505 7.385 0.277
28.4709 7.438 0.278
28.4914 7.833 0.286
28.5119 7.729 0.284
28.5323 7.156 0.273
28.5528 7.708 0.283
28.5732 7.677 0.283
28.5937 7.313 0.276
28.6142 7.698 0.283
28.6346 7.375 0.277
28.6551 7.667 0.283
28.6756 7.875 0.286
28.6960 7.615 0.282
28.7165 7.469 0.279
28.7370 7.906 0.287
28.7574 7.760 0.284
28.7779 7.802 0.285
28.7983 7.656 0.282
28.8188 8.135 0.291
28.8393 7.615 0.282
28.8597 7.854 0.286
28.8802 7.771 0.285
28.9007 7.375 0.277
28.9211 7.448 0.279
28.9416 7.198 0.274
28.9620 7.750 0.284
28.9825 7.740 0.284
29.0030 7.875 0.286
29.0234 7.583 0.281
29.0439 7.167 0.273
29.0644 7.490 0.279
29.0848 7.698 0.283
29.1053 7.594 0.281
29.1257 8.010 0.289
29.1462 7.458 0.279
29.1667 7.906 0.287
29.1871 8.396 0.296
29.2076 7.740 0.284
29.2281 8.167 0.292
29.2485 7.896 0.287
29.2690 8.063 0.290
29.2894 8.031 0.289
29.3099 7.875 0.286
29.3304 8.063 0.290
29.3508 8.458 0.297
29.3713 8.927 0.305
29.3918 8.438 0.296
29.4122 8.313 0.294
29.4327 7.844 0.286
29.4531 8.073 0.290
29.4736 7.344 0.277
29.4941 7.885 0.287
29.5145 8.313 0.294
29.5350 7.604 0.281
29.5555 8.208 0.292
29.5759 7.875 0.286
29.5964 8.177 0.292
29.6169 7.917 0.287
29.6373 7.813 0.285
29.6578 7.438 0.278
29.6782 7.625 0.282
29.6987 7.875 0.286
29.7192 7.042 0.271
29.7396 7.313 0.276
29.7601 7.542 0.280
29.7806 7.344 0.277
29.8010 7.229 0.274
29.8215 6.948 0.269
29.8419 7.333 0.276
29.8624 7.323 0.276
29.8829 6.802 0.266
29.9033 6.698 0.264
29.9238 7.438 0.278
29.9443 7.156 0.273
29.9647 7.625 0.282
29.9852 6.729 0.265
30.0056 7.375 0.277
30.0261 7.510 0.280
30.0466 7.135 0.273
30.0670 7.302 0.276
30.0875 7.677 0.283
30.1080 7.292 0.276
30.1284 6.635 0.263
30.1489 6.958 0.269
30.1693 7.073 0.271
30.1898 7.042 0.271
30.2103 6.729 0.265
30.2307 6.917 0.268
30.2512 6.667 0.264
30.2717 7.396 0.278
30.2921 6.750 0.265
30.3126 6.854 0.267
30.3330 6.563 0.261
30.3535 7.125 0.272
30.3740 6.792 0.266
30.3944 7.292 0.276
30.4149 7.063 0.271
30.4354 6.938 0.269
30.4558 7.260 0.275
30.4763 7.219 0.274
30.4968 6.781 0.266
30.5172 7.010 0.270
30.5377 7.219 0.274
30.5581 7.188 0.274
30.5786 7.208 0.274
30.5991 7.240 0.275
30.6195 6.792 0.266
30.6400 7.448 0.279
30.6605 7.010 0.270
30.6809 7.542 0.280
30.7014 7.635 0.282
30.7218 6.865 0.267
30.7423 7.292 0.276
30.7628 7.927 0.287
30.7832 8.010 0.289
30.8037 8.021 0.289
30.8242 8.521 0.298
30.8446 8.688 0.301
30.8651 9.031 0.307
30.8855 10.115 0.325
30.9060 11.344 0.344
30.9265 12.667 0.363
30.9469 17.042 0.421
30.9674 22.542 0.485
30.9879 30.510 0.564
31.0083 39.740 0.643
31.0288 41.583 0.658
31.0492 35.646 0.609
31.0697 31.448 0.572
31.0902 30.271 0.562
31.1106 27.104 0.531
31.1311 21.479 0.473
31.1516 17.052 0.421
31.1720 14.240 0.385
31.1925 12.938 0.367
31.2129 11.885 0.352
31.2334 10.802 0.335
31.2539 10.521 0.331
31.2743 10.240 0.327
31.2948 9.760 0.319
31.3153 9.698 0.318
31.3357 8.896 0.304
31.3562 8.969 0.306
31.3767 9.021 0.307
31.3971 8.823 0.303
31.4176 8.948 0.305
31.4380 8.260 0.293
31.4585 8.479 0.297
31.4790 7.906 0.287
31.4994 7.688 0.283
31.5199 7.813 0.285
31.5404 7.729 0.284
31.5608 7.563 0.281
31.5813 8.021 0.289
31.6017 8.146 0.291
31.6222 7.438 0.278
31.6427 8.240 0.293
31.6631 7.750 0.284
31.6836 7.490 0.279
31.7041 8.229 0.293
31.7245 7.781 0.285
31.7450 7.854 0.286
31.7654 7.833 0.286
31.7859 7.948 0.288
31.8064 8.313 0.294
31.8268 8.958 0.305
31.8473 8.094 0.290
31.8678 8.292 0.294
31.8882 9.000 0.306
31.9087 8.802 0.303
31.9291 8.698 0.301
31.9496 9.010 0.306
31.9701 8.854 0.304
31.9905 8.885 0.304
32.0110 8.479 0.297
32.0315 8.906 0.305
32.0519 9.042 0.307
32.0724 9.323 0.312
32.0928 9.146 0.309
32.1133 9.781 0.319
32.1338 10.438 0.330
32.1542 11.302 0.343
32.1747 12.448 0.360
32.1952 12.875 0.366
32.2156 14.063 0.383
32.2361 15.146 0.397
32.2566 14.708 0.391
32.2770 12.969 0.368
32.2975 13.781 0.379
32.3179 12.854 0.366
32.3384 12.010 0.354
32.3589 12.115 0.355
32.3793 10.438 0.330
32.3998 10.302 0.328
32.4203 9.844 0.320
32.4407 10.396 0.329
32.4612 10.042 0.323
32.4816 10.167 0.325
32.5021 10.021 0.323
32.5226 10.802 0.335
32.5430 11.240 0.342
32.5635 12.521 0.361
32.5840 13.833 0.380
32.6044 15.729 0.405
32.6249 17.646 0.429
32.6453 18.500 0.439
32.6658 18.469 0.439
32.6863 16.198 0.411
32.7067 15.375 0.400
32.7272 15.292 0.399
32.7477 13.354 0.373
32.7681 11.865 0.352
32.7886 10.688 0.334
32.8090 9.781 0.319
32.8295 10.188 0.326
32.8500 9.740 0.319
32.8704 9.729 0.318
32.8909 8.667 0.300
32.9114 9.375 0.313
32.9318 8.500 0.298
32.9523 9.135 0.308
32.9728 8.469 0.297
32.9932 8.542 0.298
33.0137 8.521 0.298
33.0341 8.594 0.299
33.0546 8.875 0.304
33.0751 8.563 0.299
33.0955 8.198 0.292
33.1160 8.104 0.291
33.1365 8.177 0.292
33.1569 8.146 0.291
33.1774 8.156 0.291
33.1978 8.479 0.297
33.2183 8.188 0.292
33.2388 8.240 0.293
33.2592 7.990 0.288
33.2797 7.896 0.287
33.3002 7.875 0.286
33.3206 7.646 0.282
33.3411 7.760 0.284
33.3615 7.833 0.286
33.3820 8.063 0.290
33.4025 8.240 0.293
33.4229 8.021 0.289
33.4434 8.198 0.292
33.4639 7.396 0.278
33.4843 7.698 0.283
33.5048 8.031 0.289
33.5252 7.792 0.285
33.5457 7.531 0.280
33.5662 7.406 0.278
33.5866 7.042 0.271
33.6071 6.833 0.267
33.6276 7.052 0.271
33.6480 7.219 0.274
33.6685 7.094 0.272
33.6889 7.354 0.277
33.7094 7.073 0.271
33.7299 6.938 0.269
33.7503 7.104 0.272
33.7708 6.938 0.269
33.7913 7.021 0.270
33.8117 6.865 0.267
33.8322 6.760 0.265
33.8527 7.042 0.271
33.8731 6.469 0.260
33.8936 6.875 0.268
33.9140 7.031 0.271
33.9345 6.885 0.268
33.9550 6.458 0.259
33.9754 7.000 0.270
33.9959 6.656 0.263
34.0164 7.302 0.276
34.0368 6.896 0.268
34.0573 6.646 0.263
34.0777 7.146 0.273
34.0982 7.250 0.275
34.1187 7.635 0.282
34.1391 7.063 0.271
34.1596 7.563 0.281
34.1801 7.531 0.280
34.2005 8.208 0.292
34.2210 7.865 0.286
34.2414 8.969 0.306
34.2619 8.823 0.303
34.2824 8.177 0.292
34.3028 8.635 0.300
34.3233 8.500 0.298
34.3438 7.313 0.276
34.3642 8.000 0.289
34.3847 7.344 0.277
34.4051 7.510 0.280
34.4256 7.510 0.280
34.4461 6.771 0.266
34.4665 7.229 0.274
34.4870 6.771 0.266
34.5075 6.458 0.259
34.5279 7.438 0.278
34.5484 6.969 0.269
34.5688 6.583 0.262
34.5893 6.667 0.264
34.6098 6.781 0.266
34.6302 6.552 0.261
34.6507 7.073 0.271
34.6712 6.938 0.269
34.6916 6.792 0.266
34.7121 6.927 0.269
34.7326 6.635 0.263
34.7530 7.135 0.273
34.7735 7.156 0.273
34.7939 6.625 0.263
34.8144 6.990 0.270
34.8349 7.667 0.283
34.8553 7.677 0.283
34.8758 7.865 0.286
34.8963 7.875 0.286
34.9167 9.010 0.306
34.9372 9.083 0.308
34.9576 10.146 0.325
34.9781 11.646 0.348
34.9986 11.208 0.342
35.0190 11.646 0.348
35.0395 11.219 0.342
35.0600 10.958 0.338
35.0804 10.750 0.335
35.1009 9.792 0.319
35.1213 9.563 0.316
35.1418 8.854 0.304
35.1623 7.771 0.285
35.1827 7.885 0.287
35.2032 7.958 0.288
35.2237 7.094 0.272
35.2441 7.125 0.272
35.2646 7.406 0.278
35.2850 7.479 0.279
35.3055 7.094 0.272
35.3260 7.240 0.275
35.3464 7.208 0.274
35.3669 7.354 0.277
35.3874 7.073 0.271
35.4078 6.833 0.267
35.4283 7.250 0.275
35.4487 7.427 0.278
35.4692 7.240 0.275
35.4897 7.521 0.280
35.5101 7.667 0.283
35.5306 7.510 0.280
35.5511 7.823 0.285
35.5715 7.469 0.279
35.5920 8.323 0.294
35.6125 7.542 0.280
35.6329 7.375 0.277
35.6534 7.573 0.281
35.6738 7.844 0.286
35.6943 7.802 0.285
35.7148 7.802 0.285
35.7352 7.396 0.278
35.7557 7.583 0.281
35.7762 7.677 0.283
35.7966 7.729 0.284
35.8171 8.240 0.293
35.8375 8.125 0.291
35.8580 8.813 0.303
35.8785 8.354 0.295
35.8989 8.594 0.299
35.9194 9.042 0.307
35.9399 9.542 0.315
35.9603 9.458 0.314
35.9808 9.958 0.322
36.0012 10.677 0.333
36.0217 10.708 0.334
36.0422 11.469 0.346
36.0626 11.365 0.344
36.0831 11.740 0.350
36.1036 11.854 0.351
36.1240 11.740 0.350
36.1445 11.490 0.346
36.1649 12.333 0.358
36.1854 11.708 0.349
36.2059 11.625 0.348
36.2263 12.000 0.354
36.2468 11.729 0.350
36.2673 11.688 0.349
36.2877 11.448 0.345
36.3082 11.875 0.352
36.3286 12.333 0.358
36.3491 12.667 0.363
36.3696 11.760 0.350
36.3900 12.938 0.367
36.4105 13.302 0.372
36.4310 13.313 0.372
36.4514 12.792 0.365
36.4719 14.188 0.384
36.4924 14.240 0.385
36.5128 16.063 0.409
36.5333 16.917 0.420
36.5537 19.354 0.449
36.5742 22.219 0.481
36.5947 25.740 0.518
36.6151 26.490 0.525
36.6356 25.167 0.512
36.6561 22.583 0.485
36.6765 21.885 0.477
36.6970 21.427 0.472
36.7174 20.427 0.461
36.7379 18.490 0.439
36.7584 17.354 0.425
36.7788 16.281 0.412
36.7993 15.458 0.401
36.8198 15.271 0.399
36.8402 15.021 0.396
36.8607 15.000 0.395
36.8811 14.917 0.394
36.9016 15.427 0.401
36.9221 15.302 0.399
36.9425 15.375 0.400
36.9630 15.792 0.406
36.9835 16.313 0.412
37.0039 16.938 0.420
37.0244 19.552 0.451
37.0448 20.281 0.460
37.0653 22.635 0.486
37.0858 27.146 0.532
37.1062 29.656 0.556
37.1267 31.792 0.575
37.1472 31.615 0.574
37.1676 29.656 0.556
37.1881 28.302 0.543
37.2085 25.792 0.518
37.2290 26.667 0.527
37.2495 24.167 0.502
37.2699 22.229 0.481
37.2904 19.698 0.453
37.3109 17.510 0.427
37.3313 16.927 0.420
37.3518 15.510 0.402
37.3723 14.948 0.395
37.3927 15.115 0.397
37.4132 14.615 0.390
37.4336 13.688 0.378
37.4541 13.260 0.372
37.4746 13.438 0.374
37.4950 12.917 0.367
37.5155 12.146 0.356
37.5360 12.604 0.362
37.5564 13.031 0.368
37.5769 12.219 0.357
37.5973 12.271 0.358
37.6178 12.729 0.364
37.6383 11.729 0.350
37.6587 12.146 0.356
37.6792 11.458 0.345
37.6997 11.813 0.351
37.7201 12.135 0.356
37.7406 11.698 0.349
37.7610 11.646 0.348
37.7815 11.771 0.350
37.8020 12.292 0.358
37.8224 12.146 0.356
37.8429 12.104 0.355
37.8634 11.833 0.351
37.8838 11.604 0.348
37.9043 12.156 0.356
37.9247 12.385 0.359
37.9452 12.719 0.364
37.9657 12.500 0.361
37.9861 12.500 0.361
38.0066 12.396 0.359
38.0271 13.490 0.375
38.0475 12.885 0.366
38.0680 14.052 0.383
38.0885 14.625 0.390
38.1089 15.167 0.397
38.1294 17.396 0.426
38.1498 17.188 0.423
38.1703 18.698 0.441
38.1908 17.167 0.423
38.2112 17.396 0.426
38.2317 16.406 0.413
38.2522 16.531 0.415
38.2726 15.198 0.398
38.2931 14.844 0.393
38.3135 14.281 0.386
38.3340 13.156 0.370
38.3545 13.000 0.368
38.3749 14.021 0.382
38.3954 13.156 0.370
38.4159 14.063 0.383
38.4363 14.500 0.389
38.4568 15.333 0.400
38.4772 14.323 0.386
38.4977 14.792 0.393
38.5182 14.188 0.384
38.5386 13.302 0.372
38.5591 13.365 0.373
38.5796 13.750 0.378
38.6000 12.146 0.356
38.6205 12.281 0.358
38.6409 11.083 0.340
38.6614 11.167 0.341
38.6819 11.115 0.340
38.7023 10.771 0.335
38.7228 10.146 0.325
38.7433 9.823 0.320
38.7637 9.438 0.314
38.7842 9.563 0.316
38.8046 9.781 0.319
38.8251 9.969 0.322
38.8456 9.313 0.311
38.8660 9.010 0.306
38.8865 9.240 0.310
38.9070 9.042 0.307
38.9274 8.969 0.306
38.9479 9.031 0.307
38.9684 8.771 0.302
38.9888 8.719 0.301
39.0093 9.125 0.308
39.0297 9.063 0.307
39.0502 9.073 0.307
39.0707 8.479 0.297
39.0911 8.813 0.303
39.1116 8.802 0.303
39.1321 8.479 0.297
39.1525 8.729 0.302
39.1730 8.469 0.297
39.1934 8.521 0.298
39.2139 8.750 0.302
39.2344 8.917 0.305
39.2548 8.813 0.303
39.2753 9.229 0.310
39.2958 8.521 0.298
39.3162 9.063 0.307
39.3367 8.677 0.301
39.3571 8.750 0.302
39.3776 8.698 0.301
39.3981 8.646 0.300
39.4185 8.604 0.299
39.4390 8.896 0.304
39.4595 9.240 0.310
39.4799 9.115 0.308
39.5004 8.979 0.306
39.5208 8.896 0.304
39.5413 9.302 0.311
39.5618 8.510 0.298
39.5822 8.896 0.304
39.6027 9.396 0.313
39.6232 8.542 0.298
39.6436 8.396 0.296
39.6641 9.281 0.311
39.6845 8.844 0.304
39.7050 9.240 0.310
39.7255 9.688 0.318
39.7459 9.729 0.318
39.7664 10.333 0.328
39.7869 10.594 0.332
39.8073 11.708 0.349
39.8278 12.396 0.359
39.8483 12.896 0.367
39.8687 12.323 0.358
39.8892 10.896 0.337
39.9096 10.896 0.337
39.9301 10.635 0.333
39.9506 11.156 0.341
39.9710 9.688 0.318
39.9915 9.531 0.315
40.0120 9.875 0.321
40.0324 9.990 0.323
40.0529 9.167 0.309
40.0733 9.323 0.312
40.0938 8.948 0.305
40.1143 8.979 0.306
40.1347 9.271 0.311
40.1552 8.813 0.303
40.1757 8.917 0.305
40.1961 9.625 0.317
40.2166 8.865 0.304
40.2370 9.552 0.315
40.2575 9.354 0.312
40.2780 9.760 0.319
40.2984 9.740 0.319
40.3189 9.823 0.320
40.3394 10.396 0.329
40.3598 10.875 0.337
40.3803 11.094 0.340
40.4007 10.917 0.337
40.4212 11.896 0.352
40.4417 12.260 0.357
40.4621 12.948 0.367
40.4826 11.958 0.353
40.5031 11.969 0.353
40.5235 11.281 0.343
40.5440 12.281 0.358
40.5644 10.958 0.338
40.5849 11.375 0.344
40.6054 11.146 0.341
40.6258 10.375 0.329
40.6463 10.510 0.331
40.6668 10.281 0.327
40.6872 9.813 0.320
40.7077 10.063 0.324
40.7282 10.427 0.330
40.7486 10.698 0.334
40.7691 10.365 0.329
40.7895 11.042 0.339
40.8100 12.260 0.357
40.8305 12.531 0.361
40.8509 12.229 0.357
40.8714 12.375 0.359
40.8919 11.698 0.349
40.9123 11.906 0.352
40.9328 11.198 0.342
40.9532 10.656 0.333
40.9737 11.052 0.339
40.9942 10.729 0.334
41.0146 10.719 0.334
41.0351 10.260 0.327
41.0556 10.104 0.324
41.0760 10.646 0.333
41.0965 10.052 0.324
41.1169 10.385 0.329
41.1374 10.573 0.332
41.1579 11.000 0.339
41.1783 11.781 0.350
41.1988 11.958 0.353
41.2193 12.625 0.363
41.2397 14.448 0.388
41.2602 15.854 0.406
41.2806 17.094 0.422
41.3011 16.667 0.417
41.3216 16.063 0.409
41.3420 14.458 0.388
41.3625 14.563 0.389
41.3830 14.042 0.382
41.4034 13.052 0.369
41.4239 12.323 0.358
41.4443 11.427 0.345
41.4648 11.198 0.342
41.4853 10.479 0.330
41.5057 9.990 0.323
41.5262 9.146 0.309
41.5467 9.708 0.318
41.5671 8.365 0.295
41.5876 9.042 0.307
41.6081 8.875 0.304
41.6285 8.604 0.299
41.6490 9.302 0.311
41.6694 8.521 0.298
41.6899 8.438 0.296
41.7104 8.656 0.300
41.7308 9.083 0.308
41.7513 8.156 0.291
41.7718 8.063 0.290
41.7922 8.375 0.295
41.8127 8.969 0.306
41.8331 8.219 0.293
41.8536 8.198 0.292
41.8741 8.771 0.302
41.8945 9.073 0.307
41.9150 10.271 0.327
41.9355 9.771 0.319
41.9559 9.469 0.314
41.9764 9.750 0.319
41.9968 8.719 0.301
42.0173 9.250 0.310
42.0378 9.313 0.311
42.0582 9.052 0.307
42.0787 8.927 0.305
42.0992 8.344 0.295
42.1196 8.042 0.289
42.1401 7.531 0.280
42.1605 8.344 0.295
42.1810 7.729 0.284
42.2015 8.073 0.290
42.2219 7.823 0.285
42.2424 7.615 0.282
42.2629 7.031 0.271
42.2833 7.479 0.279
42.3038 7.438 0.278
42.3243 7.771 0.285
42.3447 7.469 0.279
42.3652 7.750 0.284
42.3856 7.635 0.282
42.4061 7.000 0.270
42.4266 7.938 0.288
42.4470 7.948 0.288
42.4675 8.135 0.291
42.4880 7.990 0.288
42.5084 7.406 0.278
42.5289 7.542 0.280
42.5493 7.302 0.276
42.5698 7.896 0.287
42.5903 8.990 0.306
42.6107 8.573 0.299
42.6312 8.729 0.302
42.6517 8.802 0.303
42.6721 8.417 0.296
42.6926 7.813 0.285
42.7130 7.792 0.285
42.7335 7.573 0.281
42.7540 7.438 0.278
42.7744 8.385 0.296
42.7949 8.010 0.289
42.8154 8.125 0.291
42.8358 8.156 0.291
42.8563 7.917 0.287
42.8767 7.688 0.283
42.8972 7.698 0.283
42.9177 8.229 0.293
42.9381 7.896 0.287
42.9586 7.313 0.276
42.9791 8.490 0.297
42.9995 8.302 0.294
43.0200 7.698 0.283
43.0404 8.333 0.295
43.0609 8.875 0.304
43.0814 8.583 0.299
43.1018 8.208 0.292
43.1223 8.438 0.296
43.1428 9.302 0.311
43.1632 9.271 0.311
43.1837 9.083 0.308
43.2042 9.406 0.313
43.2246 9.448 0.314
43.2451 9.427 0.313
43.2655 10.781 0.335
43.2860 10.313 0.328
43.3065 10.823 0.336
43.3269 10.260 0.327
43.3474 10.313 0.328
43.3679 10.156 0.325
43.3883 10.208 0.326
43.4088 10.198 0.326
43.4292 9.979 0.322
43.4497 10.531 0.331
43.4702 9.802 0.320
43.4906 10.469 0.330
43.5111 10.094 0.324
43.5316 10.729 0.334
43.5520 11.021 0.339
43.5725 11.000 0.339
43.5929 12.177 0.356
43.6134 13.073 0.369
43.6339 13.646 0.377
43.6543 14.833 0.393
43.6748 15.875 0.407
43.6953 18.260 0.436
43.7157 19.354 0.449
43.7362 21.229 0.470
43.7566 20.740 0.465
43.7771 19.531 0.451
43.7976 18.833 0.443
43.8180 17.219 0.424
43.8385 17.521 0.427
43.8590 16.469 0.414
43.8794 16.042 0.409
43.8999 14.385 0.387
43.9203 13.365 0.373
43.9408 12.260 0.357
43.9613 11.635 0.348
43.9817 11.198 0.342
44.0022 10.906 0.337
44.0227 10.781 0.335
44.0431 10.240 0.327
44.0636 9.792 0.319
44.0841 9.729 0.318
44.1045 9.448 0.314
44.1250 8.948 0.305
44.1454 8.813 0.303
44.1659 8.885 0.304
44.1864 8.302 0.294
44.2068 8.688 0.301
44.2273 8.344 0.295
44.2478 8.833 0.303
44.2682 8.740 0.302
44.2887 8.438 0.296
44.3091 8.479 0.297
44.3296 8.104 0.291
44.3501 8.688 0.301
44.3705 8.313 0.294
44.3910 8.042 0.289
44.4115 8.135 0.291
44.4319 8.667 0.300
44.4524 7.833 0.286
44.4728 8.240 0.293
44.4933 7.417 0.278
44.5138 8.396 0.296
44.5342 8.094 0.290
44.5547 7.594 0.281
44.5752 8.125 0.291
44.5956 8.281 0.294
44.6161 7.979 0.288
44.6365 7.583 0.281
44.6570 7.500 0.280
44.6775 8.292 0.294
44.6979 7.563 0.281
44.7184 7.646 0.282
44.7389 7.833 0.286
44.7593 8.219 0.293
44.7798 7.656 0.282
44.8002 7.948 0.288
44.8207 7.938 0.288
44.8412 7.833 0.286
44.8616 8.042 0.289
44.8821 7.740 0.284
44.9026 7.417 0.278
44.9230 7.990 0.288
44.9435 7.979 0.288
44.9640 8.219 0.293
44.9844 7.510 0.280
45.0049 8.052 0.290
45.0253 8.021 0.289
45.0458 7.927 0.287
45.0663 7.479 0.279
45.0867 7.938 0.288
45.1072 8.615 0.300
45.1277 7.458 0.279
45.1481 8.188 0.292
45.1686 8.604 0.299
45.1890 8.073 0.290
45.2095 8.563 0.299
45.2300 8.885 0.304
45.2504 9.396 0.313
45.2709 9.500 0.315
45.2914 10.188 0.326
45.3118 10.771 0.335
45.3323 11.260 0.342
45.3527 10.823 0.336
45.3732 10.917 0.337
45.3937 9.896 0.321
45.4141 9.615 0.316
45.4346 9.625 0.317
45.4551 9.500 0.315
45.4755 9.271 0.311
45.4960 8.719 0.301
45.5164 8.740 0.302
45.5369 8.406 0.296
45.5574 8.354 0.295
45.5778 8.396 0.296
45.5983 8.042 0.289
45.6188 8.104 0.291
45.6392 7.490 0.279
45.6597 7.229 0.274
45.6801 7.333 0.276
45.7006 7.375 0.277
45.7211 7.469 0.279
45.7415 7.302 0.276
45.7620 7.573 0.281
45.7825 7.604 0.281
45.8029 7.438 0.278
45.8234 7.396 0.278
45.8439 7.625 0.282
45.8643 7.448 0.279
45.8848 7.688 0.283
45.9052 7.250 0.275
45.9257 7.604 0.281
45.9462 7.490 0.279
45.9666 7.469 0.279
45.9871 7.583 0.281
46.0076 7.292 0.276
46.0280 7.125 0.272
46.0485 7.531 0.280
46.0689 6.896 0.268
46.0894 7.115 0.272
46.1099 7.344 0.277
46.1303 6.698 0.264
46.1508 6.792 0.266
46.1713 6.500 0.260
46.1917 7.104 0.272
46.2122 6.885 0.268
46.2326 6.500 0.260
46.2531 6.219 0.255
46.2736 6.990 0.270
46.2940 6.823 0.267
46.3145 6.615 0.262
46.3350 6.885 0.268
46.3554 7.188 0.274
46.3759 6.083 0.252
46.3963 6.708 0.264
46.4168 6.177 0.254
46.4373 6.750 0.265
46.4577 6.438 0.259
46.4782 6.906 0.268
46.4987 6.313 0.256
46.5191 7.250 0.275
46.5396 6.958 0.269
46.5601 6.479 0.260
46.5805 6.958 0.269
46.6010 7.490 0.279
46.6214 7.458 0.279
46.6419 7.094 0.272
46.6624 7.573 0.281
46.6828 7.677 0.283
46.7033 7.375 0.277
46.7238 7.490 0.279
46.7442 7.083 0.272
46.7647 7.188 0.274
46.7851 7.302 0.276
46.8056 7.208 0.274
46.8261 7.229 0.274
46.8465 6.760 0.265
46.8670 7.031 0.271
46.8875 6.531 0.261
46.9079 6.521 0.261
46.9284 6.406 0.258
46.9488 6.792 0.266
46.9693 6.542 0.261
46.9898 6.760 0.265
47.0102 6.583 0.262
47.0307 6.542 0.261
47.0512 6.750 0.265
47.0716 6.625 0.263
47.0921 6.917 0.268
47.1125 7.260 0.275
47.1330 6.625 0.263
47.1535 6.552 0.261
47.1739 6.948 0.269
47.1944 6.302 0.256
47.2149 6.510 0.260
47.2353 6.813 0.266
47.2558 7.083 0.272
47.2762 6.802 0.266
47.2967 6.729 0.265
47.3172 6.750 0.265
47.3376 6.781 0.266
47.3581 6.875 0.268
47.3786 6.458 0.259
47.3990 6.740 0.265
47.4195 6.563 0.261
47.4400 7.042 0.271
47.4604 6.865 0.267
47.4809 7.313 0.276
47.5013 7.073 0.271
47.5218 6.979 0.270
47.5423 7.240 0.275
47.5627 7.250 0.275
47.5832 7.260 0.275
47.6037 7.469 0.279
47.6241 7.344 0.277
47.6446 7.240 0.275
47.6650 7.896 0.287
47.6855 8.771 0.302
47.7060 8.333 0.295
47.7264 8.219 0.293
47.7469 9.281 0.311
47.7674 10.302 0.328
47.7878 10.896 0.337
47.8083 11.156 0.341
47.8287 10.198 0.326
47.8492 10.375 0.329
47.8697 9.323 0.312
47.8901 9.969 0.322
47.9106 9.146 0.309
47.9311 8.729 0.302
47.9515 8.583 0.299
47.9720 7.813 0.285
47.9924 8.302 0.294
48.0129 7.375 0.277
48.0334 7.458 0.279
48.0538 6.875 0.268
48.0743 7.333 0.276
48.0948 6.615 0.262
48.1152 6.490 0.260
48.1357 6.302 0.256
48.1561 6.865 0.267
48.1766 7.292 0.276
48.1971 7.198 0.274
48.2175 7.531 0.280
48.2380 6.865 0.267
48.2585 7.177 0.273
48.2789 7.198 0.274
48.2994 7.583 0.281
48.3199 7.948 0.288
48.3403 8.240 0.293
48.3608 8.219 0.293
48.3812 7.823 0.285
48.4017 7.438 0.278
48.4222 7.469 0.279
48.4426 7.458 0.279
48.4631 7.448 0.279
48.4836 6.948 0.269
48.5040 7.271 0.275
48.5245 7.521 0.280
48.5449 7.125 0.272
48.5654 7.219 0.274
48.5859 7.021 0.270
48.6063 7.156 0.273
48.6268 6.917 0.268
48.6473 6.781 0.266
48.6677 6.906 0.268
48.6882 7.708 0.283
48.7086 7.719 0.284
48.7291 8.125 0.291
48.7496 7.677 0.283
48.7700 7.594 0.281
48.7905 7.427 0.278
48.8110 7.427 0.278
48.8314 7.490 0.279
48.8519 6.969 0.269
48.8723 6.542 0.261
48.8928 6.719 0.265
48.9133 7.396 0.278
48.9337 6.688 0.264
48.9542 6.354 0.257
48.9747 6.802 0.266
48.9951 6.490 0.260
49.0156 6.646 0.263
49.0360 6.406 0.258
49.0565 6.510 0.260
49.0770 6.740 0.265
49.0974 7.156 0.273
49.1179 7.083 0.272
49.1384 7.052 0.271
49.1588 6.833 0.267
49.1793 6.469 0.260
49.1998 7.021 0.270
49.2202 6.802 0.266
49.2407 6.438 0.259
49.2611 7.083 0.272
49.2816 7.333 0.276
49.3021 6.844 0.267
49.3225 7.083 0.272
49.3430 7.260 0.275
49.3635 7.281 0.275
49.3839 7.125 0.272
49.4044 7.656 0.282
49.4248 6.969 0.269
49.4453 7.271 0.275
49.4658 7.250 0.275
49.4862 7.125 0.272
49.5067 7.219 0.274
49.5272 6.875 0.268
49.5476 7.354 0.277
49.5681 7.208 0.274
49.5885 7.073 0.271
49.6090 7.531 0.280
49.6295 7.688 0.283
49.6499 7.156 0.273
49.6704 6.990 0.270
49.6909 7.979 0.288
49.7113 8.510 0.298
49.7318 7.521 0.280
49.7522 8.271 0.294
49.7727 8.781 0.302
49.7932 9.271 0.311
49.8136 9.396 0.313
49.8341 9.833 0.320
49.8546 9.833 0.320
49.8750 11.292 0.343
49.8955 11.396 0.345
49.9159 12.146 0.356
49.9364 14.521 0.389
49.9569 14.833 0.393
49.9773 15.010 0.395
49.9978 13.844 0.380
50.0183 13.958 0.381
50.0387 12.896 0.367
50.0592 12.083 0.355
50.0797 12.302 0.358
50.1001 12.323 0.358
50.1206 12.052 0.354
50.1410 11.146 0.341
50.1615 10.688 0.334
50.1820 10.792 0.335
50.2024 9.979 0.322
50.2229 10.573 0.332
50.2434 10.083 0.324
50.2638 9.698 0.318
50.2843 8.667 0.300
50.3047 9.219 0.310
50.3252 8.927 0.305
50.3457 8.448 0.297
50.3661 8.813 0.303
50.3866 7.625 0.282
50.4071 8.188 0.292
50.4275 7.083 0.272
50.4480 7.052 0.271
50.4684 6.271 0.256
50.4889 6.760 0.265
50.5094 6.917 0.268
50.5298 6.448 0.259
50.5503 6.479 0.260
50.5708 6.094 0.252
50.5912 6.406 0.258
50.6117 6.531 0.261
50.6321 6.375 0.258
50.6526 6.552 0.261
50.6731 6.417 0.259
50.6935 6.208 0.254
50.7140 6.031 0.251
50.7345 6.521 0.261
50.7549 6.333 0.257
50.7754 6.510 0.260
50.7959 6.240 0.255
50.8163 6.208 0.254
50.8368 6.000 0.250
50.8572 6.333 0.257
50.8777 6.177 0.254
50.8982 6.385 0.258
50.9186 6.396 0.258
50.9391 6.479 0.260
50.9596 6.198 0.254
50.9800 6.375 0.258
51.0005 6.375 0.258
51.0209 6.115 0.252
51.0414 6.344 0.257
51.0619 6.458 0.259
51.0823 6.240 0.255
51.1028 6.563 0.261
51.1233 6.781 0.266
51.1437 6.583 0.262
51.1642 6.927 0.269
51.1846 6.708 0.264
51.2051 7.667 0.283
51.2256 7.313 0.276
51.2460 7.458 0.279
51.2665 7.146 0.273
51.2870 7.302 0.276
51.3074 7.802 0.285
51.3279 7.427 0.278
51.3483 7.729 0.284
51.3688 7.229 0.274
51.3893 7.135 0.273
51.4097 6.917 0.268
51.4302 6.958 0.269
51.4507 7.271 0.275
51.4711 6.708 0.264
51.4916 6.385 0.258
51.5120 6.448 0.259
51.5325 6.375 0.258
51.5530 6.135 0.253
51.5734 6.031 0.251
51.5939 5.729 0.244
51.6144 6.458 0.259
51.6348 6.219 0.255
51.6553 6.479 0.260
51.6758 6.958 0.269
51.6962 6.229 0.255
51.7167 6.479 0.260
51.7371 7.083 0.272
51.7576 6.448 0.259
51.7781 7.229 0.274
51.7985 7.344 0.277
51.8190 7.396 0.278
51.8395 7.625 0.282
51.8599 7.552 0.280
51.8804 7.500 0.280
51.9008 6.854 0.267
51.9213 6.802 0.266
51.9418 6.938 0.269
51.9622 6.635 0.263
51.9827 7.438 0.278
52.0032 6.490 0.260
52.0236 6.990 0.270
52.0441 6.646 0.263
52.0645 6.115 0.252
52.0850 6.073 0.252
52.1055 5.844 0.247
52.1259 6.438 0.259
52.1464 6.448 0.259
52.1669 6.000 0.250
52.1873 6.094 0.252
52.2078 6.250 0.255
52.2282 6.094 0.252
52.2487 5.396 0.237
52.2692 5.313 0.235
52.2896 5.375 0.237
52.3101 5.594 0.241
52.3306 6.292 0.256
52.3510 6.042 0.251
52.3715 5.698 0.244
52.3919 5.490 0.239
52.4124 6.604 0.262
52.4329 5.854 0.247
52.4533 6.000 0.250
52.4738 6.135 0.253
52.4943 5.656 0.243
52.5147 5.896 0.248
52.5352 6.208 0.254
52.5557 5.948 0.249
52.5761 6.052 0.251
52.5966 5.948 0.249
52.6170 5.854 0.247
52.6375 5.615 0.242
52.6580 5.208 0.233
52.6784 5.531 0.240
52.6989 5.906 0.248
52.7194 5.573 0.241
52.7398 5.177 0.232
52.7603 5.229 0.233
52.7807 5.313 0.235
52.8012 5.167 0.232
52.8217 5.250 0.234
52.8421 5.313 0.235
52.8626 5.500 0.239
52.8831 5.406 0.237
52.9035 5.896 0.248
52.9240 5.927 0.248
52.9444 5.469 0.239
52.9649 5.427 0.238
52.9854 5.646 0.243
53.0058 5.208 0.233
53.0263 5.573 0.241
53.0468 5.844 0.247
53.0672 5.563 0.241
53.0877 5.865 0.247
53.1081 5.750 0.245
53.1286 5.646 0.243
53.1491 5.906 0.248
53.1695 5.688 0.243
53.1900 5.375 0.237
53.2105 5.510 0.240
53.2309 5.156 0.232
53.2514 5.271 0.234
53.2718 5.531 0.240
53.2923 5.875 0.247
53.3128 5.115 0.231
53.3332 5.552 0.240
53.3537 5.865 0.247
53.3742 5.719 0.244
53.3946 5.354 0.236
53.4151 4.927 0.227
53.4356 4.938 0.227
53.4560 5.198 0.233
53.4765 5.010 0.228
53.4969 5.052 0.229
53.5174 5.156 0.232
53.5379 5.521 0.240
53.5583 4.823 0.224
53.5788 4.448 0.215
53.5993 4.677 0.221
53.6197 5.552 0.240
53.6402 5.177 0.232
53.6606 5.333 0.236
53.6811 4.698 0.221
53.7016 4.948 0.227
53.7220 5.167 0.232
53.7425 5.646 0.243
53.7630 5.021 0.229
53.7834 4.969 0.228
53.8039 5.604 0.242
53.8243 5.198 0.233
53.8448 5.458 0.238
53.8653 5.427 0.238
53.8857 4.948 0.227
53.9062 5.208 0.233
53.9267 4.792 0.223
53.9471 5.594 0.241
53.9676 5.000 0.228
53.9880 5.198 0.233
54.0085 5.531 0.240
54.0290 5.094 0.230
54.0494 4.948 0.227
54.0699 5.219 0.233
54.0904 5.563 0.241
54.1108 5.313 0.235
54.1313 5.625 0.242
54.1517 5.469 0.239
54.1722 5.469 0.239
54.1927 6.188 0.254
54.2131 5.625 0.242
54.2336 5.677 0.243
54.2541 5.229 0.233
54.2745 5.406 0.237
54.2950 5.427 0.238
54.3155 5.313 0.235
54.3359 5.229 0.233
54.3564 5.000 0.228
54.3768 5.250 0.234
54.3973 5.083 0.230
54.4178 5.031 0.229
54.4382 5.240 0.234
54.4587 5.094 0.230
54.4792 5.219 0.233
54.4996 4.979 0.228
54.5201 5.146 0.232
54.5405 5.375 0.237
54.5610 5.052 0.229
54.5815 5.104 0.231
54.6019 5.865 0.247
54.6224 5.490 0.239
54.6429 5.771 0.245
54.6633 5.229 0.233
54.6838 5.146 0.232
54.7042 5.052 0.229
54.7247 5.323 0.235
54.7452 5.344 0.236
54.7656 5.260 0.234
54.7861 5.375 0.237
54.8066 4.938 0.227
54.8270 5.167 0.232
54.8475 5.375 0.237
54.8679 5.760 0.245
54.8884 5.021 0.229
54.9089 5.760 0.245
54.9293 5.521 0.240
54.9498 5.521 0.240
54.9703 5.646 0.243
54.9907 5.823 0.246
55.0112 6.281 0.256
55.0317 6.146 0.253
55.0521 7.385 0.277
55.0726 7.354 0.277
55.0930 7.948 0.288
55.1135 8.813 0.303
55.1340 10.719 0.334
55.1544 12.396 0.359
55.1749 13.885 0.380
55.1954 14.719 0.392
55.2158 14.656 0.391
55.2363 13.031 0.368
55.2567 12.260 0.357
55.2772 11.490 0.346
55.2977 11.979 0.353
55.3181 11.688 0.349
55.3386 11.917 0.352
55.3591 11.490 0.346
55.3795 10.531 0.331
55.4000 9.188 0.309
55.4204 8.573 0.299
55.4409 7.760 0.284
55.4614 7.469 0.279
55.4818 6.917 0.268
55.5023 6.594 0.262
55.5228 6.896 0.268
55.5432 6.333 0.257
55.5637 6.427 0.259
55.5841 6.938 0.269
55.6046 6.281 0.256
55.6251 6.302 0.256
55.6455 6.000 0.250
55.6660 6.313 0.256
55.6865 5.729 0.244
55.7069 5.958 0.249
55.7274 6.021 0.250
55.7478 5.885 0.248
55.7683 6.094 0.252
55.7888 6.021 0.250
55.8092 6.094 0.252
55.8297 6.094 0.252
55.8502 5.896 0.248
55.8706 6.135 0.253
55.8911 6.375 0.258
55.9116 6.531 0.261
55.9320 6.719 0.265
55.9525 7.052 0.271
55.9729 7.156 0.273
55.9934 7.167 0.273
56.0139 7.229 0.274
56.0343 7.000 0.270
56.0548 7.042 0.271
56.0753 6.833 0.267
56.0957 7.125 0.272
56.1162 7.708 0.283
56.1366 7.781 0.285
56.1571 7.938 0.288
56.1776 9.188 0.309
56.1980 9.229 0.310
56.2185 9.302 0.311
56.2390 9.938 0.322
56.2594 8.688 0.301
56.2799 8.240 0.293
56.3003 8.417 0.296
56.3208 7.792 0.285
56.3413 7.990 0.288
56.3617 7.771 0.285
56.3822 8.000 0.289
56.4027 7.667 0.283
56.4231 7.229 0.274
56.4436 6.500 0.260
56.4640 6.146 0.253
56.4845 5.521 0.240
56.5050 5.000 0.228
56.5254 5.385 0.237
56.5459 5.500 0.239
56.5664 5.594 0.241
56.5868 5.021 0.229
56.6073 4.875 0.225
56.6277 5.083 0.230
56.6482 5.031 0.229
56.6687 5.104 0.231
56.6891 5.177 0.232
56.7096 5.104 0.231
56.7301 5.479 0.239
56.7505 5.094 0.230
56.7710 5.156 0.232
56.7915 5.052 0.229
56.8119 5.208 0.233
56.8324 5.333 0.236
56.8528 5.448 0.238
56.8733 5.667 0.243
56.8938 5.333 0.236
56.9142 5.208 0.233
56.9347 5.250 0.234
56.9552 5.177 0.232
56.9756 4.823 0.224
56.9961 4.823 0.224
57.0165 5.000 0.228
57.0370 4.760 0.223
57.0575 4.500 0.217
57.0779 4.948 0.227
57.0984 4.948 0.227
57.1189 4.677 0.221
57.1393 4.531 0.217
57.1598 4.969 0.228
57.1802 4.667 0.220
57.2007 4.927 0.227
57.2212 4.781 0.223
57.2416 4.938 0.227
57.2621 4.896 0.226
57.2826 4.542 0.218
57.3030 4.813 0.224
57.3235 4.656 0.220
57.3439 4.677 0.221
57.3644 4.563 0.218
57.3849 5.188 0.232
57.4053 4.594 0.219
57.4258 4.844 0.225
57.4463 5.021 0.229
57.4667 4.854 0.225
57.4872 4.979 0.228
57.5076 5.073 0.230
57.5281 4.760 0.223
57.5486 4.792 0.223
57.5690 4.938 0.227
57.5895 4.979 0.228
57.6100 5.198 0.233
57.6304 5.115 0.231
57.6509 5.333 0.236
57.6714 5.135 0.231
57.6918 4.906 0.226
57.7123 4.885 0.226
57.7327 5.302 0.235
57.7532 5.594 0.241
57.7737 5.042 0.229
57.7941 5.240 0.234
57.8146 5.333 0.236
57.8351 4.750 0.222
57.8555 5.552 0.240
57.8760 5.854 0.247
57.8964 5.396 0.237
57.9169 5.094 0.230
57.9374 5.740 0.245
57.9578 5.865 0.247
57.9783 6.302 0.256
57.9988 6.094 0.252
58.0192 6.365 0.257
58.0397 7.094 0.272
58.0601 7.500 0.280
58.0806 7.979 0.288
58.1011 8.010 0.289
58.1215 7.500 0.280
58.1420 7.885 0.287
58.1625 7.521 0.280
58.1829 8.115 0.291
58.2034 7.823 0.285
58.2238 7.677 0.283
58.2443 7.438 0.278
58.2648 7.000 0.270
58.2852 7.260 0.275
58.3057 6.698 0.264
58.3262 6.948 0.269
58.3466 6.073 0.252
58.3671 5.750 0.245
58.3875 5.813 0.246
58.4080 6.083 0.252
58.4285 5.313 0.235
58.4489 5.323 0.235
58.4694 5.542 0.240
58.4899 5.542 0.240
58.5103 5.250 0.234
58.5308 5.698 0.244
58.5513 5.500 0.239
58.5717 5.292 0.235
58.5922 5.208 0.233
58.6126 5.542 0.240
58.6331 5.781 0.245
58.6536 5.542 0.240
58.6740 4.563 0.218
58.6945 4.781 0.223
58.7150 5.156 0.232
58.7354 5.125 0.231
58.7559 5.302 0.235
58.7763 4.875 0.225
58.7968 4.823 0.224
58.8173 4.969 0.228
58.8377 5.250 0.234
58.8582 4.677 0.221
58.8787 4.719 0.222
58.8991 5.000 0.228
58.9196 4.927 0.227
58.9400 4.917 0.226
58.9605 4.844 0.225
58.9810 4.802 0.224
59.0014 4.875 0.225
59.0219 4.906 0.226
59.0424 4.604 0.219
59.0628 5.219 0.233
59.0833 5.563 0.241
59.1037 5.479 0.239
59.1242 5.313 0.235
59.1447 4.896 0.226
59.1651 5.844 0.247
59.1856 5.510 0.240
59.2061 6.135 0.253
59.2265 6.333 0.257
59.2470 6.031 0.251
59.2675 6.646 0.263
59.2879 6.885 0.268
59.3084 6.000 0.250
59.3288 5.938 0.249
59.3493 5.427 0.238
59.3698 5.698 0.244
59.3902 5.969 0.249
59.4107 6.208 0.254
59.4312 5.938 0.249
59.4516 5.385 0.237
59.4721 5.375 0.237
59.4925 5.073 0.230
59.5130 4.552 0.218
59.5335 4.844 0.225
59.5539 4.490 0.216
59.5744 4.729 0.222
59.5949 4.635 0.220
59.6153 4.229 0.210
59.6358 4.448 0.215
59.6562 4.417 0.214
59.6767 4.677 0.221
59.6972 4.698 0.221
59.7176 4.563 0.218
59.7381 4.552 0.218
59.7586 4.177 0.209
59.7790 4.656 0.220
59.7995 4.438 0.215
59.8199 4.573 0.218
59.8404 4.990 0.228
59.8609 4.865 0.225
59.8813 5.250 0.234
59.9018 5.063 0.230
59.9223 5.583 0.241
59.9427 6.083 0.252
59.9632 5.896 0.248
59.9836 6.490 0.260
60.0041 6.729 0.265
60.0246 6.323 0.257
60.0450 6.292 0.256
60.0655 6.083 0.252
60.0860 5.667 0.243
60.1064 5.552 0.240
60.1269 6.083 0.252
60.1474 5.719 0.244
60.1678 5.885 0.248
60.1883 5.531 0.240
60.2087 5.260 0.234
60.2292 5.240 0.234
60.2497 5.042 0.229
60.2701 5.083 0.230
60.2906 5.042 0.229
60.3111 4.281 0.211
60.3315 4.583 0.219
60.3520 4.229 0.210
60.3724 4.552 0.218
60.3929 4.271 0.211
60.4134 4.417 0.214
60.4338 4.354 0.213
60.4543 4.188 0.209
60.4748 4.375 0.213
60.4952 4.740 0.222
60.5157 3.990 0.204
60.5361 4.656 0.220
60.5566 4.313 0.212
60.5771 3.885 0.201
60.5975 3.917 0.202
60.6180 3.906 0.202
60.6385 3.948 0.203
60.6589 4.646 0.220
60.6794 4.031 0.205
60.6998 4.240 0.210
60.7203 3.906 0.202
60.7408 4.208 0.209
60.7612 3.781 0.198
60.7817 3.917 0.202
60.8022 4.188 0.209
60.8226 4.146 0.208
60.8431 3.844 0.200
60.8635 4.000 0.204
60.8840 4.135 0.208
60.9045 4.406 0.214
60.9249 4.417 0.214
60.9454 4.240 0.210
60.9659 4.688 0.221
60.9863 3.958 0.203
61.0068 4.042 0.205
61.0273 4.240 0.210
61.0477 4.198 0.209
61.0682 4.823 0.224
61.0886 4.375 0.213
61.1091 4.302 0.212
61.1296 4.313 0.212
61.1500 4.063 0.206
61.1705 3.823 0.200
61.1910 3.969 0.203
61.2114 4.708 0.221
61.2319 3.802 0.199
61.2523 3.958 0.203
61.2728 4.156 0.208
61.2933 4.438 0.215
61.3137 4.156 0.208
61.3342 4.490 0.216
61.3547 4.542 0.218
61.3751 4.479 0.216
61.3956 4.135 0.208
61.4160 4.135 0.208
61.4365 4.427 0.215
61.4570 4.542 0.218
61.4774 4.104 0.207
61.4979 4.417 0.214
61.5184 4.198 0.209
61.5388 4.604 0.219
61.5593 4.104 0.207
61.5797 4.031 0.205
61.6002 4.396 0.214
61.6207 4.083 0.206
61.6411 4.104 0.207
61.6616 4.375 0.213
61.6821 4.063 0.206
61.7025 4.156 0.208
61.7230 4.052 0.205
61.7434 4.042 0.205
61.7639 4.125 0.207
61.7844 3.833 0.200
61.8048 3.990 0.204
61.8253 3.813 0.199
61.8458 4.281 0.211
61.8662 4.208 0.209
61.8867 4.135 0.208
61.9072 3.885 0.201
61.9276 3.990 0.204
61.9481 3.948 0.203
61.9685 4.354 0.213
61.9890 3.927 0.202
62.0095 4.240 0.210
62.0299 4.625 0.219
62.0504 3.833 0.200
62.0709 3.938 0.203
62.0913 4.500 0.217
62.1118 4.333 0.212
62.1322 4.219 0.210
62.1527 4.240 0.210
62.1732 4.500 0.217
62.1936 4.521 0.217
62.2141 4.448 0.215
62.2346 5.156 0.232
62.2550 4.823 0.224
62.2755 4.917 0.226
62.2959 4.896 0.226
62.3164 4.573 0.218
62.3369 4.573 0.218
62.3573 4.323 0.212
62.3778 4.646 0.220
62.3983 4.250 0.210
62.4187 4.469 0.216
62.4392 4.302 0.212
62.4596 4.479 0.216
62.4801 4.417 0.214
62.5006 4.469 0.216
62.5210 4.156 0.208
62.5415 4.521 0.217
62.5620 3.781 0.198
62.5824 3.979 0.204
62.6029 3.781 0.198
62.6233 3.760 0.198
62.6438 3.948 0.203
62.6643 3.792 0.199
62.6847 4.146 0.208
62.7052 3.729 0.197
62.7257 3.792 0.199
62.7461 4.031 0.205
62.7666 4.219 0.210
62.7871 4.104 0.207
62.8075 3.927 0.202
62.8280 3.656 0.195
62.8484 4.531 0.217
62.8689 3.563 0.193
62.8894 3.844 0.200
62.9098 3.698 0.196
62.9303 3.833 0.200
62.9508 3.823 0.200
62.9712 3.927 0.202
62.9917 4.500 0.217
63.0121 4.031 0.205
63.0326 3.927 0.202
63.0531 3.771 0.198
63.0735 4.396 0.214
63.0940 4.063 0.206
63.1145 4.052 0.205
63.1349 4.000 0.204
63.1554 4.438 0.215
63.1758 3.604 0.194
63.1963 3.760 0.198
63.2168 4.021 0.205
63.2372 3.906 0.202
63.2577 4.219 0.210
63.2782 3.802 0.199
63.2986 4.073 0.206
63.3191 4.073 0.206
63.3395 3.990 0.204
63.3600 4.208 0.209
63.3805 4.365 0.213
63.4009 4.188 0.209
63.4214 4.188 0.209
63.4419 3.906 0.202
63.4623 4.354 0.213
63.4828 4.417 0.214
63.5033 4.031 0.205
63.5237 4.635 0.220
63.5442 4.219 0.210
63.5646 4.469 0.216
63.5851 4.417 0.214
63.6056 4.646 0.220
63.6260 4.656 0.220
63.6465 4.646 0.220
63.6670 4.740 0.222
63.6874 5.208 0.233
63.7079 4.865 0.225
63.7283 5.021 0.229
63.7488 4.667 0.220
63.7693 5.344 0.236
63.7897 5.271 0.234
63.8102 4.875 0.225
63.8307 4.708 0.221
63.8511 5.083 0.230
63.8716 5.177 0.232
63.8920 5.198 0.233
63.9125 5.063 0.230
63.9330 4.885 0.226
63.9534 4.938 0.227
63.9739 5.135 0.231
63.9944 5.083 0.230
64.0148 5.031 0.229
64.0353 4.750 0.222
64.0557 4.792 0.223
64.0762 5.458 0.238
64.0967 5.094 0.230
64.1171 4.990 0.228
64.1376 5.167 0.232
64.1581 4.563 0.218
64.1785 5.438 0.238
64.1990 4.771 0.223
64.2194 5.094 0.230
64.2399 5.365 0.236
64.2604 4.552 0.218
64.2808 4.833 0.224
64.3013 4.406 0.214
64.3218 5.198 0.233
64.3422 5.500 0.239
64.3627 5.000 0.228
64.3832 4.885 0.226
64.4036 5.229 0.233
64.4241 5.167 0.232
64.4445 5.052 0.229
64.4650 4.656 0.220
64.4855 4.938 0.227
64.5059 5.208 0.233
64.5264 5.000 0.228
64.5469 5.063 0.230
64.5673 5.333 0.236
64.5878 5.427 0.238
64.6082 6.073 0.252
64.6287 6.292 0.256
64.6492 6.427 0.259
64.6696 7.208 0.274
64.6901 7.448 0.279
64.7106 6.885 0.268
64.7310 6.448 0.259
64.7515 6.167 0.253
64.7719 6.281 0.256
64.7924 5.458 0.238
64.8129 5.719 0.244
64.8333 6.052 0.251
64.8538 6.240 0.255
64.8743 5.854 0.247
64.8947 5.792 0.246
64.9152 5.646 0.243
64.9356 4.740 0.222
64.9561 4.979 0.228
64.9766 4.719 0.222
64.9970 4.979 0.228
65.0175 4.990 0.228
65.0380 4.510 0.217
65.0584 4.510 0.217
65.0789 4.510 0.217
65.0993 5.177 0.232
65.1198 4.521 0.217
65.1403 4.302 0.212
65.1607 4.427 0.215
65.1812 4.281 0.211
65.2017 4.583 0.219
65.2221 4.573 0.218
65.2426 4.427 0.215
65.2631 4.021 0.205
65.2835 4.281 0.211
65.3040 4.063 0.206
65.3244 4.208 0.209
65.3449 4.281 0.211
65.3654 4.219 0.210
65.3858 3.885 0.201
65.4063 4.083 0.206
65.4268 4.281 0.211
65.4472 4.146 0.208
65.4677 4.604 0.219
65.4881 4.490 0.216
65.5086 4.677 0.221
65.5291 4.750 0.222
65.5495 4.771 0.223
65.5700 4.979 0.228
65.5905 5.323 0.235
65.6109 5.198 0.233
65.6314 5.115 0.231
65.6518 5.031 0.229
65.6723 4.729 0.222
65.6928 4.771 0.223
65.7132 4.875 0.225
65.7337 4.531 0.217
65.7542 4.385 0.214
65.7746 4.802 0.224
65.7951 4.802 0.224
65.8155 4.260 0.211
65.8360 4.531 0.217
65.8565 4.448 0.215
65.8769 4.094 0.207
65.8974 4.250 0.210
65.9179 4.281 0.211
65.9383 4.167 0.208
65.9588 4.458 0.216
65.9792 4.021 0.205
65.9997 4.146 0.208
66.0202 4.135 0.208
66.0406 3.896 0.201
66.0611 4.010 0.204
66.0816 4.167 0.208
66.1020 4.177 0.209
66.1225 3.729 0.197
66.1430 4.385 0.214
66.1634 3.990 0.204
66.1839 4.604 0.219
66.2043 4.208 0.209
66.2248 4.385 0.214
66.2453 4.167 0.208
66.2657 4.177 0.209
66.2862 4.198 0.209
66.3067 3.979 0.204
66.3271 3.875 0.201
66.3476 3.875 0.201
66.3680 3.979 0.204
66.3885 3.719 0.197
66.4090 3.708 0.197
66.4294 3.719 0.197
66.4499 4.417 0.214
66.4704 3.896 0.201
66.4908 4.104 0.207
66.5113 3.927 0.202
66.5317 4.208 0.209
66.5522 3.708 0.197
66.5727 3.760 0.198
66.5931 3.979 0.204
66.6136 4.240 0.210
66.6341 3.896 0.201
66.6545 4.083 0.206
66.6750 4.469 0.216
66.6954 3.635 0.195
66.7159 3.844 0.200
66.7364 3.708 0.197
66.7568 3.781 0.198
66.7773 4.198 0.209
66.7978 3.813 0.199
66.8182 3.958 0.203
66.8387 3.938 0.203
66.8591 3.927 0.202
66.8796 4.010 0.204
66.9001 4.271 0.211
66.9205 3.969 0.203
66.9410 4.146 0.208
66.9615 3.854 0.200
66.9819 4.385 0.214
67.0024 3.990 0.204
67.0229 4.208 0.209
67.0433 4.167 0.208
67.0638 4.156 0.208
67.0842 4.719 0.222
67.1047 4.146 0.208
67.1252 4.354 0.213
67.1456 4.323 0.212
67.1661 4.604 0.219
67.1866 4.906 0.226
67.2070 5.021 0.229
67.2275 5.354 0.236
67.2479 5.156 0.232
67.2684 5.781 0.245
67.2889 6.229 0.255
67.3093 6.375 0.258
67.3298 6.469 0.260
67.3503 6.375 0.258
67.3707 6.583 0.262
67.3912 6.292 0.256
67.4116 6.406 0.258
67.4321 6.375 0.258
67.4526 6.302 0.256
67.4730 6.542 0.261
67.4935 6.198 0.254
67.5140 5.990 0.250
67.5344 6.875 0.268
67.5549 5.958 0.249
67.5753 6.208 0.254
67.5958 5.281 0.235
67.6163 5.406 0.237
67.6367 5.188 0.232
67.6572 5.229 0.233
67.6777 5.198 0.233
67.6981 5.073 0.230
67.7186 4.771 0.223
67.7391 4.813 0.224
67.7595 4.875 0.225
67.7800 4.719 0.222
67.8004 4.448 0.215
67.8209 4.729 0.222
67.8414 4.542 0.218
67.8618 4.240 0.210
67.8823 4.281 0.211
67.9028 4.563 0.218
67.9232 4.031 0.205
67.9437 4.271 0.211
67.9641 4.073 0.206
67.9846 4.344 0.213
68.0051 4.135 0.208
68.0255 4.083 0.206
68.0460 4.208 0.209
68.0665 4.229 0.210
68.0869 3.938 0.203
68.1074 4.073 0.206
68.1278 4.521 0.217
68.1483 3.750 0.198
68.1688 4.490 0.216
68.1892 3.906 0.202
68.2097 4.208 0.209
68.2302 4.229 0.210
68.2506 4.208 0.209
68.2711 4.375 0.213
68.2915 4.010 0.204
68.3120 4.385 0.214
68.3325 4.510 0.217
68.3529 4.208 0.209
68.3734 4.792 0.223
68.3939 5.260 0.234
68.4143 5.115 0.231
68.4348 5.219 0.233
68.4552 4.719 0.222
68.4757 4.615 0.219
68.4962 4.177 0.209
68.5166 5.000 0.228
68.5371 4.260 0.211
68.5576 4.500 0.217
68.5780 4.427 0.215
68.5985 4.156 0.208
68.6190 4.406 0.214
68.6394 3.885 0.201
68.6599 3.990 0.204
68.6803 4.010 0.204
68.7008 3.948 0.203
68.7213 3.708 0.197
68.7417 3.708 0.197
68.7622 3.542 0.192
68.7827 3.854 0.200
68.8031 3.906 0.202
68.8236 3.990 0.204
68.8440 4.052 0.205
68.8645 4.010 0.204
68.8850 3.844 0.200
68.9054 3.469 0.190
68.9259 3.906 0.202
68.9464 3.958 0.203
68.9668 3.823 0.200
68.9873 3.625 0.194
69.0077 3.896 0.201
69.0282 3.698 0.196
69.0487 4.208 0.209
69.0691 3.740 0.197
69.0896 4.042 0.205
69.1101 4.073 0.206
69.1305 4.167 0.208
69.1510 4.240 0.210
69.1714 4.115 0.207
69.1919 4.063 0.206
69.2124 4.771 0.223
69.2328 4.729 0.222
69.2533 4.625 0.219
69.2738 5.000 0.228
69.2942 5.073 0.230
69.3147 4.865 0.225
69.3351 5.135 0.231
69.3556 4.969 0.228
69.3761 5.146 0.232
69.3965 5.000 0.228
69.4170 5.167 0.232
69.4375 4.708 0.221
69.4579 4.146 0.208
69.4784 4.292 0.211
69.4989 4.813 0.224
69.5193 4.802 0.224
69.5398 4.573 0.218
69.5602 4.271 0.211
69.5807 3.646 0.195
69.6012 3.927 0.202
69.6216 4.031 0.205
69.6421 3.740 0.197
69.6626 3.760 0.198
69.6830 3.583 0.193
69.7035 3.677 0.196
69.7239 3.792 0.199
69.7444 3.781 0.198
69.7649 3.500 0.191
69.7853 3.823 0.200
69.8058 3.302 0.185
69.8263 3.469 0.190
69.8467 3.240 0.184
69.8672 3.354 0.187
69.8876 3.167 0.182
69.9081 3.406 0.188
69.9286 3.292 0.185
69.9490 3.177 0.182
69.9695 3.500 0.191
69.9900 3.125 0.180
70.0104 3.500 0.191
70.0309 3.625 0.194
70.0513 3.281 0.185
70.0718 3.458 0.190
70.0923 3.604 0.194
70.1127 3.438 0.189
70.1332 3.479 0.190
70.1537 3.448 0.190
70.1741 3.531 0.192
70.1946 3.375 0.188
70.2150 3.990 0.204
70.2355 3.583 0.193
70.2560 3.875 0.201
70.2764 3.385 0.188
70.2969 3.531 0.192
70.3174 3.323 0.186
70.3378 3.219 0.183
70.3583 3.281 0.185
70.3788 3.583 0.193
70.3992 3.260 0.184
70.4197 3.542 0.192
70.4401 3.688 0.196
70.4606 3.448 0.190
70.4811 3.583 0.193
70.5015 3.115 0.180
70.5220 3.469 0.190
70.5425 3.438 0.189
70.5629 3.219 0.183
70.5834 3.063 0.179
70.6038 3.156 0.181
70.6243 3.552 0.192
70.6448 3.146 0.181
70.6652 3.250 0.184
70.6857 3.333 0.186
70.7062 3.542 0.192
70.7266 3.531 0.192
70.7471 3.458 0.190
70.7675 3.458 0.190
70.7880 3.188 0.182
70.8085 3.396 0.188
70.8289 3.052 0.178
70.8494 3.188 0.182
70.8699 3.208 0.183
70.8903 3.031 0.178
70.9108 3.594 0.193
70.9312 3.271 0.185
70.9517 3.344 0.187
70.9722 3.167 0.182
70.9926 3.146 0.181
71.0131 3.750 0.198
71.0336 3.052 0.178
71.0540 3.135 0.181
71.0745 3.000 0.177
71.0949 3.031 0.178
71.1154 3.188 0.182
71.1359 3.250 0.184
71.1563 3.042 0.178
71.1768 3.302 0.185
71.1973 3.448 0.190
71.2177 3.010 0.177
71.2382 3.208 0.183
71.2587 3.177 0.182
71.2791 3.229 0.183
71.2996 3.323 0.186
71.3200 3.344 0.187
71.3405 3.240 0.184
71.3610 3.031 0.178
71.3814 3.302 0.185
71.4019 3.323 0.186
71.4224 3.240 0.184
71.4428 3.750 0.198
71.4633 3.302 0.185
71.4837 3.615 0.194
71.5042 3.188 0.182
71.5247 3.417 0.189
71.5451 3.240 0.184
71.5656 3.063 0.179
71.5861 3.052 0.178
71.6065 3.156 0.181
71.6270 3.250 0.184
71.6474 2.958 0.176
71.6679 3.188 0.182
71.6884 2.896 0.174
71.7088 3.010 0.177
71.7293 3.167 0.182
71.7498 3.115 0.180
71.7702 3.344 0.187
71.7907 3.010 0.177
71.8111 3.219 0.183
71.8316 2.823 0.171
71.8521 3.052 0.178
71.8725 3.281 0.185
71.8930 2.906 0.174
71.9135 3.073 0.179
71.9339 3.000 0.177
71.9544 3.135 0.181
71.9749 2.708 0.168
71.9953 2.823 0.171
72.0158 2.875 0.173
72.0362 3.010 0.177
72.0567 2.979 0.176
72.0772 2.823 0.171
72.0976 3.188 0.182
72.1181 3.042 0.178
72.1386 2.896 0.174
72.1590 3.135 0.181
72.1795 2.844 0.172
72.1999 2.906 0.174
72.2204 3.073 0.179
72.2409 3.115 0.180
72.2613 2.906 0.174
72.2818 2.802 0.171
72.3023 3.010 0.177
72.3227 2.854 0.172
72.3432 3.063 0.179
72.3636 3.250 0.184
72.3841 3.073 0.179
72.4046 2.823 0.171
72.4250 3.135 0.181
72.4455 3.198 0.183
72.4660 2.854 0.172
72.4864 3.094 0.180
72.5069 3.292 0.185
72.5273 3.052 0.178
72.5478 3.500 0.191
72.5683 2.885 0.173
72.5887 2.740 0.169
72.6092 3.021 0.177
72.6297 2.969 0.176
72.6501 3.031 0.178
72.6706 2.865 0.173
72.6910 3.104 0.180
72.7115 2.896 0.174
72.7320 3.375 0.188
72.7524 3.250 0.184
72.7729 3.615 0.194
72.7934 2.750 0.169
72.8138 3.115 0.180
72.8343 3.125 0.180
72.8548 3.281 0.185
72.8752 2.729 0.169
72.8957 3.000 0.177
72.9161 3.052 0.178
72.9366 3.198 0.183
72.9571 3.240 0.184
72.9775 2.771 0.170
72.9980 3.219 0.183
73.0185 2.906 0.174
73.0389 3.219 0.183
73.0594 3.010 0.177
73.0798 3.323 0.186
73.1003 2.969 0.176
73.1208 2.990 0.176
73.1412 2.615 0.165
73.1617 3.323 0.186
73.1822 2.917 0.174
73.2026 2.594 0.164
73.2231 2.875 0.173
73.2435 2.781 0.170
73.2640 2.635 0.166
73.2845 2.990 0.176
73.3049 2.927 0.175
73.3254 3.229 0.183
73.3459 3.094 0.180
73.3663 2.823 0.171
73.3868 2.813 0.171
73.4072 2.948 0.175
73.4277 3.115 0.180
73.4482 2.833 0.172
73.4686 2.656 0.166
73.4891 2.802 0.171
73.5096 2.958 0.176
73.5300 2.698 0.168
73.5505 2.813 0.171
73.5709 3.010 0.177
73.5914 2.760 0.170
73.6119 2.656 0.166
73.6323 2.875 0.173
73.6528 2.729 0.169
73.6733 2.906 0.174
73.6937 2.635 0.166
73.7142 2.990 0.176
73.7347 3.063 0.179
73.7551 2.948 0.175
73.7756 2.635 0.166
73.7960 2.885 0.173
73.8165 2.615 0.165
73.8370 3.073 0.179
73.8574 2.917 0.174
73.8779 2.813 0.171
73.8984 3.115 0.180
73.9188 3.063 0.179
73.9393 2.948 0.175
73.9597 3.146 0.181
73.9802 3.135 0.181
74.0007 2.719 0.168
74.0211 2.844 0.172
74.0416 2.969 0.176
74.0621 2.885 0.173
74.0825 3.375 0.188
74.1030 2.969 0.176
74.1234 3.021 0.177
74.1439 2.854 0.172
74.1644 3.000 0.177
74.1848 2.750 0.169
74.2053 2.896 0.174
74.2258 2.969 0.176
74.2462 2.677 0.167
74.2667 2.865 0.173
74.2871 2.854 0.172
74.3076 3.104 0.180
74.3281 2.917 0.174
74.3485 2.500 0.161
74.3690 2.927 0.175
74.3895 2.865 0.173
74.4099 2.958 0.176
74.4304 3.010 0.177
74.4508 3.042 0.178
74.4713 2.740 0.169
74.4918 2.604 0.165
74.5122 2.688 0.167
74.5327 2.708 0.168
74.5532 2.906 0.174
74.5736 2.615 0.165
74.5941 2.708 0.168
74.6146 2.979 0.176
74.6350 2.698 0.168
74.6555 2.375 0.157
74.6759 2.594 0.164
74.6964 2.896 0.174
74.7169 2.594 0.164
74.7373 2.490 0.161
74.7578 2.729 0.169
74.7783 2.583 0.164
74.7987 2.771 0.170
74.8192 2.885 0.173
74.8396 2.698 0.168
74.8601 2.771 0.170
74.8806 2.490 0.161
74.9010 2.500 0.161
74.9215 2.917 0.174
74.9420 2.677 0.167
74.9624 2.771 0.170
74.9829 2.510 0.162
75.0033 2.490 0.161
75.0238 2.833 0.172
75.0443 2.708 0.168
75.0647 2.927 0.175
75.0852 2.604 0.165
75.1057 2.708 0.168
75.1261 2.490 0.161
75.1466 2.719 0.168
75.1670 2.833 0.172
75.1875 2.708 0.168
75.2080 2.740 0.169
75.2284 2.563 0.163
75.2489 2.781 0.170
75.2694 3.094 0.180
75.2898 2.844 0.172
75.3103 2.667 0.167
75.3307 2.885 0.173
75.3512 2.500 0.161
75.3717 2.771 0.170
75.3921 2.750 0.169
75.4126 2.823 0.171
75.4331 2.875 0.173
75.4535 2.698 0.168
75.4740 2.979 0.176
75.4945 2.833 0.172
75.5149 2.781 0.170
75.5354 2.802 0.171
75.5558 2.781 0.170
75.5763 3.167 0.182
75.5968 2.760 0.170
75.6172 2.635 0.166
75.6377 2.531 0.162
75.6582 2.698 0.168
75.6786 2.979 0.176
75.6991 2.813 0.171
75.7195 2.792 0.171
75.7400 2.760 0.170
75.7605 2.958 0.176
75.7809 2.719 0.168
75.8014 3.208 0.183
75.8219 2.896 0.174
75.8423 3.063 0.179
75.8628 2.979 0.176
75.8832 3.292 0.185
75.9037 3.260 0.184
75.9242 3.198 0.183
75.9446 3.146 0.181
75.9651 3.406 0.188
75.9856 3.458 0.190
76.0060 3.510 0.191
76.0265 3.698 0.196
76.0469 3.740 0.197
76.0674 3.750 0.198
76.0879 3.885 0.201
76.1083 3.729 0.197
76.1288 3.615 0.194
76.1493 3.906 0.202
76.1697 3.823 0.200
76.1902 3.448 0.190
76.2106 3.271 0.185
76.2311 3.740 0.197
76.2516 3.458 0.190
76.2720 3.708 0.197
76.2925 3.354 0.187
76.3130 3.354 0.187
76.3334 3.479 0.190
76.3539 3.438 0.189
76.3744 3.229 0.183
76.3948 3.250 0.184
76.4153 3.313 0.186
76.4357 3.313 0.186
76.4562 2.885 0.173
76.4767 2.958 0.176
76.4971 2.688 0.167
76.5176 2.917 0.174
76.5381 3.292 0.185
76.5585 3.042 0.178
76.5790 2.854 0.172
76.5994 2.896 0.174
76.6199 3.021 0.177
76.6404 2.604 0.165
76.6608 2.823 0.171
76.6813 2.490 0.161
76.7018 2.802 0.171
76.7222 3.010 0.177
76.7427 2.938 0.175
76.7631 2.781 0.170
76.7836 2.854 0.172
76.8041 2.906 0.174
76.8245 3.104 0.180
76.8450 2.948 0.175
76.8655 3.000 0.177
76.8859 2.781 0.170
76.9064 2.833 0.172
76.9268 2.604 0.165
76.9473 2.698 0.168
76.9678 3.052 0.178
76.9882 2.802 0.171
77.0087 2.708 0.168
77.0292 2.823 0.171
77.0496 2.646 0.166
77.0701 2.531 0.162
77.0906 3.094 0.180
77.1110 3.000 0.177
77.1315 2.729 0.169
77.1519 2.823 0.171
77.1724 2.823 0.171
77.1929 2.635 0.166
77.2133 3.135 0.181
77.2338 2.708 0.168
77.2543 3.115 0.180
77.2747 3.104 0.180
77.2952 2.844 0.172
77.3156 2.865 0.173
77.3361 2.823 0.171
77.3566 3.000 0.177
77.3770 3.000 0.177
77.3975 3.115 0.180
77.4180 2.917 0.174
77.4384 2.688 0.167
77.4589 2.677 0.167
77.4793 3.031 0.178
77.4998 2.979 0.176
77.5203 2.948 0.175
77.5407 2.844 0.172
77.5612 3.000 0.177
77.5817 3.490 0.191
77.6021 3.167 0.182
77.6226 3.156 0.181
77.6430 3.271 0.185
77.6635 3.219 0.183
77.6840 3.281 0.185
77.7044 2.990 0.176
77.7249 3.208 0.183
77.7454 3.021 0.177
77.7658 3.375 0.188
77.7863 3.292 0.185
77.8067 3.198 0.183
77.8272 3.396 0.188
77.8477 3.667 0.195
77.8681 3.458 0.190
77.8886 3.615 0.194
77.9091 3.583 0.193
77.9295 3.417 0.189
77.9500 3.583 0.193
77.9705 3.531 0.192
77.9909 3.240 0.184
78.0114 3.010 0.177
78.0318 3.188 0.182
78.0523 3.292 0.185
78.0728 3.240 0.184
78.0932 2.958 0.176
78.1137 3.073 0.179
78.1342 3.229 0.183
78.1546 3.000 0.177
78.1751 2.969 0.176
78.1955 3.323 0.186
78.2160 3.427 0.189
78.2365 3.229 0.183
78.2569 3.135 0.181
78.2774 3.177 0.182
78.2979 3.115 0.180
78.3183 2.885 0.173
78.3388 2.844 0.172
78.3592 2.865 0.173
78.3797 2.938 0.175
78.4002 2.948 0.175
78.4206 3.156 0.181
78.4411 3.208 0.183
78.4616 3.479 0.190
78.4820 3.146 0.181
78.5025 3.458 0.190
78.5229 2.906 0.174
78.5434 3.125 0.180
78.5639 2.969 0.176
78.5843 3.167 0.182
78.6048 3.365 0.187
78.6253 3.406 0.188
78.6457 3.188 0.182
78.6662 3.313 0.186
78.6866 3.156 0.181
78.7071 3.344 0.187
78.7276 3.229 0.183
78.7480 3.448 0.190
78.7685 3.094 0.180
78.7890 3.271 0.185
78.8094 2.917 0.174
78.8299 3.052 0.178
78.8504 3.219 0.183
78.8708 3.063 0.179
78.8913 3.365 0.187
78.9117 3.250 0.184
78.9322 3.052 0.178
78.9527 3.115 0.180
78.9731 3.115 0.180
78.9936 3.219 0.183
79.0141 3.115 0.180
79.0345 2.979 0.176
79.0550 2.875 0.173
79.0754 2.958 0.176
79.0959 3.125 0.180
79.1164 3.073 0.179
79.1368 3.250 0.184
79.1573 3.260 0.184
79.1778 3.302 0.185
79.1982 2.979 0.176
79.2187 3.063 0.179
79.2391 3.552 0.192
79.2596 2.781 0.170
79.2801 2.969 0.176
79.3005 3.208 0.183
79.3210 3.031 0.178
79.3415 2.854 0.172
79.3619 2.948 0.175
79.3824 3.281 0.185
79.4028 2.833 0.172
79.4233 3.052 0.178
79.4438 3.375 0.188
79.4642 3.188 0.182
79.4847 3.552 0.192
79.5052 3.323 0.186
79.5256 3.000 0.177
79.5461 3.260 0.184
79.5665 2.958 0.176
79.5870 3.094 0.180
79.6075 3.094 0.180
79.6279 3.458 0.190
79.6484 3.271 0.185
79.6689 3.250 0.184
79.6893 3.479 0.190
79.7098 3.104 0.180
79.7303 3.260 0.184
79.7507 3.240 0.184
79.7712 3.240 0.184
79.7916 3.250 0.184
79.8121 3.375 0.188
79.8326 2.896 0.174
79.8530 3.146 0.181
79.8735 3.104 0.180
79.8940 2.979 0.176
79.9144 3.094 0.180
79.9349 3.354 0.187
79.9553 3.156 0.181
79.9758 3.083 0.179
79.9963 3.073 0.179
