'Id: "" Comment: "" Operator: "Lab Manager" Anode: "Cu" Scantype: "Locked Coupled" TimePerStep: "96" X: "0" Y: "0" Z: "0" 
5.0001 25.667 0.517
5.0206 24.490 0.505
5.0410 25.719 0.518
5.0615 25.750 0.518
5.0820 24.656 0.507
5.1024 24.802 0.508
5.1229 26.031 0.521
5.1433 25.708 0.517
5.1638 24.521 0.505
5.1843 25.771 0.518
5.2047 25.656 0.517
5.2252 24.885 0.509
5.2457 24.844 0.509
5.2661 25.208 0.512
5.2866 24.490 0.505
5.3070 24.813 0.508
5.3275 25.177 0.512
5.3480 24.958 0.510
5.3684 24.042 0.500
5.3889 24.490 0.505
5.4094 23.844 0.498
5.4298 23.792 0.498
5.4503 23.802 0.498
5.4707 24.177 0.502
5.4912 24.125 0.501
5.5117 23.656 0.496
5.5321 24.042 0.500
5.5526 23.667 0.497
5.5731 23.375 0.493
5.5935 23.885 0.499
5.6140 23.417 0.494
5.6344 23.354 0.493
5.6549 23.354 0.493
5.6754 24.469 0.505
5.6958 23.375 0.493
5.7163 24.135 0.501
5.7368 23.240 0.492
5.7572 22.698 0.486
5.7777 22.552 0.485
5.7981 23.406 0.494
5.8186 22.281 0.482
5.8391 23.000 0.489
5.8595 23.438 0.494
5.8800 23.042 0.490
5.9005 22.938 0.489
5.9209 22.583 0.485
5.9414 23.281 0.492
5.9619 21.865 0.477
5.9823 23.167 0.491
6.0028 21.677 0.475
6.0232 22.313 0.482
6.0437 22.688 0.486
6.0642 22.656 0.486
6.0846 21.771 0.476
6.1051 21.375 0.472
6.1256 22.219 0.481
6.1460 21.708 0.476
6.1665 22.354 0.483
6.1869 22.302 0.482
6.2074 20.323 0.460
6.2279 22.010 0.479
6.2483 21.906 0.478
6.2688 22.458 0.484
6.2893 22.000 0.479
6.3097 21.219 0.470
6.3302 21.563 0.474
6.3506 22.625 0.485
6.3711 22.094 0.480
6.3916 21.396 0.472
6.4120 21.885 0.477
6.4325 22.688 0.486
6.4530 22.417 0.483
6.4734 22.188 0.481
6.4939 22.281 0.482
6.5143 22.083 0.480
6.5348 21.865 0.477
6.5553 21.865 0.477
6.5757 22.927 0.489
6.5962 23.771 0.498
6.6167 22.698 0.486
6.6371 23.135 0.491
6.6576 23.438 0.494
6.6780 22.958 0.489
6.6985 23.604 0.496
6.7190 22.917 0.489
6.7394 22.844 0.488
6.7599 22.719 0.486
6.7804 21.375 0.472
6.8008 22.406 0.483
6.8213 21.938 0.478
6.8418 20.969 0.467
6.8622 21.813 0.477
6.8827 22.042 0.479
6.9031 21.583 0.474
6.9236 22.458 0.484
6.9441 21.354 0.472
6.9645 22.219 0.481
6.9850 22.667 0.486
7.0055 20.833 0.466
7.0259 20.396 0.461
7.0464 21.615 0.475
7.0668 22.031 0.479
7.0873 21.427 0.472
7.1078 21.302 0.471
7.1282 21.958 0.478
7.1487 21.708 0.476
7.1692 22.052 0.479
7.1896 21.021 0.468
7.2101 20.979 0.467
7.2305 22.125 0.480
7.2510 21.375 0.472
7.2715 22.052 0.479
7.2919 21.458 0.473
7.3124 21.438 0.473
7.3329 20.802 0.465
7.3533 21.063 0.468
7.3738 20.365 0.461
7.3942 21.969 0.478
7.4147 20.958 0.467
7.4352 20.813 0.466
7.4556 21.302 0.471
7.4761 21.094 0.469
7.4966 21.260 0.471
7.5170 20.792 0.465
7.5375 21.448 0.473
7.5580 21.990 0.479
7.5784 21.740 0.476
7.5989 21.760 0.476
7.6193 21.521 0.473
7.6398 21.698 0.475
7.6603 22.000 0.479
7.6807 21.135 0.469
7.7012 21.448 0.473
7.7217 21.969 0.478
7.7421 21.073 0.469
7.7626 21.292 0.471
7.7830 21.667 0.475
7.8035 21.406 0.472
7.8240 21.198 0.470
7.8444 21.240 0.470
7.8649 21.563 0.474
7.8854 21.896 0.478
7.9058 22.333 0.482
7.9263 20.729 0.465
7.9467 21.729 0.476
7.9672 20.802 0.465
7.9877 21.302 0.471
8.0081 21.208 0.470
8.0286 21.344 0.472
8.0491 21.531 0.474
8.0695 20.948 0.467
8.0900 21.698 0.475
8.1104 22.208 0.481
8.1309 21.177 0.470
8.1514 21.000 0.468
8.1718 20.406 0.461
8.1923 20.469 0.462
8.2128 21.010 0.468
8.2332 21.146 0.469
8.2537 22.000 0.479
8.2741 21.510 0.473
8.2946 20.667 0.464
8.3151 21.177 0.470
8.3355 22.073 0.480
8.3560 21.771 0.476
8.3765 21.240 0.470
8.3969 20.656 0.464
8.4174 19.948 0.456
8.4379 21.385 0.472
8.4583 21.063 0.468
8.4788 21.563 0.474
8.4992 20.917 0.467
8.5197 21.583 0.474
8.5402 21.146 0.469
8.5606 21.323 0.471
8.5811 21.698 0.475
8.6016 22.656 0.486
8.6220 21.521 0.473
8.6425 21.531 0.474
8.6629 22.583 0.485
8.6834 21.563 0.474
8.7039 21.771 0.476
8.7243 22.396 0.483
8.7448 23.906 0.499
8.7653 23.125 0.491
8.7857 23.885 0.499
8.8062 24.219 0.502
8.8266 23.323 0.493
8.8471 25.688 0.517
8.8676 23.802 0.498
8.8880 24.635 0.507
8.9085 25.063 0.511
8.9290 26.844 0.529
8.9494 26.771 0.528
8.9699 26.938 0.530
8.9903 28.708 0.547
9.0108 30.115 0.560
9.0313 33.969 0.595
9.0517 37.552 0.625
9.0722 42.448 0.665
9.0927 44.396 0.680
9.1131 41.104 0.654
9.1336 32.750 0.584
9.1540 26.635 0.527
9.1745 24.708 0.507
9.1950 23.260 0.492
9.2154 22.938 0.489
9.2359 22.938 0.489
9.2564 22.656 0.486
9.2768 21.906 0.478
9.2973 22.771 0.487
9.3178 22.688 0.486
9.3382 22.948 0.489
9.3587 22.927 0.489
9.3791 22.302 0.482
9.3996 22.635 0.486
9.4201 23.854 0.498
9.4405 24.146 0.502
9.4610 24.177 0.502
9.4815 23.885 0.499
9.5019 25.875 0.519
9.5224 26.396 0.524
9.5428 28.083 0.541
9.5633 30.000 0.559
9.5838 33.000 0.586
9.6042 34.198 0.597
9.6247 37.281 0.623
9.6452 39.583 0.642
9.6656 44.948 0.684
9.6861 47.719 0.705
9.7065 53.500 0.747
9.7270 60.510 0.794
9.7475 69.094 0.848
9.7679 83.135 0.931
9.7884 103.167 1.037
9.8089 134.146 1.182
9.8293 179.469 1.367
9.8498 245.813 1.600
9.8702 341.885 1.887
9.8907 464.406 2.199
9.9112 570.500 2.438
9.9316 559.083 2.413
9.9521 453.688 2.174
9.9726 326.115 1.843
9.9930 236.740 1.570
10.0135 187.021 1.396
10.0339 150.635 1.253
10.0544 130.698 1.167
10.0749 116.042 1.099
10.0953 103.813 1.040
10.1158 92.688 0.983
10.1363 83.917 0.935
10.1567 79.052 0.907
10.1772 71.656 0.864
10.1977 67.438 0.838
10.2181 62.333 0.806
10.2386 58.594 0.781
10.2590 56.375 0.766
10.2795 53.083 0.744
10.3000 50.240 0.723
10.3204 48.771 0.713
10.3409 46.792 0.698
10.3614 45.760 0.690
10.3818 44.469 0.681
10.4023 42.313 0.664
10.4227 40.073 0.646
10.4432 40.115 0.646
10.4637 40.104 0.646
10.4841 38.604 0.634
10.5046 38.063 0.630
10.5251 36.865 0.620
10.5455 36.573 0.617
10.5660 36.042 0.613
10.5864 35.875 0.611
10.6069 34.156 0.596
10.6274 34.313 0.598
10.6478 34.188 0.597
10.6683 34.146 0.596
10.6888 34.208 0.597
10.7092 33.531 0.591
10.7297 32.958 0.586
10.7501 33.490 0.591
10.7706 31.302 0.571
10.7911 31.594 0.574
10.8115 30.604 0.565
10.8320 28.177 0.542
10.8525 28.813 0.548
10.8729 27.958 0.540
10.8934 26.417 0.525
10.9138 25.750 0.518
10.9343 24.354 0.504
10.9548 24.417 0.504
10.9752 23.646 0.496
10.9957 23.625 0.496
11.0162 22.760 0.487
11.0366 21.885 0.477
11.0571 22.979 0.489
11.0776 21.542 0.474
11.0980 21.219 0.470
11.1185 21.073 0.469
11.1389 20.938 0.467
11.1594 20.729 0.465
11.1799 20.896 0.467
11.2003 19.990 0.456
11.2208 19.469 0.450
11.2413 20.125 0.458
11.2617 19.604 0.452
11.2822 19.604 0.452
11.3026 18.677 0.441
11.3231 19.365 0.449
11.3436 18.365 0.437
11.3640 18.740 0.442
11.3845 19.104 0.446
11.4050 19.323 0.449
11.4254 18.677 0.441
11.4459 17.521 0.427
11.4663 17.594 0.428
11.4868 17.625 0.428
11.5073 17.792 0.430
11.5277 17.823 0.431
11.5482 16.833 0.419
11.5687 17.521 0.427
11.5891 16.750 0.418
11.6096 17.646 0.429
11.6300 16.688 0.417
11.6505 16.885 0.419
11.6710 16.563 0.415
11.6914 17.344 0.425
11.7119 17.292 0.424
11.7324 16.979 0.421
11.7528 16.219 0.411
11.7733 16.740 0.418
11.7938 16.635 0.416
11.8142 16.823 0.419
11.8347 16.500 0.415
11.8551 15.427 0.401
11.8756 16.823 0.419
11.8961 16.240 0.411
11.9165 15.885 0.407
11.9370 16.760 0.418
11.9575 15.667 0.404
11.9779 16.146 0.410
11.9984 15.542 0.402
12.0188 15.917 0.407
12.0393 15.625 0.403
12.0598 15.771 0.405
12.0802 15.240 0.398
12.1007 14.427 0.388
12.1212 15.792 0.406
12.1416 14.813 0.393
12.1621 14.740 0.392
12.1825 15.000 0.395
12.2030 14.854 0.393
12.2235 15.052 0.396
12.2439 14.781 0.392
12.2644 14.406 0.387
12.2849 14.698 0.391
12.3053 14.594 0.390
12.3258 14.688 0.391
12.3462 14.156 0.384
12.3667 14.760 0.392
12.3872 14.646 0.391
12.4076 15.000 0.395
12.4281 14.146 0.384
12.4486 14.115 0.383
12.4690 13.844 0.380
12.4895 14.302 0.386
12.5099 13.979 0.382
12.5304 14.073 0.383
12.5509 14.594 0.390
12.5713 14.406 0.387
12.5918 14.146 0.384
12.6123 13.719 0.378
12.6327 13.865 0.380
12.6532 14.500 0.389
12.6737 14.135 0.384
12.6941 13.542 0.376
12.7146 13.094 0.369
12.7350 14.063 0.383
12.7555 13.177 0.370
12.7760 13.719 0.378
12.7964 13.563 0.376
12.8169 13.375 0.373
12.8374 13.771 0.379
12.8578 13.938 0.381
12.8783 13.698 0.378
12.8987 13.604 0.376
12.9192 13.896 0.380
12.9397 12.948 0.367
12.9601 13.688 0.378
12.9806 12.896 0.367
13.0011 12.406 0.359
13.0215 12.906 0.367
13.0420 11.969 0.353
13.0624 13.594 0.376
13.0829 13.354 0.373
13.1034 12.104 0.355
13.1238 13.094 0.369
13.1443 12.979 0.368
13.1648 12.750 0.364
13.1852 12.948 0.367
13.2057 12.865 0.366
13.2261 12.594 0.362
13.2466 12.458 0.360
13.2671 12.698 0.364
13.2875 13.292 0.372
13.3080 11.573 0.347
13.3285 12.521 0.361
13.3489 12.229 0.357
13.3694 12.854 0.366
13.3898 12.688 0.364
13.4103 13.031 0.368
13.4308 12.625 0.363
13.4512 12.969 0.368
13.4717 12.938 0.367
13.4922 12.177 0.356
13.5126 11.917 0.352
13.5331 12.177 0.356
13.5536 11.771 0.350
13.5740 12.188 0.356
13.5945 12.521 0.361
13.6149 11.760 0.350
13.6354 11.927 0.352
13.6559 12.156 0.356
13.6763 11.906 0.352
13.6968 11.583 0.347
13.7173 11.469 0.346
13.7377 12.010 0.354
13.7582 11.479 0.346
13.7786 11.406 0.345
13.7991 11.396 0.345
13.8196 11.948 0.353
13.8400 11.156 0.341
13.8605 11.302 0.343
13.8810 11.521 0.346
13.9014 11.281 0.343
13.9219 10.771 0.335
13.9423 11.094 0.340
13.9628 10.833 0.336
13.9833 11.396 0.345
14.0037 10.792 0.335
14.0242 11.458 0.345
14.0447 10.719 0.334
14.0651 10.875 0.337
14.0856 11.438 0.345
14.1060 11.927 0.352
14.1265 11.208 0.342
14.1470 12.073 0.355
14.1674 10.656 0.333
14.1879 10.802 0.335
14.2084 11.458 0.345
14.2288 10.833 0.336
14.2493 11.052 0.339
14.2697 11.333 0.344
14.2902 11.542 0.347
14.3107 11.229 0.342
14.3311 10.677 0.333
14.3516 11.208 0.342
14.3721 11.083 0.340
14.3925 11.031 0.339
14.4130 11.542 0.347
14.4335 10.875 0.337
14.4539 10.635 0.333
14.4744 10.365 0.329
14.4948 10.552 0.332
14.5153 10.760 0.335
14.5358 10.563 0.332
14.5562 10.885 0.337
14.5767 11.479 0.346
14.5972 10.354 0.328
14.6176 10.885 0.337
14.6381 11.219 0.342
14.6585 10.854 0.336
14.6790 10.771 0.335
14.6995 10.875 0.337
14.7199 10.458 0.330
14.7404 10.042 0.323
14.7609 10.958 0.338
14.7813 10.615 0.333
14.8018 10.500 0.331
14.8222 10.500 0.331
14.8427 11.052 0.339
14.8632 10.385 0.329
14.8836 10.417 0.329
14.9041 10.885 0.337
14.9246 10.677 0.333
14.9450 10.833 0.336
14.9655 10.542 0.331
14.9859 10.094 0.324
15.0064 10.594 0.332
15.0269 10.813 0.336
15.0473 11.229 0.342
15.0678 10.760 0.335
15.0883 10.385 0.329
15.1087 10.198 0.326
15.1292 10.021 0.323
15.1496 10.292 0.327
15.1701 10.521 0.331
15.1906 10.510 0.331
15.2110 10.115 0.325
15.2315 10.333 0.328
15.2520 10.646 0.333
15.2724 10.354 0.328
15.2929 10.417 0.329
15.3134 10.698 0.334
15.3338 10.781 0.335
15.3543 10.396 0.329
15.3747 10.490 0.331
15.3952 10.875 0.337
15.4157 11.000 0.339
15.4361 10.156 0.325
15.4566 10.958 0.338
15.4771 10.438 0.330
15.4975 10.521 0.331
15.5180 10.438 0.330
15.5384 10.781 0.335
15.5589 10.385 0.329
15.5794 10.635 0.333
15.5998 10.385 0.329
15.6203 10.208 0.326
15.6408 10.427 0.330
15.6612 11.875 0.352
15.6817 12.031 0.354
15.7021 12.833 0.366
15.7226 15.396 0.400
15.7431 17.677 0.429
15.7635 18.771 0.442
15.7840 20.323 0.460
15.8045 18.604 0.440
15.8249 15.760 0.405
15.8454 13.406 0.374
15.8658 12.531 0.361
15.8863 11.448 0.345
15.9068 10.708 0.334
15.9272 11.115 0.340
15.9477 10.125 0.325
15.9682 10.448 0.330
15.9886 10.406 0.329
16.0091 10.115 0.325
16.0296 10.156 0.325
16.0500 10.354 0.328
16.0705 9.729 0.318
16.0909 9.896 0.321
16.1114 10.542 0.331
16.1319 9.729 0.318
16.1523 9.802 0.320
16.1728 10.490 0.331
16.1933 9.813 0.320
16.2137 11.292 0.343
16.2342 10.365 0.329
16.2546 10.000 0.323
16.2751 10.469 0.330
16.2956 10.115 0.325
16.3160 10.521 0.331
16.3365 10.740 0.334
16.3570 10.510 0.331
16.3774 10.167 0.325
16.3979 10.708 0.334
16.4183 10.229 0.326
16.4388 10.302 0.328
16.4593 10.323 0.328
16.4797 9.500 0.315
16.5002 10.500 0.331
16.5207 10.479 0.330
16.5411 10.240 0.327
16.5616 10.125 0.325
16.5820 10.219 0.326
16.6025 10.708 0.334
16.6230 10.490 0.331
16.6434 10.490 0.331
16.6639 10.698 0.334
16.6844 10.313 0.328
16.7048 10.552 0.332
16.7253 9.906 0.321
16.7457 10.479 0.330
16.7662 10.448 0.330
16.7867 10.500 0.331
16.8071 10.823 0.336
16.8276 10.323 0.328
16.8481 10.906 0.337
16.8685 10.813 0.336
16.8890 10.719 0.334
16.9095 10.385 0.329
16.9299 10.771 0.335
16.9504 10.583 0.332
16.9708 11.073 0.340
16.9913 10.813 0.336
17.0118 10.771 0.335
17.0322 11.052 0.339
17.0527 11.417 0.345
17.0732 11.125 0.340
17.0936 10.698 0.334
17.1141 11.708 0.349
17.1345 10.625 0.333
17.1550 11.521 0.346
17.1755 11.573 0.347
17.1959 11.792 0.350
17.2164 11.740 0.350
17.2369 11.396 0.345
17.2573 11.719 0.349
17.2778 11.948 0.353
17.2982 12.458 0.360
17.3187 11.896 0.352
17.3392 12.521 0.361
17.3596 12.188 0.356
17.3801 12.354 0.359
17.4006 12.865 0.366
17.4210 12.729 0.364
17.4415 12.677 0.363
17.4619 12.656 0.363
17.4824 13.625 0.377
17.5029 12.531 0.361
17.5233 12.813 0.365
17.5438 13.781 0.379
17.5643 13.771 0.379
17.5847 13.292 0.372
17.6052 13.583 0.376
17.6256 14.021 0.382
17.6461 14.156 0.384
17.6666 14.813 0.393
17.6870 14.698 0.391
17.7075 15.760 0.405
17.7280 15.094 0.397
17.7484 16.500 0.415
17.7689 16.854 0.419
17.7894 17.906 0.432
17.8098 19.052 0.445
17.8303 19.250 0.448
17.8507 19.052 0.445
17.8712 19.063 0.446
17.8917 18.375 0.438
17.9121 18.302 0.437
17.9326 17.479 0.427
17.9531 17.823 0.431
17.9735 18.500 0.439
17.9940 17.948 0.432
18.0144 19.323 0.449
18.0349 21.333 0.471
18.0554 21.792 0.476
18.0758 22.000 0.479
18.0963 22.583 0.485
18.1168 20.708 0.464
18.1372 20.427 0.461
18.1577 19.729 0.453
18.1781 20.063 0.457
18.1986 20.240 0.459
18.2191 19.823 0.454
18.2395 20.896 0.467
18.2600 19.719 0.453
18.2805 20.865 0.466
18.3009 19.625 0.452
18.3214 19.646 0.452
18.3418 19.875 0.455
18.3623 20.208 0.459
18.3828 20.292 0.460
18.4032 20.938 0.467
18.4237 19.875 0.455
18.4442 20.427 0.461
18.4646 19.219 0.447
18.4851 20.042 0.457
18.5055 19.771 0.454
18.5260 20.552 0.463
18.5465 20.302 0.460
18.5669 19.510 0.451
18.5874 19.313 0.449
18.6079 20.198 0.459
18.6283 19.521 0.451
18.6488 19.281 0.448
18.6693 19.396 0.449
18.6897 19.594 0.452
18.7102 18.865 0.443
18.7306 18.833 0.443
18.7511 19.323 0.449
18.7716 19.010 0.445
18.7920 18.781 0.442
18.8125 19.063 0.446
18.8330 18.969 0.445
18.8534 20.063 0.457
18.8739 20.833 0.466
18.8943 20.406 0.461
18.9148 20.010 0.457
18.9353 19.625 0.452
18.9557 18.010 0.433
18.9762 18.156 0.435
18.9967 15.427 0.401
19.0171 15.073 0.396
19.0376 15.490 0.402
19.0580 15.021 0.396
19.0785 14.458 0.388
19.0990 14.958 0.395
19.1194 15.240 0.398
19.1399 14.646 0.391
19.1604 13.854 0.380
19.1808 14.573 0.390
19.2013 14.344 0.387
19.2217 14.875 0.394
19.2422 14.427 0.388
19.2627 14.313 0.386
19.2831 14.750 0.392
19.3036 15.177 0.398
19.3241 14.094 0.383
19.3445 14.490 0.389
19.3650 14.719 0.392
19.3854 13.906 0.381
19.4059 14.844 0.393
19.4264 14.594 0.390
19.4468 14.885 0.394
19.4673 15.052 0.396
19.4878 15.333 0.400
19.5082 14.604 0.390
19.5287 14.938 0.394
19.5492 15.625 0.403
19.5696 16.396 0.413
19.5901 17.188 0.423
19.6105 17.219 0.424
19.6310 17.792 0.430
19.6515 19.115 0.446
19.6719 19.729 0.453
19.6924 20.583 0.463
19.7129 22.271 0.482
19.7333 24.177 0.502
19.7538 27.208 0.532
19.7742 31.844 0.576
19.7947 38.573 0.634
19.8152 48.156 0.708
19.8356 63.281 0.812
19.8561 86.781 0.951
19.8766 111.563 1.078
19.8970 130.521 1.166
19.9175 124.844 1.140
19.9379 111.323 1.077
19.9584 97.635 1.008
19.9789 77.698 0.900
19.9993 62.938 0.810
20.0198 53.594 0.747
20.0403 46.615 0.697
20.0607 41.615 0.658
20.0812 38.313 0.632
20.1016 35.010 0.604
20.1221 34.104 0.596
20.1426 32.094 0.578
20.1630 32.208 0.579
20.1835 31.333 0.571
20.2040 30.125 0.560
20.2244 29.240 0.552
20.2449 28.271 0.543
20.2654 30.104 0.560
20.2858 29.958 0.559
20.3063 30.698 0.565
20.3267 28.969 0.549
20.3472 29.604 0.555
20.3677 28.146 0.541
20.3881 28.635 0.546
20.4086 28.365 0.544
20.4291 27.740 0.538
20.4495 27.479 0.535
20.4700 26.469 0.525
20.4904 26.792 0.528
20.5109 26.104 0.521
20.5314 24.781 0.508
20.5518 22.927 0.489
20.5723 22.323 0.482
20.5928 22.479 0.484
20.6132 21.260 0.471
20.6337 21.177 0.470
20.6541 20.063 0.457
20.6746 19.813 0.454
20.6951 18.271 0.436
20.7155 19.406 0.450
20.7360 17.635 0.429
20.7565 17.500 0.427
20.7769 17.344 0.425
20.7974 16.667 0.417
20.8178 16.146 0.410
20.8383 16.313 0.412
20.8588 15.448 0.401
20.8792 15.104 0.397
20.8997 14.635 0.390
20.9202 14.583 0.390
20.9406 14.458 0.388
20.9611 14.771 0.392
20.9815 14.135 0.384
21.0020 13.865 0.380
21.0225 13.667 0.377
21.0429 13.427 0.374
21.0634 13.260 0.372
21.0839 13.083 0.369
21.1043 13.542 0.376
21.1248 12.969 0.368
21.1453 12.708 0.364
21.1657 12.427 0.360
21.1862 12.958 0.367
21.2066 12.979 0.368
21.2271 12.219 0.357
21.2476 12.594 0.362
21.2680 12.677 0.363
21.2885 12.542 0.361
21.3090 12.510 0.361
21.3294 12.344 0.359
21.3499 11.969 0.353
21.3703 12.417 0.360
21.3908 12.740 0.364
21.4113 12.313 0.358
21.4317 11.781 0.350
21.4522 12.167 0.356
21.4727 12.125 0.355
21.4931 13.323 0.373
21.5136 12.208 0.357
21.5340 12.708 0.364
21.5545 13.156 0.370
21.5750 12.188 0.356
21.5954 13.604 0.376
21.6159 12.958 0.367
21.6364 12.563 0.362
21.6568 12.938 0.367
21.6773 12.896 0.367
21.6977 13.510 0.375
21.7182 12.958 0.367
21.7387 12.490 0.361
21.7591 12.583 0.362
21.7796 12.750 0.364
21.8001 12.510 0.361
21.8205 12.906 0.367
21.8410 13.042 0.369
21.8614 12.948 0.367
21.8819 12.229 0.357
21.9024 13.667 0.377
21.9228 12.510 0.361
21.9433 13.260 0.372
21.9638 13.521 0.375
21.9842 14.781 0.392
22.0047 14.177 0.384
22.0252 14.615 0.390
22.0456 16.510 0.415
22.0661 16.990 0.421
22.0865 18.729 0.442
22.1070 21.490 0.473
22.1275 25.344 0.514
22.1479 30.635 0.565
22.1684 39.615 0.642
22.1889 49.167 0.716
22.2093 53.021 0.743
22.2298 51.438 0.732
22.2502 44.104 0.678
22.2707 38.292 0.632
22.2912 31.542 0.573
22.3116 25.073 0.511
22.3321 21.083 0.469
22.3526 19.021 0.445
22.3730 16.594 0.416
22.3935 16.104 0.410
22.4139 14.760 0.392
22.4344 14.083 0.383
22.4549 12.688 0.364
22.4753 13.052 0.369
22.4958 12.219 0.357
22.5163 12.708 0.364
22.5367 11.781 0.350
22.5572 10.823 0.336
22.5776 11.323 0.343
22.5981 11.729 0.350
22.6186 11.219 0.342
22.6390 11.333 0.344
22.6595 11.052 0.339
22.6800 10.250 0.327
22.7004 10.594 0.332
22.7209 9.708 0.318
22.7413 9.927 0.322
22.7618 9.906 0.321
22.7823 10.313 0.328
22.8027 10.135 0.325
22.8232 11.052 0.339
22.8437 11.052 0.339
22.8641 11.885 0.352
22.8846 12.792 0.365
22.9051 15.021 0.396
22.9255 15.448 0.401
22.9460 14.500 0.389
22.9664 13.615 0.377
22.9869 12.604 0.362
23.0074 11.281 0.343
23.0278 10.969 0.338
23.0483 10.073 0.324
23.0688 9.490 0.314
23.0892 9.708 0.318
23.1097 9.292 0.311
23.1301 9.229 0.310
23.1506 9.125 0.308
23.1711 9.542 0.315
23.1915 9.083 0.308
23.2120 9.563 0.316
23.2325 8.958 0.305
23.2529 9.094 0.308
23.2734 8.167 0.292
23.2938 8.667 0.300
23.3143 8.542 0.298
23.3348 9.135 0.308
23.3552 8.646 0.300
23.3757 8.625 0.300
23.3962 9.073 0.307
23.4166 8.594 0.299
23.4371 8.854 0.304
23.4575 8.688 0.301
23.4780 8.365 0.295
23.4985 8.990 0.306
23.5189 8.458 0.297
23.5394 8.667 0.300
23.5599 8.896 0.304
23.5803 8.979 0.306
23.6008 9.052 0.307
23.6212 9.031 0.307
23.6417 8.719 0.301
23.6622 9.052 0.307
23.6826 9.458 0.314
23.7031 9.510 0.315
23.7236 9.531 0.315
23.7440 8.833 0.303
23.7645 8.625 0.300
23.7850 9.094 0.308
23.8054 8.938 0.305
23.8259 8.240 0.293
23.8463 7.906 0.287
23.8668 8.823 0.303
23.8873 8.885 0.304
23.9077 8.510 0.298
23.9282 8.865 0.304
23.9487 8.594 0.299
23.9691 7.854 0.286
23.9896 8.271 0.294
24.0100 8.010 0.289
24.0305 8.677 0.301
24.0510 7.938 0.288
24.0714 8.240 0.293
24.0919 8.969 0.306
24.1124 8.115 0.291
24.1328 7.990 0.288
24.1533 8.490 0.297
24.1737 8.698 0.301
24.1942 9.198 0.310
24.2147 9.448 0.314
24.2351 9.198 0.310
24.2556 9.542 0.315
24.2761 9.531 0.315
24.2965 10.042 0.323
24.3170 10.792 0.335
24.3374 11.667 0.349
24.3579 12.594 0.362
24.3784 11.969 0.353
24.3988 11.490 0.346
24.4193 11.000 0.339
24.4398 11.198 0.342
24.4602 10.208 0.326
24.4807 9.750 0.319
24.5012 9.167 0.309
24.5216 8.167 0.292
24.5421 8.333 0.295
24.5625 8.615 0.300
24.5830 8.760 0.302
24.6035 8.573 0.299
24.6239 8.052 0.290
24.6444 8.802 0.303
24.6649 9.063 0.307
24.6853 8.906 0.305
24.7058 9.531 0.315
24.7262 9.094 0.308
24.7467 8.313 0.294
24.7672 9.510 0.315
24.7876 8.292 0.294
24.8081 8.677 0.301
24.8286 7.958 0.288
24.8490 8.427 0.296
24.8695 7.729 0.284
24.8899 8.208 0.292
24.9104 7.802 0.285
24.9309 7.844 0.286
24.9513 8.125 0.291
24.9718 8.260 0.293
24.9923 7.573 0.281
25.0127 8.427 0.296
25.0332 7.875 0.286
25.0536 7.906 0.287
25.0741 7.500 0.280
25.0946 7.396 0.278
25.1150 7.594 0.281
25.1355 7.990 0.288
25.1560 7.708 0.283
25.1764 7.938 0.288
25.1969 7.750 0.284
25.2173 8.219 0.293
25.2378 7.500 0.280
25.2583 7.885 0.287
25.2787 7.573 0.281
25.2992 8.156 0.291
25.3197 8.052 0.290
25.3401 7.438 0.278
25.3606 7.615 0.282
25.3811 7.563 0.281
25.4015 7.698 0.283
25.4220 8.052 0.290
25.4424 8.240 0.293
25.4629 7.500 0.280
25.4834 7.781 0.285
25.5038 8.177 0.292
25.5243 8.479 0.297
25.5448 9.125 0.308
25.5652 9.365 0.312
25.5857 9.760 0.319
25.6061 10.417 0.329
25.6266 10.458 0.330
25.6471 9.958 0.322
25.6675 9.896 0.321
25.6880 9.125 0.308
25.7085 9.229 0.310
25.7289 8.365 0.295
25.7494 8.229 0.293
25.7698 8.146 0.291
25.7903 7.885 0.287
25.8108 7.552 0.280
25.8312 8.219 0.293
25.8517 8.354 0.295
25.8722 7.760 0.284
25.8926 8.156 0.291
25.9131 8.240 0.293
25.9335 7.740 0.284
25.9540 7.635 0.282
25.9745 7.260 0.275
25.9949 7.396 0.278
26.0154 7.792 0.285
26.0359 7.833 0.286
26.0563 7.802 0.285
26.0768 7.781 0.285
26.0972 7.635 0.282
26.1177 7.688 0.283
26.1382 7.573 0.281
26.1586 7.781 0.285
26.1791 8.063 0.290
26.1996 7.781 0.285
26.2200 8.271 0.294
26.2405 8.063 0.290
26.2610 7.438 0.278
26.2814 8.354 0.295
26.3019 8.344 0.295
26.3223 8.240 0.293
26.3428 8.333 0.295
26.3633 7.792 0.285
26.3837 8.167 0.292
26.4042 7.792 0.285
26.4247 7.635 0.282
26.4451 8.156 0.291
26.4656 7.938 0.288
26.4860 7.615 0.282
26.5065 7.677 0.283
26.5270 8.083 0.290
26.5474 7.323 0.276
26.5679 8.448 0.297
26.5884 7.771 0.285
26.6088 8.542 0.298
26.6293 8.490 0.297
26.6497 7.500 0.280
26.6702 8.146 0.291
26.6907 8.208 0.292
26.7111 8.198 0.292
26.7316 8.260 0.293
26.7521 7.479 0.279
26.7725 7.677 0.283
26.7930 8.281 0.294
26.8134 8.260 0.293
26.8339 7.542 0.280
26.8544 8.229 0.293
26.8748 7.823 0.285
26.8953 7.615 0.282
26.9158 8.281 0.294
26.9362 7.583 0.281
26.9567 7.552 0.280
26.9771 7.740 0.284
26.9976 7.958 0.288
27.0181 7.917 0.287
27.0385 8.344 0.295
27.0590 7.927 0.287
27.0795 7.792 0.285
27.0999 8.208 0.292
27.1204 8.500 0.298
27.1409 7.479 0.279
27.1613 7.750 0.284
27.1818 8.083 0.290
27.2022 8.208 0.292
27.2227 7.656 0.282
27.2432 7.760 0.284
27.2636 7.698 0.283
27.2841 7.802 0.285
27.3046 8.094 0.290
27.3250 7.771 0.285
27.3455 7.740 0.284
27.3659 7.615 0.282
27.3864 7.823 0.285
27.4069 7.948 0.288
27.4273 7.625 0.282
27.4478 8.708 0.301
27.4683 9.063 0.307
27.4887 9.271 0.311
27.5092 9.125 0.308
27.5296 9.615 0.316
27.5501 8.948 0.305
27.5706 8.958 0.305
27.5910 8.552 0.298
27.6115 8.313 0.294
27.6320 7.677 0.283
27.6524 7.490 0.279
27.6729 7.490 0.279
27.6933 7.438 0.278
27.7138 7.656 0.282
27.7343 6.948 0.269
27.7547 8.094 0.290
27.7752 7.646 0.282
27.7957 7.656 0.282
27.8161 7.708 0.283
27.8366 7.719 0.284
27.8570 8.135 0.291
27.8775 8.302 0.294
27.8980 7.698 0.283
27.9184 8.010 0.289
27.9389 8.375 0.295
27.9594 7.531 0.280
27.9798 7.292 0.276
28.0003 7.865 0.286
28.0208 8.052 0.290
28.0412 7.469 0.279
28.0617 7.292 0.276
28.0821 7.646 0.282
28.1026 7.510 0.280
28.1231 7.146 0.273
28.1435 7.354 0.277
28.1640 7.583 0.281
28.1845 7.302 0.276
28.2049 7.844 0.286
28.2254 7.313 0.276
28.2458 7.552 0.280
28.2663 7.094 0.272
28.2868 7.417 0.278
28.3072 7.802 0.285
28.3277 7.250 0.275
28.3482 7.375 0.277
28.3686 7.073 0.271
28.3891 7.156 0.273
28.4095 7.167 0.273
28.4300 7.167 0.273
28.4505 7.240 0.275
28.4709 6.948 0.269
28.4914 7.583 0.281
28.5119 7.115 0.272
28.5323 7.167 0.273
28.5528 6.979 0.270
28.5732 7.229 0.274
28.5937 7.354 0.277
28.6142 7.365 0.277
28.6346 6.844 0.267
28.6551 6.833 0.267
28.6756 7.240 0.275
28.6960 6.896 0.268
28.7165 7.010 0.270
28.7370 7.042 0.271
28.7574 6.573 0.262
28.7779 6.885 0.268
28.7983 7.250 0.275
28.8188 6.948 0.269
28.8393 7.094 0.272
28.8597 6.802 0.266
28.8802 6.969 0.269
28.9007 6.854 0.267
28.9211 7.208 0.274
28.9416 6.979 0.270
28.9620 6.865 0.267
28.9825 6.198 0.254
29.0030 6.948 0.269
29.0234 6.885 0.268
29.0439 6.542 0.261
29.0644 6.917 0.268
29.0848 6.698 0.264
29.1053 6.792 0.266
29.1257 6.948 0.269
29.1462 6.448 0.259
29.1667 6.521 0.261
29.1871 6.292 0.256
29.2076 7.146 0.273
29.2281 7.031 0.271
29.2485 7.063 0.271
29.2690 6.927 0.269
29.2894 6.698 0.264
29.3099 7.021 0.270
29.3304 6.698 0.264
29.3508 7.417 0.278
29.3713 6.677 0.264
29.3918 7.333 0.276
29.4122 6.917 0.268
29.4327 7.552 0.280
29.4531 7.271 0.275
29.4736 7.167 0.273
29.4941 6.885 0.268
29.5145 7.063 0.271
29.5350 7.021 0.270
29.5555 7.125 0.272
29.5759 7.052 0.271
29.5964 6.906 0.268
29.6169 7.188 0.274
29.6373 7.229 0.274
29.6578 7.375 0.277
29.6782 6.708 0.264
29.6987 6.688 0.264
29.7192 6.781 0.266
29.7396 6.677 0.264
29.7601 6.781 0.266
29.7806 6.938 0.269
29.8010 6.302 0.256
29.8215 6.844 0.267
29.8419 6.427 0.259
29.8624 6.427 0.259
29.8829 6.844 0.267
29.9033 6.729 0.265
29.9238 6.719 0.265
29.9443 6.594 0.262
29.9647 6.646 0.263
29.9852 6.521 0.261
30.0056 6.604 0.262
30.0261 6.510 0.260
30.0466 7.219 0.274
30.0670 6.333 0.257
30.0875 7.083 0.272
30.1080 6.115 0.252
30.1284 6.667 0.264
30.1489 6.615 0.262
30.1693 6.406 0.258
30.1898 6.521 0.261
30.2103 6.865 0.267
30.2307 6.906 0.268
30.2512 6.500 0.260
30.2717 6.354 0.257
30.2921 6.646 0.263
30.3126 5.917 0.248
30.3330 6.865 0.267
30.3535 6.406 0.258
30.3740 6.313 0.256
30.3944 6.719 0.265
30.4149 6.052 0.251
30.4354 6.354 0.257
30.4558 6.167 0.253
30.4763 6.469 0.260
30.4968 6.781 0.266
30.5172 6.458 0.259
30.5377 6.698 0.264
30.5581 6.458 0.259
30.5786 6.708 0.264
30.5991 6.250 0.255
30.6195 6.219 0.255
30.6400 6.573 0.262
30.6605 6.760 0.265
30.6809 7.229 0.274
30.7014 7.375 0.277
30.7218 7.135 0.273
30.7423 6.750 0.265
30.7628 7.125 0.272
30.7832 7.688 0.283
30.8037 7.229 0.274
30.8242 8.240 0.293
30.8446 8.438 0.296
30.8651 8.635 0.300
30.8855 8.938 0.305
30.9060 10.635 0.333
30.9265 12.385 0.359
30.9469 15.875 0.407
30.9674 21.729 0.476
30.9879 30.146 0.560
31.0083 41.729 0.659
31.0288 50.083 0.722
31.0492 45.552 0.689
31.0697 35.677 0.610
31.0902 33.271 0.589
31.1106 31.698 0.575
31.1311 24.906 0.509
31.1516 17.385 0.426
31.1720 13.208 0.371
31.1925 11.479 0.346
31.2129 10.271 0.327
31.2334 10.094 0.324
31.2539 9.500 0.315
31.2743 9.104 0.308
31.2948 8.635 0.300
31.3153 8.635 0.300
31.3357 8.208 0.292
31.3562 7.740 0.284
31.3767 7.427 0.278
31.3971 7.333 0.276
31.4176 6.896 0.268
31.4380 7.208 0.274
31.4585 7.677 0.283
31.4790 7.281 0.275
31.4994 6.646 0.263
31.5199 7.073 0.271
31.5404 7.063 0.271
31.5608 7.156 0.273
31.5813 6.781 0.266
31.6017 7.396 0.278
31.6222 6.802 0.266
31.6427 7.417 0.278
31.6631 7.250 0.275
31.6836 6.906 0.268
31.7041 7.000 0.270
31.7245 7.271 0.275
31.7450 7.240 0.275
31.7654 7.167 0.273
31.7859 7.302 0.276
31.8064 7.219 0.274
31.8268 7.760 0.284
31.8473 7.635 0.282
31.8678 7.458 0.279
31.8882 7.667 0.283
31.9087 7.990 0.288
31.9291 7.906 0.287
31.9496 7.656 0.282
31.9701 8.104 0.291
31.9905 7.792 0.285
32.0110 8.073 0.290
32.0315 8.146 0.291
32.0519 8.365 0.295
32.0724 8.344 0.295
32.0928 8.594 0.299
32.1133 9.167 0.309
32.1338 9.490 0.314
32.1542 10.563 0.332
32.1747 11.667 0.349
32.1952 12.281 0.358
32.2156 12.375 0.359
32.2361 13.010 0.368
32.2566 13.125 0.370
32.2770 12.219 0.357
32.2975 11.552 0.347
32.3179 11.677 0.349
32.3384 10.802 0.335
32.3589 9.833 0.320
32.3793 9.781 0.319
32.3998 9.385 0.313
32.4203 9.042 0.307
32.4407 8.708 0.301
32.4612 9.042 0.307
32.4816 9.333 0.312
32.5021 10.104 0.324
32.5226 9.938 0.322
32.5430 11.000 0.339
32.5635 12.167 0.356
32.5840 14.854 0.393
32.6044 16.760 0.418
32.6249 20.594 0.463
32.6453 22.531 0.484
32.6658 21.427 0.472
32.6863 18.521 0.439
32.7067 15.917 0.407
32.7272 16.760 0.418
32.7477 14.250 0.385
32.7681 12.031 0.354
32.7886 10.000 0.323
32.8090 9.521 0.315
32.8295 8.958 0.305
32.8500 8.740 0.302
32.8704 8.896 0.304
32.8909 8.198 0.292
32.9114 7.698 0.283
32.9318 7.396 0.278
32.9523 7.531 0.280
32.9728 7.875 0.286
32.9932 7.698 0.283
33.0137 6.917 0.268
33.0341 7.354 0.277
33.0546 7.292 0.276
33.0751 7.594 0.281
33.0955 6.531 0.261
33.1160 6.646 0.263
33.1365 6.906 0.268
33.1569 7.406 0.278
33.1774 7.042 0.271
33.1978 7.302 0.276
33.2183 7.156 0.273
33.2388 7.365 0.277
33.2592 7.406 0.278
33.2797 7.344 0.277
33.3002 7.052 0.271
33.3206 7.021 0.270
33.3411 6.979 0.270
33.3615 6.792 0.266
33.3820 7.229 0.274
33.4025 6.854 0.267
33.4229 7.115 0.272
33.4434 7.042 0.271
33.4639 7.000 0.270
33.4843 6.354 0.257
33.5048 6.927 0.269
33.5252 6.521 0.261
33.5457 6.500 0.260
33.5662 6.229 0.255
33.5866 6.479 0.260
33.6071 6.906 0.268
33.6276 6.885 0.268
33.6480 6.365 0.257
33.6685 7.010 0.270
33.6889 6.719 0.265
33.7094 6.969 0.269
33.7299 6.615 0.262
33.7503 6.385 0.258
33.7708 6.583 0.262
33.7913 6.854 0.267
33.8117 5.958 0.249
33.8322 6.292 0.256
33.8527 6.542 0.261
33.8731 5.927 0.248
33.8936 6.083 0.252
33.9140 6.615 0.262
33.9345 6.198 0.254
33.9550 6.292 0.256
33.9754 6.167 0.253
33.9959 6.823 0.267
34.0164 6.031 0.251
34.0368 5.979 0.250
34.0573 5.969 0.249
34.0777 6.375 0.258
34.0982 7.104 0.272
34.1187 6.302 0.256
34.1391 6.760 0.265
34.1596 6.479 0.260
34.1801 6.656 0.263
34.2005 6.677 0.264
34.2210 7.552 0.280
34.2414 7.656 0.282
34.2619 7.781 0.285
34.2824 7.313 0.276
34.3028 7.740 0.284
34.3233 7.396 0.278
34.3438 7.031 0.271
34.3642 6.500 0.260
34.3847 6.333 0.257
34.4051 6.438 0.259
34.4256 6.333 0.257
34.4461 6.292 0.256
34.4665 6.302 0.256
34.4870 6.260 0.255
34.5075 6.281 0.256
34.5279 6.583 0.262
34.5484 5.927 0.248
34.5688 6.313 0.256
34.5893 6.469 0.260
34.6098 6.115 0.252
34.6302 6.177 0.254
34.6507 5.740 0.245
34.6712 5.990 0.250
34.6916 6.000 0.250
34.7121 6.281 0.256
34.7326 5.875 0.247
34.7530 6.302 0.256
34.7735 6.531 0.261
34.7939 6.375 0.258
34.8144 6.719 0.265
34.8349 6.521 0.261
34.8553 6.573 0.262
34.8758 6.792 0.266
34.8963 7.063 0.271
34.9167 7.625 0.282
34.9372 8.177 0.292
34.9576 8.958 0.305
34.9781 10.073 0.324
34.9986 9.406 0.313
35.0190 9.667 0.317
35.0395 9.781 0.319
35.0600 9.646 0.317
35.0804 8.563 0.299
35.1009 8.313 0.294
35.1213 7.135 0.273
35.1418 7.479 0.279
35.1623 6.427 0.259
35.1827 7.115 0.272
35.2032 6.823 0.267
35.2237 6.635 0.263
35.2441 6.552 0.261
35.2646 6.844 0.267
35.2850 6.844 0.267
35.3055 6.865 0.267
35.3260 6.490 0.260
35.3464 6.198 0.254
35.3669 6.552 0.261
35.3874 6.250 0.255
35.4078 6.719 0.265
35.4283 7.052 0.271
35.4487 6.802 0.266
35.4692 6.719 0.265
35.4897 6.542 0.261
35.5101 6.729 0.265
35.5306 6.448 0.259
35.5511 6.344 0.257
35.5715 6.833 0.267
35.5920 6.542 0.261
35.6125 7.063 0.271
35.6329 7.167 0.273
35.6534 6.656 0.263
35.6738 6.740 0.265
35.6943 6.760 0.265
35.7148 6.906 0.268
35.7352 6.417 0.259
35.7557 6.771 0.266
35.7762 6.885 0.268
35.7966 7.198 0.274
35.8171 7.396 0.278
35.8375 7.802 0.285
35.8580 7.208 0.274
35.8785 7.583 0.281
35.8989 7.750 0.284
35.9194 7.604 0.281
35.9399 7.490 0.279
35.9603 8.948 0.305
35.9808 9.000 0.306
36.0012 9.531 0.315
36.0217 9.667 0.317
36.0422 10.083 0.324
36.0626 10.594 0.332
36.0831 10.510 0.331
36.1036 11.031 0.339
36.1240 10.792 0.335
36.1445 11.240 0.342
36.1649 10.594 0.332
36.1854 10.375 0.329
36.2059 10.854 0.336
36.2263 10.635 0.333
36.2468 10.719 0.334
36.2673 11.031 0.339
36.2877 10.771 0.335
36.3082 11.073 0.340
36.3286 10.688 0.334
36.3491 10.885 0.337
36.3696 10.906 0.337
36.3900 11.469 0.346
36.4105 12.083 0.355
36.4310 13.052 0.369
36.4514 13.167 0.370
36.4719 13.000 0.368
36.4924 14.385 0.387
36.5128 15.635 0.404
36.5333 17.458 0.426
36.5537 20.000 0.456
36.5742 22.573 0.485
36.5947 27.875 0.539
36.6151 30.427 0.563
36.6356 30.323 0.562
36.6561 25.573 0.516
36.6765 23.885 0.499
36.6970 23.490 0.495
36.7174 23.667 0.497
36.7379 21.427 0.472
36.7584 17.750 0.430
36.7788 15.646 0.404
36.7993 14.385 0.387
36.8198 14.229 0.385
36.8402 14.104 0.383
36.8607 14.115 0.383
36.8811 14.427 0.388
36.9016 14.240 0.385
36.9221 15.052 0.396
36.9425 15.344 0.400
36.9630 15.979 0.408
36.9835 17.302 0.425
37.0039 18.271 0.436
37.0244 19.490 0.451
37.0448 22.667 0.486
37.0653 26.854 0.529
37.0858 31.115 0.569
37.1062 35.958 0.612
37.1267 40.833 0.652
37.1472 38.448 0.633
37.1676 34.844 0.602
37.1881 31.990 0.577
37.2085 31.510 0.573
37.2290 30.073 0.560
37.2495 26.188 0.522
37.2699 23.406 0.494
37.2904 19.292 0.448
37.3109 17.958 0.433
37.3313 15.792 0.406
37.3518 16.094 0.409
37.3723 14.323 0.386
37.3927 13.781 0.379
37.4132 13.219 0.371
37.4336 12.833 0.366
37.4541 13.031 0.368
37.4746 11.573 0.347
37.4950 12.375 0.359
37.5155 12.052 0.354
37.5360 11.938 0.353
37.5564 12.292 0.358
37.5769 11.094 0.340
37.5973 11.906 0.352
37.6178 11.625 0.348
37.6383 11.083 0.340
37.6587 10.979 0.338
37.6792 11.229 0.342
37.6997 11.510 0.346
37.7201 11.292 0.343
37.7406 11.344 0.344
37.7610 10.979 0.338
37.7815 11.323 0.343
37.8020 11.000 0.339
37.8224 11.219 0.342
37.8429 11.302 0.343
37.8634 11.750 0.350
37.8838 11.344 0.344
37.9043 11.083 0.340
37.9247 11.354 0.344
37.9452 12.271 0.358
37.9657 12.229 0.357
37.9861 12.229 0.357
38.0066 13.281 0.372
38.0271 13.906 0.381
38.0475 14.990 0.395
38.0680 15.948 0.408
38.0885 17.031 0.421
38.1089 18.448 0.438
38.1294 19.396 0.449
38.1498 18.427 0.438
38.1703 17.708 0.429
38.1908 16.719 0.417
38.2112 16.198 0.411
38.2317 15.646 0.404
38.2522 15.125 0.397
38.2726 13.563 0.376
38.2931 12.979 0.368
38.3135 12.760 0.365
38.3340 12.990 0.368
38.3545 13.042 0.369
38.3749 12.146 0.356
38.3954 13.010 0.368
38.4159 13.271 0.372
38.4363 14.323 0.386
38.4568 14.708 0.391
38.4772 16.885 0.419
38.4977 16.625 0.416
38.5182 15.813 0.406
38.5386 14.188 0.384
38.5591 13.479 0.375
38.5796 13.667 0.377
38.6000 13.333 0.373
38.6205 11.438 0.345
38.6409 11.344 0.344
38.6614 10.802 0.335
38.6819 9.542 0.315
38.7023 9.813 0.320
38.7228 9.594 0.316
38.7433 9.188 0.309
38.7637 8.760 0.302
38.7842 8.448 0.297
38.8046 8.333 0.295
38.8251 8.979 0.306
38.8456 8.156 0.291
38.8660 7.948 0.288
38.8865 8.677 0.301
38.9070 8.469 0.297
38.9274 8.208 0.292
38.9479 8.125 0.291
38.9684 8.323 0.294
38.9888 7.990 0.288
39.0093 8.188 0.292
39.0297 8.031 0.289
39.0502 8.083 0.290
39.0707 8.740 0.302
39.0911 7.885 0.287
39.1116 8.073 0.290
39.1321 7.990 0.288
39.1525 7.938 0.288
39.1730 7.969 0.288
39.1934 7.885 0.287
39.2139 7.927 0.287
39.2344 7.417 0.278
39.2548 7.656 0.282
39.2753 7.740 0.284
39.2958 8.135 0.291
39.3162 8.094 0.290
39.3367 7.583 0.281
39.3571 7.760 0.284
39.3776 8.406 0.296
39.3981 8.010 0.289
39.4185 7.677 0.283
39.4390 7.677 0.283
39.4595 8.115 0.291
39.4799 7.313 0.276
39.5004 8.146 0.291
39.5208 7.917 0.287
39.5413 8.760 0.302
39.5618 8.333 0.295
39.5822 8.188 0.292
39.6027 8.146 0.291
39.6232 8.156 0.291
39.6436 8.115 0.291
39.6641 8.573 0.299
39.6845 8.292 0.294
39.7050 9.000 0.306
39.7255 9.698 0.318
39.7459 9.938 0.322
39.7664 10.229 0.326
39.7869 10.698 0.334
39.8073 11.760 0.350
39.8278 12.167 0.356
39.8483 12.292 0.358
39.8687 12.667 0.363
39.8892 11.333 0.344
39.9096 11.083 0.340
39.9301 11.521 0.346
39.9506 10.906 0.337
39.9710 10.729 0.334
39.9915 9.896 0.321
40.0120 9.354 0.312
40.0324 9.563 0.316
40.0529 9.292 0.311
40.0733 8.938 0.305
40.0938 9.042 0.307
40.1143 8.531 0.298
40.1347 8.448 0.297
40.1552 7.948 0.288
40.1757 8.219 0.293
40.1961 8.854 0.304
40.2166 8.302 0.294
40.2370 8.365 0.295
40.2575 9.240 0.310
40.2780 9.323 0.312
40.2984 9.125 0.308
40.3189 9.510 0.315
40.3394 10.188 0.326
40.3598 10.708 0.334
40.3803 12.094 0.355
40.4007 12.052 0.354
40.4212 11.677 0.349
40.4417 12.531 0.361
40.4621 11.521 0.346
40.4826 11.823 0.351
40.5031 11.146 0.341
40.5235 11.438 0.345
40.5440 10.781 0.335
40.5644 10.104 0.324
40.5849 9.635 0.317
40.6054 10.365 0.329
40.6258 9.219 0.310
40.6463 9.438 0.314
40.6668 9.031 0.307
40.6872 8.833 0.303
40.7077 9.302 0.311
40.7282 9.021 0.307
40.7486 9.354 0.312
40.7691 9.427 0.313
40.7895 10.083 0.324
40.8100 11.156 0.341
40.8305 11.802 0.351
40.8509 10.958 0.338
40.8714 10.979 0.338
40.8919 10.792 0.335
40.9123 10.198 0.326
40.9328 10.771 0.335
40.9532 10.802 0.335
40.9737 9.958 0.322
40.9942 9.427 0.313
41.0146 9.438 0.314
41.0351 9.865 0.321
41.0556 10.083 0.324
41.0760 10.115 0.325
41.0965 10.365 0.329
41.1169 10.344 0.328
41.1374 11.396 0.345
41.1579 11.521 0.346
41.1783 13.656 0.377
41.1988 14.740 0.392
41.2193 16.521 0.415
41.2397 17.313 0.425
41.2602 17.958 0.433
41.2806 16.375 0.413
41.3011 16.167 0.410
41.3216 14.615 0.390
41.3420 14.052 0.383
41.3625 14.063 0.383
41.3830 12.740 0.364
41.4034 11.719 0.349
41.4239 11.063 0.339
41.4443 9.979 0.322
41.4648 9.573 0.316
41.4853 8.625 0.300
41.5057 8.917 0.305
41.5262 8.042 0.289
41.5467 8.531 0.298
41.5671 8.375 0.295
41.5876 8.156 0.291
41.6081 7.552 0.280
41.6285 7.479 0.279
41.6490 7.625 0.282
41.6694 7.698 0.283
41.6899 7.427 0.278
41.7104 7.552 0.280
41.7308 7.833 0.286
41.7513 7.146 0.273
41.7718 7.271 0.275
41.7922 7.479 0.279
41.8127 7.906 0.287
41.8331 6.958 0.269
41.8536 8.052 0.290
41.8741 8.188 0.292
41.8945 8.583 0.299
41.9150 8.740 0.302
41.9355 8.594 0.299
41.9559 8.552 0.298
41.9764 8.323 0.294
41.9968 7.969 0.288
42.0173 8.385 0.296
42.0378 7.542 0.280
42.0582 7.875 0.286
42.0787 7.469 0.279
42.0992 7.792 0.285
42.1196 7.250 0.275
42.1401 6.948 0.269
42.1605 6.885 0.268
42.1810 7.771 0.285
42.2015 7.031 0.271
42.2219 6.969 0.269
42.2424 6.979 0.270
42.2629 6.792 0.266
42.2833 7.135 0.273
42.3038 6.771 0.266
42.3243 6.823 0.267
42.3447 6.635 0.263
42.3652 6.823 0.267
42.3856 6.833 0.267
42.4061 7.438 0.278
42.4266 7.115 0.272
42.4470 6.458 0.259
42.4675 7.042 0.271
42.4880 7.469 0.279
42.5084 7.083 0.272
42.5289 7.583 0.281
42.5493 7.448 0.279
42.5698 7.510 0.280
42.5903 7.948 0.288
42.6107 7.740 0.284
42.6312 7.833 0.286
42.6517 7.865 0.286
42.6721 7.844 0.286
42.6926 7.646 0.282
42.7130 7.500 0.280
42.7335 7.458 0.279
42.7540 7.635 0.282
42.7744 7.229 0.274
42.7949 7.156 0.273
42.8154 7.135 0.273
42.8358 7.417 0.278
42.8563 7.198 0.274
42.8767 6.990 0.270
42.8972 7.615 0.282
42.9177 7.271 0.275
42.9381 7.500 0.280
42.9586 6.990 0.270
42.9791 7.021 0.270
42.9995 7.656 0.282
43.0200 7.542 0.280
43.0404 7.375 0.277
43.0609 7.906 0.287
43.0814 7.167 0.273
43.1018 7.583 0.281
43.1223 8.333 0.295
43.1428 8.010 0.289
43.1632 7.990 0.288
43.1837 8.302 0.294
43.2042 9.063 0.307
43.2246 9.250 0.310
43.2451 10.802 0.335
43.2655 10.323 0.328
43.2860 10.771 0.335
43.3065 10.469 0.330
43.3269 10.021 0.323
43.3474 9.792 0.319
43.3679 9.938 0.322
43.3883 10.240 0.327
43.4088 10.281 0.327
43.4292 9.677 0.317
43.4497 10.198 0.326
43.4702 10.302 0.328
43.4906 10.323 0.328
43.5111 9.771 0.319
43.5316 10.927 0.337
43.5520 11.802 0.351
43.5725 12.396 0.359
43.5929 13.271 0.372
43.6134 14.135 0.384
43.6339 15.313 0.399
43.6543 18.146 0.435
43.6748 20.208 0.459
43.6953 23.115 0.491
43.7157 24.125 0.501
43.7362 24.729 0.508
43.7566 22.823 0.488
43.7771 20.292 0.460
43.7976 19.583 0.452
43.8180 18.927 0.444
43.8385 18.948 0.444
43.8590 17.542 0.427
43.8794 15.156 0.397
43.8999 14.188 0.384
43.9203 12.490 0.361
43.9408 12.219 0.357
43.9613 11.167 0.341
43.9817 10.563 0.332
44.0022 10.542 0.331
44.0227 9.938 0.322
44.0431 9.552 0.315
44.0636 9.760 0.319
44.0841 8.938 0.305
44.1045 9.125 0.308
44.1250 8.271 0.294
44.1454 8.188 0.292
44.1659 8.573 0.299
44.1864 8.021 0.289
44.2068 8.406 0.296
44.2273 7.844 0.286
44.2478 8.375 0.295
44.2682 7.719 0.284
44.2887 8.010 0.289
44.3091 8.000 0.289
44.3296 7.760 0.284
44.3501 8.104 0.291
44.3705 8.219 0.293
44.3910 7.646 0.282
44.4115 7.438 0.278
44.4319 7.792 0.285
44.4524 7.938 0.288
44.4728 7.594 0.281
44.4933 7.854 0.286
44.5138 7.781 0.285
44.5342 7.260 0.275
44.5547 7.146 0.273
44.5752 7.406 0.278
44.5956 7.031 0.271
44.6161 7.198 0.274
44.6365 7.573 0.281
44.6570 7.708 0.283
44.6775 7.635 0.282
44.6979 7.354 0.277
44.7184 7.292 0.276
44.7389 7.198 0.274
44.7593 7.479 0.279
44.7798 7.323 0.276
44.8002 7.010 0.270
44.8207 7.792 0.285
44.8412 7.781 0.285
44.8616 7.844 0.286
44.8821 7.510 0.280
44.9026 7.729 0.284
44.9230 7.333 0.276
44.9435 7.250 0.275
44.9640 7.573 0.281
44.9844 7.646 0.282
45.0049 7.281 0.275
45.0253 7.281 0.275
45.0458 7.656 0.282
45.0663 7.635 0.282
45.0867 7.615 0.282
45.1072 7.885 0.287
45.1277 7.781 0.285
45.1481 7.865 0.286
45.1686 8.010 0.289
45.1890 8.823 0.303
45.2095 8.865 0.304
45.2300 9.490 0.314
45.2504 9.542 0.315
45.2709 10.708 0.334
45.2914 12.031 0.354
45.3118 12.500 0.361
45.3323 11.896 0.352
45.3527 11.427 0.345
45.3732 11.500 0.346
45.3937 10.563 0.332
45.4141 10.000 0.323
45.4346 10.125 0.325
45.4551 10.240 0.327
45.4755 10.125 0.325
45.4960 8.323 0.294
45.5164 8.052 0.290
45.5369 7.958 0.288
45.5574 7.635 0.282
45.5778 7.552 0.280
45.5983 7.125 0.272
45.6188 7.000 0.270
45.6392 7.344 0.277
45.6597 7.542 0.280
45.6801 7.052 0.271
45.7006 7.323 0.276
45.7211 7.146 0.273
45.7415 7.125 0.272
45.7620 6.583 0.262
45.7825 6.729 0.265
45.8029 7.344 0.277
45.8234 6.615 0.262
45.8439 6.406 0.258
45.8643 7.323 0.276
45.8848 7.052 0.271
45.9052 6.896 0.268
45.9257 6.542 0.261
45.9462 6.531 0.261
45.9666 6.229 0.255
45.9871 6.635 0.263
46.0076 6.542 0.261
46.0280 6.552 0.261
46.0485 6.354 0.257
46.0689 6.313 0.256
46.0894 7.010 0.270
46.1099 6.333 0.257
46.1303 6.313 0.256
46.1508 6.177 0.254
46.1713 6.740 0.265
46.1917 6.417 0.259
46.2122 6.000 0.250
46.2326 6.458 0.259
46.2531 6.177 0.254
46.2736 6.063 0.251
46.2940 6.031 0.251
46.3145 6.615 0.262
46.3350 5.990 0.250
46.3554 6.813 0.266
46.3759 6.313 0.256
46.3963 6.063 0.251
46.4168 6.333 0.257
46.4373 6.823 0.267
46.4577 6.135 0.253
46.4782 6.271 0.256
46.4987 6.563 0.261
46.5191 6.521 0.261
46.5396 6.865 0.267
46.5601 6.604 0.262
46.5805 6.271 0.256
46.6010 5.979 0.250
46.6214 6.500 0.260
46.6419 6.594 0.262
46.6624 7.208 0.274
46.6828 6.302 0.256
46.7033 6.635 0.263
46.7238 6.604 0.262
46.7442 6.521 0.261
46.7647 6.604 0.262
46.7851 6.854 0.267
46.8056 6.688 0.264
46.8261 7.000 0.270
46.8465 6.302 0.256
46.8670 6.583 0.262
46.8875 6.365 0.257
46.9079 6.760 0.265
46.9284 6.167 0.253
46.9488 5.885 0.248
46.9693 6.375 0.258
46.9898 6.281 0.256
47.0102 6.406 0.258
47.0307 6.542 0.261
47.0512 6.042 0.251
47.0716 6.052 0.251
47.0921 5.750 0.245
47.1125 6.354 0.257
47.1330 6.135 0.253
47.1535 6.167 0.253
47.1739 6.490 0.260
47.1944 6.073 0.252
47.2149 6.135 0.253
47.2353 5.906 0.248
47.2558 6.740 0.265
47.2762 6.677 0.264
47.2967 5.969 0.249
47.3172 5.948 0.249
47.3376 6.938 0.269
47.3581 6.313 0.256
47.3786 6.479 0.260
47.3990 6.719 0.265
47.4195 6.365 0.257
47.4400 6.510 0.260
47.4604 6.615 0.262
47.4809 6.333 0.257
47.5013 6.615 0.262
47.5218 7.031 0.271
47.5423 7.250 0.275
47.5627 7.844 0.286
47.5832 7.688 0.283
47.6037 7.990 0.288
47.6241 8.010 0.289
47.6446 7.677 0.283
47.6650 8.656 0.300
47.6855 9.792 0.319
47.7060 10.385 0.329
47.7264 10.885 0.337
47.7469 12.531 0.361
47.7674 12.313 0.358
47.7878 11.229 0.342
47.8083 10.896 0.337
47.8287 9.781 0.319
47.8492 9.906 0.321
47.8697 9.844 0.320
47.8901 9.240 0.310
47.9106 8.958 0.305
47.9311 8.448 0.297
47.9515 8.115 0.291
47.9720 7.302 0.276
47.9924 7.427 0.278
48.0129 6.646 0.263
48.0334 6.740 0.265
48.0538 6.750 0.265
48.0743 6.792 0.266
48.0948 6.042 0.251
48.1152 6.115 0.252
48.1357 6.052 0.251
48.1561 6.552 0.261
48.1766 6.042 0.251
48.1971 6.302 0.256
48.2175 6.281 0.256
48.2380 6.802 0.266
48.2585 6.469 0.260
48.2789 7.208 0.274
48.2994 6.802 0.266
48.3199 7.302 0.276
48.3403 7.260 0.275
48.3608 7.281 0.275
48.3812 7.354 0.277
48.4017 6.927 0.269
48.4222 6.708 0.264
48.4426 6.896 0.268
48.4631 6.875 0.268
48.4836 7.177 0.273
48.5040 7.177 0.273
48.5245 6.594 0.262
48.5449 6.125 0.253
48.5654 6.354 0.257
48.5859 6.510 0.260
48.6063 6.552 0.261
48.6268 6.594 0.262
48.6473 6.490 0.260
48.6677 6.990 0.270
48.6882 6.594 0.262
48.7086 7.708 0.283
48.7291 8.000 0.289
48.7496 8.104 0.291
48.7700 7.438 0.278
48.7905 7.677 0.283
48.8110 6.865 0.267
48.8314 7.208 0.274
48.8519 6.969 0.269
48.8723 7.010 0.270
48.8928 6.708 0.264
48.9133 6.521 0.261
48.9337 6.052 0.251
48.9542 5.948 0.249
48.9747 6.563 0.261
48.9951 5.844 0.247
49.0156 5.865 0.247
49.0360 5.948 0.249
49.0565 6.490 0.260
49.0770 6.198 0.254
49.0974 5.698 0.244
49.1179 6.365 0.257
49.1384 6.792 0.266
49.1588 6.302 0.256
49.1793 6.313 0.256
49.1998 5.469 0.239
49.2202 6.271 0.256
49.2407 6.406 0.258
49.2611 6.510 0.260
49.2816 6.135 0.253
49.3021 6.698 0.264
49.3225 6.177 0.254
49.3430 6.281 0.256
49.3635 6.594 0.262
49.3839 6.240 0.255
49.4044 6.604 0.262
49.4248 6.135 0.253
49.4453 6.604 0.262
49.4658 7.177 0.273
49.4862 6.542 0.261
49.5067 6.729 0.265
49.5272 6.375 0.258
49.5476 6.938 0.269
49.5681 7.104 0.272
49.5885 7.042 0.271
49.6090 6.823 0.267
49.6295 7.052 0.271
49.6499 7.073 0.271
49.6704 8.604 0.299
49.6909 7.458 0.279
49.7113 8.469 0.297
49.7318 7.854 0.286
49.7522 8.594 0.299
49.7727 8.552 0.298
49.7932 9.156 0.309
49.8136 10.000 0.323
49.8341 10.927 0.337
49.8546 11.375 0.344
49.8750 13.208 0.371
49.8955 15.375 0.400
49.9159 16.135 0.410
49.9364 17.510 0.427
49.9569 17.313 0.425
49.9773 16.688 0.417
49.9978 15.260 0.399
50.0183 13.896 0.380
50.0387 14.302 0.386
50.0592 14.385 0.387
50.0797 13.448 0.374
50.1001 12.156 0.356
50.1206 11.740 0.350
50.1410 10.854 0.336
50.1615 10.240 0.327
50.1820 10.292 0.327
50.2024 10.219 0.326
50.2229 10.510 0.331
50.2434 10.531 0.331
50.2638 9.708 0.318
50.2843 8.958 0.305
50.3047 8.479 0.297
50.3252 8.698 0.301
50.3457 7.771 0.285
50.3661 8.198 0.292
50.3866 7.156 0.273
50.4071 7.438 0.278
50.4275 7.385 0.277
50.4480 6.594 0.262
50.4684 6.490 0.260
50.4889 6.448 0.259
50.5094 6.271 0.256
50.5298 6.385 0.258
50.5503 6.281 0.256
50.5708 6.292 0.256
50.5912 6.833 0.267
50.6117 5.938 0.249
50.6321 6.229 0.255
50.6526 6.042 0.251
50.6731 5.854 0.247
50.6935 5.750 0.245
50.7140 6.042 0.251
50.7345 6.063 0.251
50.7549 5.823 0.246
50.7754 5.604 0.242
50.7959 6.250 0.255
50.8163 6.146 0.253
50.8368 6.010 0.250
50.8572 5.677 0.243
50.8777 6.021 0.250
50.8982 6.052 0.251
50.9186 5.844 0.247
50.9391 5.615 0.242
50.9596 6.208 0.254
50.9800 6.073 0.252
51.0005 6.344 0.257
51.0209 6.135 0.253
51.0414 6.219 0.255
51.0619 6.521 0.261
51.0823 6.719 0.265
51.1028 6.698 0.264
51.1233 6.802 0.266
51.1437 7.042 0.271
51.1642 7.385 0.277
51.1846 7.521 0.280
51.2051 7.448 0.279
51.2256 7.010 0.270
51.2460 7.260 0.275
51.2665 7.344 0.277
51.2870 7.208 0.274
51.3074 7.750 0.284
51.3279 7.073 0.271
51.3483 7.135 0.273
51.3688 7.448 0.279
51.3893 7.031 0.271
51.4097 6.625 0.263
51.4302 6.458 0.259
51.4507 6.760 0.265
51.4711 6.427 0.259
51.4916 6.677 0.264
51.5120 6.698 0.264
51.5325 6.104 0.252
51.5530 6.281 0.256
51.5734 6.260 0.255
51.5939 6.167 0.253
51.6144 6.135 0.253
51.6348 6.115 0.252
51.6553 6.344 0.257
51.6758 6.781 0.266
51.6962 7.073 0.271
51.7167 6.563 0.261
51.7371 6.677 0.264
51.7576 7.500 0.280
51.7781 7.177 0.273
51.7985 7.583 0.281
51.8190 7.042 0.271
51.8395 7.417 0.278
51.8599 7.427 0.278
51.8804 7.115 0.272
51.9008 6.865 0.267
51.9213 6.781 0.266
51.9418 7.125 0.272
51.9622 6.917 0.268
51.9827 6.802 0.266
52.0032 6.615 0.262
52.0236 6.177 0.254
52.0441 6.260 0.255
52.0645 6.354 0.257
52.0850 6.021 0.250
52.1055 5.844 0.247
52.1259 5.938 0.249
52.1464 6.052 0.251
52.1669 6.073 0.252
52.1873 5.906 0.248
52.2078 5.344 0.236
52.2282 5.240 0.234
52.2487 5.521 0.240
52.2692 5.458 0.238
52.2896 6.260 0.255
52.3101 5.771 0.245
52.3306 5.625 0.242
52.3510 5.448 0.238
52.3715 5.635 0.242
52.3919 5.667 0.243
52.4124 6.021 0.250
52.4329 6.115 0.252
52.4533 5.500 0.239
52.4738 6.094 0.252
52.4943 5.969 0.249
52.5147 6.229 0.255
52.5352 5.771 0.245
52.5557 6.042 0.251
52.5761 5.479 0.239
52.5966 5.719 0.244
52.6170 5.469 0.239
52.6375 5.635 0.242
52.6580 5.854 0.247
52.6784 5.865 0.247
52.6989 5.958 0.249
52.7194 5.573 0.241
52.7398 5.042 0.229
52.7603 5.250 0.234
52.7807 5.010 0.228
52.8012 5.292 0.235
52.8217 5.219 0.233
52.8421 5.271 0.234
52.8626 4.927 0.227
52.8831 5.302 0.235
52.9035 5.094 0.230
52.9240 5.396 0.237
52.9444 4.771 0.223
52.9649 5.208 0.233
52.9854 5.073 0.230
53.0058 5.281 0.235
53.0263 5.427 0.238
53.0468 5.073 0.230
53.0672 4.802 0.224
53.0877 5.406 0.237
53.1081 5.604 0.242
53.1286 5.156 0.232
53.1491 5.031 0.229
53.1695 5.583 0.241
53.1900 5.458 0.238
53.2105 5.240 0.234
53.2309 5.229 0.233
53.2514 4.781 0.223
53.2718 5.458 0.238
53.2923 4.813 0.224
53.3128 5.208 0.233
53.3332 5.010 0.228
53.3537 4.969 0.228
53.3742 5.042 0.229
53.3946 5.104 0.231
53.4151 4.927 0.227
53.4356 4.760 0.223
53.4560 5.135 0.231
53.4765 4.948 0.227
53.4969 5.198 0.233
53.5174 4.833 0.224
53.5379 5.135 0.231
53.5583 4.729 0.222
53.5788 4.667 0.220
53.5993 4.906 0.226
53.6197 4.844 0.225
53.6402 4.896 0.226
53.6606 4.406 0.214
53.6811 5.313 0.235
53.7016 4.594 0.219
53.7220 5.240 0.234
53.7425 4.854 0.225
53.7630 4.948 0.227
53.7834 5.042 0.229
53.8039 4.625 0.219
53.8243 4.792 0.223
53.8448 5.313 0.235
53.8653 5.135 0.231
53.8857 5.229 0.233
53.9062 4.875 0.225
53.9267 5.115 0.231
53.9471 4.979 0.228
53.9676 4.781 0.223
53.9880 4.833 0.224
54.0085 5.063 0.230
54.0290 4.708 0.221
54.0494 5.229 0.233
54.0699 4.927 0.227
54.0904 5.031 0.229
54.1108 5.156 0.232
54.1313 5.448 0.238
54.1517 5.469 0.239
54.1722 5.875 0.247
54.1927 5.844 0.247
54.2131 5.510 0.240
54.2336 5.583 0.241
54.2541 5.052 0.229
54.2745 5.281 0.235
54.2950 5.083 0.230
54.3155 5.354 0.236
54.3359 4.990 0.228
54.3564 5.802 0.246
54.3768 5.281 0.235
54.3973 5.135 0.231
54.4178 4.406 0.214
54.4382 5.115 0.231
54.4587 4.656 0.220
54.4792 4.844 0.225
54.4996 4.917 0.226
54.5201 4.885 0.226
54.5405 5.313 0.235
54.5610 4.927 0.227
54.5815 4.885 0.226
54.6019 4.875 0.225
54.6224 5.156 0.232
54.6429 5.104 0.231
54.6633 5.281 0.235
54.6838 4.844 0.225
54.7042 4.896 0.226
54.7247 5.240 0.234
54.7452 5.052 0.229
54.7656 4.865 0.225
54.7861 4.969 0.228
54.8066 5.135 0.231
54.8270 5.365 0.236
54.8475 5.219 0.233
54.8679 5.188 0.232
54.8884 4.885 0.226
54.9089 5.427 0.238
54.9293 5.104 0.231
54.9498 5.688 0.243
54.9703 5.385 0.237
54.9907 5.583 0.241
55.0112 6.031 0.251
55.0317 6.354 0.257
55.0521 6.542 0.261
55.0726 7.281 0.275
55.0930 7.729 0.284
55.1135 9.146 0.309
55.1340 10.875 0.337
55.1544 12.677 0.363
55.1749 15.615 0.403
55.1954 16.917 0.420
55.2158 17.188 0.423
55.2363 15.198 0.398
55.2567 13.229 0.371
55.2772 11.042 0.339
55.2977 11.073 0.340
55.3181 11.906 0.352
55.3386 12.479 0.361
55.3591 11.563 0.347
55.3795 11.135 0.341
55.4000 9.583 0.316
55.4204 8.427 0.296
55.4409 7.000 0.270
55.4614 6.625 0.263
55.4818 7.500 0.280
55.5023 6.000 0.250
55.5228 5.635 0.242
55.5432 5.833 0.247
55.5637 6.333 0.257
55.5841 5.802 0.246
55.6046 5.615 0.242
55.6251 5.146 0.232
55.6455 5.510 0.240
55.6660 5.833 0.247
55.6865 5.688 0.243
55.7069 5.427 0.238
55.7274 5.792 0.246
55.7478 5.646 0.243
55.7683 5.885 0.248
55.7888 5.823 0.246
55.8092 6.083 0.252
55.8297 5.750 0.245
55.8502 5.990 0.250
55.8706 6.104 0.252
55.8911 5.958 0.249
55.9116 6.031 0.251
55.9320 6.615 0.262
55.9525 7.563 0.281
55.9729 6.896 0.268
55.9934 6.688 0.264
56.0139 7.198 0.274
56.0343 6.594 0.262
56.0548 6.865 0.267
56.0753 7.010 0.270
56.0957 6.729 0.265
56.1162 7.760 0.284
56.1366 7.479 0.279
56.1571 8.396 0.296
56.1776 9.281 0.311
56.1980 9.396 0.313
56.2185 10.490 0.331
56.2390 11.042 0.339
56.2594 10.323 0.328
56.2799 9.521 0.315
56.3003 8.323 0.294
56.3208 8.302 0.294
56.3413 8.354 0.295
56.3617 7.760 0.284
56.3822 8.188 0.292
56.4027 7.469 0.279
56.4231 7.594 0.281
56.4436 6.281 0.256
56.4640 6.469 0.260
56.4845 5.740 0.245
56.5050 5.229 0.233
56.5254 5.115 0.231
56.5459 5.302 0.235
56.5664 5.125 0.231
56.5868 5.208 0.233
56.6073 4.844 0.225
56.6277 5.146 0.232
56.6482 5.073 0.230
56.6687 4.990 0.228
56.6891 4.479 0.216
56.7096 4.698 0.221
56.7301 4.667 0.220
56.7505 4.896 0.226
56.7710 5.302 0.235
56.7915 4.469 0.216
56.8119 4.427 0.215
56.8324 4.719 0.222
56.8528 5.115 0.231
56.8733 5.240 0.234
56.8938 4.531 0.217
56.9142 5.031 0.229
56.9347 4.646 0.220
56.9552 4.208 0.209
56.9756 4.604 0.219
56.9961 4.531 0.217
57.0165 4.563 0.218
57.0370 4.385 0.214
57.0575 4.094 0.207
57.0779 4.344 0.213
57.0984 4.333 0.212
57.1189 4.323 0.212
57.1393 4.896 0.226
57.1598 4.531 0.217
57.1802 4.167 0.208
57.2007 4.333 0.212
57.2212 4.094 0.207
57.2416 4.260 0.211
57.2621 4.604 0.219
57.2826 4.292 0.211
57.3030 4.365 0.213
57.3235 4.813 0.224
57.3439 4.115 0.207
57.3644 4.458 0.216
57.3849 4.635 0.220
57.4053 4.344 0.213
57.4258 4.427 0.215
57.4463 4.021 0.205
57.4667 4.469 0.216
57.4872 4.854 0.225
57.5076 4.719 0.222
57.5281 4.417 0.214
57.5486 4.521 0.217
57.5690 4.833 0.224
57.5895 4.969 0.228
57.6100 4.781 0.223
57.6304 4.510 0.217
57.6509 4.448 0.215
57.6714 4.823 0.224
57.6918 5.135 0.231
57.7123 4.854 0.225
57.7327 4.958 0.227
57.7532 4.698 0.221
57.7737 4.938 0.227
57.7941 5.229 0.233
57.8146 4.865 0.225
57.8351 5.042 0.229
57.8555 5.438 0.238
57.8760 5.354 0.236
57.8964 5.604 0.242
57.9169 6.042 0.251
57.9374 6.094 0.252
57.9578 6.417 0.259
57.9783 6.729 0.265
57.9988 7.417 0.278
58.0192 7.792 0.285
58.0397 8.708 0.301
58.0601 9.146 0.309
58.0806 9.156 0.309
58.1011 8.781 0.302
58.1215 8.417 0.296
58.1420 8.302 0.294
58.1625 8.406 0.296
58.1829 7.688 0.283
58.2034 8.177 0.292
58.2238 7.135 0.273
58.2443 7.427 0.278
58.2648 7.323 0.276
58.2852 7.250 0.275
58.3057 6.448 0.259
58.3262 5.854 0.247
58.3466 6.021 0.250
58.3671 5.604 0.242
58.3875 5.563 0.241
58.4080 5.917 0.248
58.4285 5.542 0.240
58.4489 4.969 0.228
58.4694 5.521 0.240
58.4899 4.521 0.217
58.5103 5.073 0.230
58.5308 5.271 0.234
58.5513 5.167 0.232
58.5717 4.760 0.223
58.5922 5.125 0.231
58.6126 5.052 0.229
58.6331 4.844 0.225
58.6536 4.604 0.219
58.6740 5.052 0.229
58.6945 4.448 0.215
58.7150 4.615 0.219
58.7354 4.719 0.222
58.7559 4.781 0.223
58.7763 4.667 0.220
58.7968 4.552 0.218
58.8173 5.094 0.230
58.8377 4.906 0.226
58.8582 4.406 0.214
58.8787 4.646 0.220
58.8991 4.635 0.220
58.9196 4.427 0.215
58.9400 4.719 0.222
58.9605 4.604 0.219
58.9810 4.823 0.224
59.0014 5.000 0.228
59.0219 4.365 0.213
59.0424 4.833 0.224
59.0628 4.885 0.226
59.0833 5.000 0.228
59.1037 5.083 0.230
59.1242 4.813 0.224
59.1447 4.979 0.228
59.1651 5.740 0.245
59.1856 5.688 0.243
59.2061 6.854 0.267
59.2265 6.729 0.265
59.2470 7.094 0.272
59.2675 6.917 0.268
59.2879 6.740 0.265
59.3084 7.115 0.272
59.3288 6.875 0.268
59.3493 6.479 0.260
59.3698 5.979 0.250
59.3902 5.750 0.245
59.4107 5.979 0.250
59.4312 6.042 0.251
59.4516 5.646 0.243
59.4721 5.635 0.242
59.4925 5.208 0.233
59.5130 5.385 0.237
59.5335 4.656 0.220
59.5539 4.635 0.220
59.5744 4.417 0.214
59.5949 4.083 0.206
59.6153 3.875 0.201
59.6358 4.344 0.213
59.6562 4.656 0.220
59.6767 4.844 0.225
59.6972 4.635 0.220
59.7176 4.354 0.213
59.7381 4.531 0.217
59.7586 4.469 0.216
59.7790 4.542 0.218
59.7995 4.573 0.218
59.8199 4.458 0.216
59.8404 4.708 0.221
59.8609 4.854 0.225
59.8813 5.427 0.238
59.9018 5.708 0.244
59.9223 6.135 0.253
59.9427 6.750 0.265
59.9632 7.083 0.272
59.9836 7.385 0.277
60.0041 7.260 0.275
60.0246 6.656 0.263
60.0450 6.594 0.262
60.0655 5.885 0.248
60.0860 6.458 0.259
60.1064 6.094 0.252
60.1269 5.948 0.249
60.1474 6.031 0.251
60.1678 6.021 0.250
60.1883 5.625 0.242
60.2087 5.063 0.230
60.2292 4.688 0.221
60.2497 4.760 0.223
60.2701 4.625 0.219
60.2906 4.938 0.227
60.3111 4.604 0.219
60.3315 4.583 0.219
60.3520 4.219 0.210
60.3724 4.510 0.217
60.3929 4.354 0.213
60.4134 3.990 0.204
60.4338 4.135 0.208
60.4543 4.250 0.210
60.4748 4.385 0.214
60.4952 4.104 0.207
60.5157 3.802 0.199
60.5361 4.083 0.206
60.5566 4.010 0.204
60.5771 3.740 0.197
60.5975 4.021 0.205
60.6180 3.458 0.190
60.6385 4.073 0.206
60.6589 4.146 0.208
60.6794 3.979 0.204
60.6998 3.677 0.196
60.7203 3.927 0.202
60.7408 4.000 0.204
60.7612 3.792 0.199
60.7817 3.688 0.196
60.8022 3.594 0.193
60.8226 3.708 0.197
60.8431 4.021 0.205
60.8635 3.656 0.195
60.8840 4.021 0.205
60.9045 3.948 0.203
60.9249 3.781 0.198
60.9454 3.729 0.197
60.9659 4.094 0.207
60.9863 4.219 0.210
61.0068 4.125 0.207
61.0273 4.104 0.207
61.0477 3.917 0.202
61.0682 3.813 0.199
61.0886 4.354 0.213
61.1091 4.396 0.214
61.1296 4.198 0.209
61.1500 4.115 0.207
61.1705 4.104 0.207
61.1910 3.875 0.201
61.2114 3.875 0.201
61.2319 3.781 0.198
61.2523 3.958 0.203
61.2728 3.646 0.195
61.2933 3.802 0.199
61.3137 3.792 0.199
61.3342 4.010 0.204
61.3547 4.021 0.205
61.3751 4.208 0.209
61.3956 3.833 0.200
61.4160 3.979 0.204
61.4365 4.271 0.211
61.4570 4.146 0.208
61.4774 3.833 0.200
61.4979 3.979 0.204
61.5184 3.729 0.197
61.5388 3.875 0.201
61.5593 3.708 0.197
61.5797 3.844 0.200
61.6002 3.688 0.196
61.6207 4.083 0.206
61.6411 3.573 0.193
61.6616 3.969 0.203
61.6821 4.125 0.207
61.7025 4.000 0.204
61.7230 3.635 0.195
61.7434 3.969 0.203
61.7639 3.552 0.192
61.7844 3.906 0.202
61.8048 3.750 0.198
61.8253 4.073 0.206
61.8458 3.813 0.199
61.8662 4.135 0.208
61.8867 4.146 0.208
61.9072 3.750 0.198
61.9276 4.208 0.209
61.9481 4.271 0.211
61.9685 4.000 0.204
61.9890 3.990 0.204
62.0095 3.958 0.203
62.0299 4.010 0.204
62.0504 3.750 0.198
62.0709 4.135 0.208
62.0913 3.865 0.201
62.1118 4.521 0.217
62.1322 4.344 0.213
62.1527 4.448 0.215
62.1732 4.417 0.214
62.1936 4.646 0.220
62.2141 4.823 0.224
62.2346 5.177 0.232
62.2550 5.135 0.231
62.2755 5.031 0.229
62.2959 5.000 0.228
62.3164 4.719 0.222
62.3369 4.271 0.211
62.3573 4.833 0.224
62.3778 4.594 0.219
62.3983 4.458 0.216
62.4187 4.854 0.225
62.4392 4.500 0.217
62.4596 4.344 0.213
62.4801 4.375 0.213
62.5006 3.885 0.201
62.5210 3.781 0.198
62.5415 3.938 0.203
62.5620 4.000 0.204
62.5824 3.719 0.197
62.6029 3.583 0.193
62.6233 3.969 0.203
62.6438 3.760 0.198
62.6643 3.906 0.202
62.6847 3.906 0.202
62.7052 3.531 0.192
62.7257 3.969 0.203
62.7461 3.688 0.196
62.7666 3.375 0.188
62.7871 3.708 0.197
62.8075 3.990 0.204
62.8280 3.510 0.191
62.8484 3.854 0.200
62.8689 3.771 0.198
62.8894 3.771 0.198
62.9098 3.813 0.199
62.9303 3.833 0.200
62.9508 3.667 0.195
62.9712 3.792 0.199
62.9917 3.719 0.197
63.0121 3.573 0.193
63.0326 3.542 0.192
63.0531 3.844 0.200
63.0735 3.688 0.196
63.0940 3.729 0.197
63.1145 3.865 0.201
63.1349 3.438 0.189
63.1554 3.802 0.199
63.1758 3.594 0.193
63.1963 3.708 0.197
63.2168 4.135 0.208
63.2372 3.969 0.203
63.2577 4.229 0.210
63.2782 3.885 0.201
63.2986 4.073 0.206
63.3191 4.333 0.212
63.3395 4.104 0.207
63.3600 3.802 0.199
63.3805 3.729 0.197
63.4009 4.240 0.210
63.4214 4.156 0.208
63.4419 4.115 0.207
63.4623 3.969 0.203
63.4828 4.750 0.222
63.5033 3.979 0.204
63.5237 4.448 0.215
63.5442 4.500 0.217
63.5646 4.469 0.216
63.5851 4.625 0.219
63.6056 4.302 0.212
63.6260 4.208 0.209
63.6465 4.604 0.219
63.6670 5.167 0.232
63.6874 4.875 0.225
63.7079 4.750 0.222
63.7283 4.969 0.228
63.7488 4.729 0.222
63.7693 5.115 0.231
63.7897 4.688 0.221
63.8102 4.656 0.220
63.8307 4.469 0.216
63.8511 4.927 0.227
63.8716 4.615 0.219
63.8920 4.583 0.219
63.9125 4.521 0.217
63.9330 4.646 0.220
63.9534 5.125 0.231
63.9739 4.865 0.225
63.9944 4.885 0.226
64.0148 5.313 0.235
64.0353 4.760 0.223
64.0557 5.240 0.234
64.0762 4.969 0.228
64.0967 4.823 0.224
64.1171 5.260 0.234
64.1376 4.771 0.223
64.1581 4.813 0.224
64.1785 4.979 0.228
64.1990 5.010 0.228
64.2194 4.510 0.217
64.2399 4.792 0.223
64.2604 4.865 0.225
64.2808 4.865 0.225
64.3013 4.438 0.215
64.3218 5.260 0.234
64.3422 5.146 0.232
64.3627 4.750 0.222
64.3832 5.021 0.229
64.4036 4.719 0.222
64.4241 4.479 0.216
64.4445 4.583 0.219
64.4650 4.698 0.221
64.4855 4.875 0.225
64.5059 5.271 0.234
64.5264 4.833 0.224
64.5469 5.229 0.233
64.5673 5.281 0.235
64.5878 6.073 0.252
64.6082 6.250 0.255
64.6287 6.781 0.266
64.6492 7.542 0.280
64.6696 7.667 0.283
64.6901 7.958 0.288
64.7106 8.417 0.296
64.7310 7.615 0.282
64.7515 7.000 0.270
64.7719 6.260 0.255
64.7924 5.719 0.244
64.8129 6.469 0.260
64.8333 5.823 0.246
64.8538 6.323 0.257
64.8743 6.448 0.259
64.8947 5.781 0.245
64.9152 5.656 0.243
64.9356 4.677 0.221
64.9561 4.750 0.222
64.9766 4.240 0.210
64.9970 4.604 0.219
65.0175 3.969 0.203
65.0380 4.313 0.212
65.0584 4.167 0.208
65.0789 4.281 0.211
65.0993 4.406 0.214
65.1198 4.167 0.208
65.1403 4.354 0.213
65.1607 3.844 0.200
65.1812 3.875 0.201
65.2017 4.250 0.210
65.2221 4.031 0.205
65.2426 4.135 0.208
65.2631 4.146 0.208
65.2835 4.021 0.205
65.3040 4.156 0.208
65.3244 4.021 0.205
65.3449 4.240 0.210
65.3654 4.198 0.209
65.3858 4.458 0.216
65.4063 4.406 0.214
65.4268 4.427 0.215
65.4472 4.146 0.208
65.4677 4.042 0.205
65.4881 4.260 0.211
65.5086 4.510 0.217
65.5291 5.042 0.229
65.5495 4.823 0.224
65.5700 5.104 0.231
65.5905 5.021 0.229
65.6109 5.448 0.238
65.6314 5.719 0.244
65.6518 5.042 0.229
65.6723 5.083 0.230
65.6928 4.510 0.217
65.7132 4.823 0.224
65.7337 4.615 0.219
65.7542 4.490 0.216
65.7746 4.896 0.226
65.7951 4.604 0.219
65.8155 5.302 0.235
65.8360 4.469 0.216
65.8565 4.313 0.212
65.8769 4.146 0.208
65.8974 4.292 0.211
65.9179 4.427 0.215
65.9383 3.958 0.203
65.9588 4.292 0.211
65.9792 4.406 0.214
65.9997 4.271 0.211
66.0202 4.271 0.211
66.0406 4.208 0.209
66.0611 3.948 0.203
66.0816 3.896 0.201
66.1020 4.063 0.206
66.1225 4.156 0.208
66.1430 3.802 0.199
66.1634 3.854 0.200
66.1839 4.073 0.206
66.2043 3.844 0.200
66.2248 4.292 0.211
66.2453 3.792 0.199
66.2657 3.729 0.197
66.2862 3.927 0.202
66.3067 3.823 0.200
66.3271 3.958 0.203
66.3476 4.281 0.211
66.3680 4.135 0.208
66.3885 4.167 0.208
66.4090 3.583 0.193
66.4294 3.656 0.195
66.4499 3.844 0.200
66.4704 3.792 0.199
66.4908 3.542 0.192
66.5113 3.802 0.199
66.5317 3.698 0.196
66.5522 3.823 0.200
66.5727 3.969 0.203
66.5931 3.990 0.204
66.6136 3.802 0.199
66.6341 3.635 0.195
66.6545 3.813 0.199
66.6750 3.760 0.198
66.6954 3.875 0.201
66.7159 3.740 0.197
66.7364 3.885 0.201
66.7568 3.979 0.204
66.7773 4.115 0.207
66.7978 3.563 0.193
66.8182 3.740 0.197
66.8387 3.885 0.201
66.8591 3.833 0.200
66.8796 4.052 0.205
66.9001 3.990 0.204
66.9205 4.115 0.207
66.9410 3.813 0.199
66.9615 3.958 0.203
66.9819 4.135 0.208
67.0024 3.719 0.197
67.0229 4.594 0.219
67.0433 4.135 0.208
67.0638 4.417 0.214
67.0842 4.323 0.212
67.1047 4.531 0.217
67.1252 4.823 0.224
67.1456 4.708 0.221
67.1661 5.333 0.236
67.1866 5.344 0.236
67.2070 5.833 0.247
67.2275 6.219 0.255
67.2479 6.448 0.259
67.2684 7.073 0.271
67.2889 7.677 0.283
67.3093 7.865 0.286
67.3298 7.292 0.276
67.3503 8.438 0.296
67.3707 7.688 0.283
67.3912 7.573 0.281
67.4116 7.000 0.270
67.4321 6.990 0.270
67.4526 6.646 0.263
67.4730 6.698 0.264
67.4935 6.500 0.260
67.5140 7.083 0.272
67.5344 6.344 0.257
67.5549 5.802 0.246
67.5753 6.021 0.250
67.5958 5.635 0.242
67.6163 5.448 0.238
67.6367 4.948 0.227
67.6572 4.906 0.226
67.6777 4.583 0.219
67.6981 4.885 0.226
67.7186 5.021 0.229
67.7391 4.615 0.219
67.7595 4.740 0.222
67.7800 4.604 0.219
67.8004 4.927 0.227
67.8209 5.073 0.230
67.8414 4.135 0.208
67.8618 4.104 0.207
67.8823 4.479 0.216
67.9028 4.292 0.211
67.9232 4.021 0.205
67.9437 3.760 0.198
67.9641 3.958 0.203
67.9846 4.271 0.211
68.0051 3.917 0.202
68.0255 4.219 0.210
68.0460 4.427 0.215
68.0665 4.198 0.209
68.0869 4.323 0.212
68.1074 3.885 0.201
68.1278 3.750 0.198
68.1483 3.896 0.201
68.1688 4.417 0.214
68.1892 4.031 0.205
68.2097 4.177 0.209
68.2302 4.406 0.214
68.2506 4.156 0.208
68.2711 4.271 0.211
68.2915 4.188 0.209
68.3120 4.865 0.225
68.3325 4.563 0.218
68.3529 4.927 0.227
68.3734 4.875 0.225
68.3939 5.375 0.237
68.4143 4.917 0.226
68.4348 4.875 0.225
68.4552 4.802 0.224
68.4757 4.188 0.209
68.4962 4.677 0.221
68.5166 4.646 0.220
68.5371 4.198 0.209
68.5576 4.375 0.213
68.5780 4.677 0.221
68.5985 4.406 0.214
68.6190 4.240 0.210
68.6394 4.583 0.219
68.6599 4.281 0.211
68.6803 4.146 0.208
68.7008 3.906 0.202
68.7213 3.667 0.195
68.7417 3.885 0.201
68.7622 3.615 0.194
68.7827 3.583 0.193
68.8031 4.250 0.210
68.8236 3.646 0.195
68.8440 3.698 0.196
68.8645 3.490 0.191
68.8850 3.458 0.190
68.9054 3.469 0.190
68.9259 3.531 0.192
68.9464 3.698 0.196
68.9668 3.510 0.191
68.9873 3.521 0.192
69.0077 3.875 0.201
69.0282 3.927 0.202
69.0487 3.948 0.203
69.0691 3.990 0.204
69.0896 3.896 0.201
69.1101 4.083 0.206
69.1305 4.521 0.217
69.1510 4.281 0.211
69.1714 4.281 0.211
69.1919 4.615 0.219
69.2124 4.802 0.224
69.2328 4.917 0.226
69.2533 5.188 0.232
69.2738 6.021 0.250
69.2942 5.792 0.246
69.3147 5.667 0.243
69.3351 5.094 0.230
69.3556 5.073 0.230
69.3761 4.969 0.228
69.3965 4.948 0.227
69.4170 4.729 0.222
69.4375 4.521 0.217
69.4579 4.729 0.222
69.4784 4.740 0.222
69.4989 4.740 0.222
69.5193 4.458 0.216
69.5398 4.438 0.215
69.5602 4.167 0.208
69.5807 3.833 0.200
69.6012 3.896 0.201
69.6216 3.823 0.200
69.6421 3.375 0.188
69.6626 3.375 0.188
69.6830 3.573 0.193
69.7035 3.083 0.179
69.7239 3.406 0.188
69.7444 3.177 0.182
69.7649 3.104 0.180
69.7853 3.406 0.188
69.8058 3.396 0.188
69.8263 3.292 0.185
69.8467 3.229 0.183
69.8672 2.875 0.173
69.8876 3.396 0.188
69.9081 3.250 0.184
69.9286 3.646 0.195
69.9490 3.625 0.194
69.9695 3.240 0.184
69.9900 3.583 0.193
70.0104 3.135 0.181
70.0309 3.500 0.191
70.0513 3.594 0.193
70.0718 3.354 0.187
70.0923 3.406 0.188
70.1127 3.729 0.197
70.1332 3.354 0.187
70.1537 3.219 0.183
70.1741 3.406 0.188
70.1946 3.510 0.191
70.2150 3.448 0.190
70.2355 3.125 0.180
70.2560 3.490 0.191
70.2764 3.688 0.196
70.2969 3.250 0.184
70.3174 3.313 0.186
70.3378 3.469 0.190
70.3583 3.688 0.196
70.3788 3.260 0.184
70.3992 3.417 0.189
70.4197 3.198 0.183
70.4401 3.656 0.195
70.4606 3.323 0.186
70.4811 3.083 0.179
70.5015 3.167 0.182
70.5220 3.563 0.193
70.5425 3.271 0.185
70.5629 3.344 0.187
70.5834 3.375 0.188
70.6038 3.646 0.195
70.6243 3.146 0.181
70.6448 3.375 0.188
70.6652 3.188 0.182
70.6857 3.146 0.181
70.7062 3.188 0.182
70.7266 3.167 0.182
70.7471 3.260 0.184
70.7675 3.385 0.188
70.7880 3.500 0.191
70.8085 2.833 0.172
70.8289 3.271 0.185
70.8494 3.250 0.184
70.8699 3.104 0.180
70.8903 3.167 0.182
70.9108 3.292 0.185
70.9312 3.344 0.187
70.9517 3.219 0.183
70.9722 3.031 0.178
70.9926 3.083 0.179
71.0131 3.094 0.180
71.0336 3.240 0.184
71.0540 2.969 0.176
71.0745 2.813 0.171
71.0949 2.917 0.174
71.1154 3.094 0.180
71.1359 3.406 0.188
71.1563 3.219 0.183
71.1768 3.135 0.181
71.1973 3.250 0.184
71.2177 2.948 0.175
71.2382 3.448 0.190
71.2587 3.677 0.196
71.2791 3.094 0.180
71.2996 3.281 0.185
71.3200 3.479 0.190
71.3405 3.490 0.191
71.3610 3.365 0.187
71.3814 3.698 0.196
71.4019 3.625 0.194
71.4224 3.219 0.183
71.4428 3.073 0.179
71.4633 3.083 0.179
71.4837 3.323 0.186
71.5042 3.365 0.187
71.5247 2.885 0.173
71.5451 3.146 0.181
71.5656 3.208 0.183
71.5861 2.792 0.171
71.6065 3.573 0.193
71.6270 3.115 0.180
71.6474 2.927 0.175
71.6679 2.906 0.174
71.6884 2.938 0.175
71.7088 3.125 0.180
71.7293 2.573 0.164
71.7498 2.802 0.171
71.7702 3.073 0.179
71.7907 2.917 0.174
71.8111 3.031 0.178
71.8316 3.135 0.181
71.8521 3.000 0.177
71.8725 2.708 0.168
71.8930 2.844 0.172
71.9135 3.021 0.177
71.9339 2.802 0.171
71.9544 3.208 0.183
71.9749 2.958 0.176
71.9953 2.875 0.173
72.0158 3.000 0.177
72.0362 2.875 0.173
72.0567 2.667 0.167
72.0772 2.875 0.173
72.0976 2.958 0.176
72.1181 3.000 0.177
72.1386 2.792 0.171
72.1590 2.729 0.169
72.1795 3.094 0.180
72.1999 3.219 0.183
72.2204 2.698 0.168
72.2409 2.823 0.171
72.2613 2.875 0.173
72.2818 2.979 0.176
72.3023 3.021 0.177
72.3227 3.125 0.180
72.3432 2.740 0.169
72.3636 2.948 0.175
72.3841 2.844 0.172
72.4046 2.958 0.176
72.4250 2.979 0.176
72.4455 3.208 0.183
72.4660 3.375 0.188
72.4864 2.844 0.172
72.5069 2.833 0.172
72.5273 2.854 0.172
72.5478 2.906 0.174
72.5683 3.177 0.182
72.5887 2.635 0.166
72.6092 2.688 0.167
72.6297 3.010 0.177
72.6501 2.990 0.176
72.6706 3.115 0.180
72.6910 3.042 0.178
72.7115 2.698 0.168
72.7320 2.729 0.169
72.7524 2.615 0.165
72.7729 2.594 0.164
72.7934 2.958 0.176
72.8138 2.979 0.176
72.8343 3.219 0.183
72.8548 3.146 0.181
72.8752 3.094 0.180
72.8957 3.417 0.189
72.9161 3.375 0.188
72.9366 3.677 0.196
72.9571 3.573 0.193
72.9775 3.271 0.185
72.9980 3.146 0.181
73.0185 3.521 0.192
73.0389 3.125 0.180
73.0594 2.979 0.176
73.0798 3.104 0.180
73.1003 3.083 0.179
73.1208 2.969 0.176
73.1412 3.135 0.181
73.1617 3.042 0.178
73.1822 2.792 0.171
73.2026 3.219 0.183
73.2231 3.271 0.185
73.2435 2.802 0.171
73.2640 3.073 0.179
73.2845 2.740 0.169
73.3049 2.740 0.169
73.3254 2.771 0.170
73.3459 2.865 0.173
73.3663 2.948 0.175
73.3868 2.615 0.165
73.4072 2.740 0.169
73.4277 2.656 0.166
73.4482 2.760 0.170
73.4686 2.896 0.174
73.4891 3.063 0.179
73.5096 2.865 0.173
73.5300 2.740 0.169
73.5505 2.813 0.171
73.5709 2.594 0.164
73.5914 2.417 0.159
73.6119 2.625 0.165
73.6323 2.813 0.171
73.6528 2.677 0.167
73.6733 2.688 0.167
73.6937 2.604 0.165
73.7142 3.063 0.179
73.7347 2.625 0.165
73.7551 2.635 0.166
73.7756 2.458 0.160
73.7960 2.927 0.175
73.8165 2.990 0.176
73.8370 2.604 0.165
73.8574 2.750 0.169
73.8779 2.740 0.169
73.8984 2.542 0.163
73.9188 2.740 0.169
73.9393 2.813 0.171
73.9597 3.010 0.177
73.9802 2.885 0.173
74.0007 3.042 0.178
74.0211 2.531 0.162
74.0416 2.802 0.171
74.0621 2.750 0.169
74.0825 2.969 0.176
74.1030 2.896 0.174
74.1234 3.010 0.177
74.1439 2.969 0.176
74.1644 2.708 0.168
74.1848 2.917 0.174
74.2053 2.563 0.163
74.2258 2.948 0.175
74.2462 2.844 0.172
74.2667 2.656 0.166
74.2871 2.844 0.172
74.3076 2.875 0.173
74.3281 2.823 0.171
74.3485 2.844 0.172
74.3690 3.000 0.177
74.3895 3.021 0.177
74.4099 2.969 0.176
74.4304 3.073 0.179
74.4508 2.938 0.175
74.4713 2.688 0.167
74.4918 2.823 0.171
74.5122 2.656 0.166
74.5327 2.531 0.162
74.5532 2.781 0.170
74.5736 2.688 0.167
74.5941 2.844 0.172
74.6146 2.854 0.172
74.6350 2.563 0.163
74.6555 2.677 0.167
74.6759 2.885 0.173
74.6964 2.625 0.165
74.7169 2.500 0.161
74.7373 2.563 0.163
74.7578 2.750 0.169
74.7783 2.531 0.162
74.7987 2.698 0.168
74.8192 2.792 0.171
74.8396 2.583 0.164
74.8601 2.573 0.164
74.8806 2.469 0.160
74.9010 2.750 0.169
74.9215 2.833 0.172
74.9420 2.729 0.169
74.9624 2.542 0.163
74.9829 2.854 0.172
75.0033 2.479 0.161
75.0238 2.625 0.165
75.0443 2.625 0.165
75.0647 2.635 0.166
75.0852 2.823 0.171
75.1057 2.906 0.174
75.1261 2.802 0.171
75.1466 2.385 0.158
75.1670 2.719 0.168
75.1875 2.760 0.170
75.2080 2.604 0.165
75.2284 2.542 0.163
75.2489 2.635 0.166
75.2694 2.667 0.167
75.2898 2.719 0.168
75.3103 2.594 0.164
75.3307 2.625 0.165
75.3512 2.760 0.170
75.3717 2.750 0.169
75.3921 2.865 0.173
75.4126 2.615 0.165
75.4331 2.792 0.171
75.4535 2.844 0.172
75.4740 2.760 0.170
75.4945 2.656 0.166
75.5149 2.688 0.167
75.5354 2.583 0.164
75.5558 3.031 0.178
75.5763 2.979 0.176
75.5968 2.688 0.167
75.6172 2.865 0.173
75.6377 2.573 0.164
75.6582 2.448 0.160
75.6786 3.125 0.180
75.6991 2.948 0.175
75.7195 3.052 0.178
75.7400 2.781 0.170
75.7605 3.208 0.183
75.7809 3.115 0.180
75.8014 2.979 0.176
75.8219 3.083 0.179
75.8423 3.021 0.177
75.8628 3.406 0.188
75.8832 3.167 0.182
75.9037 3.573 0.193
75.9242 3.417 0.189
75.9446 4.052 0.205
75.9651 3.979 0.204
75.9856 4.104 0.207
76.0060 4.396 0.214
76.0265 4.396 0.214
76.0469 4.146 0.208
76.0674 4.021 0.205
76.0879 3.906 0.202
76.1083 3.646 0.195
76.1288 3.583 0.193
76.1493 4.021 0.205
76.1697 3.813 0.199
76.1902 3.656 0.195
76.2106 3.615 0.194
76.2311 3.823 0.200
76.2516 3.208 0.183
76.2720 3.458 0.190
76.2925 3.458 0.190
76.3130 3.479 0.190
76.3334 3.573 0.193
76.3539 2.875 0.173
76.3744 3.083 0.179
76.3948 3.115 0.180
76.4153 2.760 0.170
76.4357 2.823 0.171
76.4562 3.260 0.184
76.4767 3.115 0.180
76.4971 2.865 0.173
76.5176 2.979 0.176
76.5381 2.865 0.173
76.5585 2.969 0.176
76.5790 2.750 0.169
76.5994 2.958 0.176
76.6199 2.729 0.169
76.6404 2.823 0.171
76.6608 2.646 0.166
76.6813 3.000 0.177
76.7018 2.833 0.172
76.7222 2.750 0.169
76.7427 2.875 0.173
76.7631 2.729 0.169
76.7836 2.469 0.160
76.8041 2.573 0.164
76.8245 2.771 0.170
76.8450 2.344 0.156
76.8655 2.833 0.172
76.8859 2.677 0.167
76.9064 2.854 0.172
76.9268 2.927 0.175
76.9473 2.750 0.169
76.9678 3.115 0.180
76.9882 2.833 0.172
77.0087 2.615 0.165
77.0292 2.979 0.176
77.0496 2.708 0.168
77.0701 2.406 0.158
77.0906 2.135 0.149
77.1110 2.854 0.172
77.1315 2.281 0.154
77.1519 2.854 0.172
77.1724 2.677 0.167
77.1929 2.740 0.169
77.2133 2.813 0.171
77.2338 2.438 0.159
77.2543 2.438 0.159
77.2747 2.833 0.172
77.2952 2.677 0.167
77.3156 2.729 0.169
77.3361 2.448 0.160
77.3566 2.896 0.174
77.3770 2.865 0.173
77.3975 2.813 0.171
77.4180 3.031 0.178
77.4384 2.552 0.163
77.4589 3.167 0.182
77.4793 3.073 0.179
77.4998 2.750 0.169
77.5203 2.865 0.173
77.5407 3.146 0.181
77.5612 3.302 0.185
77.5817 3.188 0.182
77.6021 3.531 0.192
77.6226 3.271 0.185
77.6430 3.552 0.192
77.6635 3.667 0.195
77.6840 3.448 0.190
77.7044 3.438 0.189
77.7249 3.146 0.181
77.7454 3.406 0.188
77.7658 3.375 0.188
77.7863 3.083 0.179
77.8067 3.417 0.189
77.8272 3.594 0.193
77.8477 3.531 0.192
77.8681 3.813 0.199
77.8886 3.635 0.195
77.9091 3.646 0.195
77.9295 3.427 0.189
77.9500 3.125 0.180
77.9705 3.302 0.185
77.9909 3.365 0.187
78.0114 3.479 0.190
78.0318 3.177 0.182
78.0523 3.188 0.182
78.0728 3.375 0.188
78.0932 3.063 0.179
78.1137 3.281 0.185
78.1342 3.208 0.183
78.1546 3.313 0.186
78.1751 2.927 0.175
78.1955 3.271 0.185
78.2160 2.917 0.174
78.2365 3.083 0.179
78.2569 3.094 0.180
78.2774 3.188 0.182
78.2979 2.688 0.167
78.3183 2.885 0.173
78.3388 2.938 0.175
78.3592 3.052 0.178
78.3797 2.875 0.173
78.4002 3.406 0.188
78.4206 2.823 0.171
78.4411 2.906 0.174
78.4616 3.000 0.177
78.4820 2.813 0.171
78.5025 3.042 0.178
78.5229 2.583 0.164
78.5434 2.875 0.173
78.5639 3.042 0.178
78.5843 3.042 0.178
78.6048 3.188 0.182
78.6253 3.656 0.195
78.6457 3.010 0.177
78.6662 3.333 0.186
78.6866 3.052 0.178
78.7071 3.042 0.178
78.7276 3.167 0.182
78.7480 3.115 0.180
78.7685 3.344 0.187
78.7890 2.990 0.176
78.8094 3.146 0.181
78.8299 3.156 0.181
78.8504 2.771 0.170
78.8708 3.073 0.179
78.8913 3.438 0.189
78.9117 3.073 0.179
78.9322 3.219 0.183
78.9527 2.979 0.176
78.9731 3.344 0.187
78.9936 2.885 0.173
79.0141 2.833 0.172
79.0345 3.031 0.178
79.0550 3.000 0.177
79.0754 2.802 0.171
79.0959 2.979 0.176
79.1164 2.854 0.172
79.1368 3.125 0.180
79.1573 3.198 0.183
79.1778 2.979 0.176
79.1982 2.885 0.173
79.2187 3.281 0.185
79.2391 3.177 0.182
79.2596 2.865 0.173
79.2801 2.823 0.171
79.3005 3.125 0.180
79.3210 3.073 0.179
79.3415 3.375 0.188
79.3619 3.042 0.178
79.3824 3.125 0.180
79.4028 2.969 0.176
79.4233 3.354 0.187
79.4438 2.938 0.175
79.4642 3.198 0.183
79.4847 3.094 0.180
79.5052 2.896 0.174
79.5256 3.281 0.185
79.5461 3.292 0.185
79.5665 3.240 0.184
79.5870 3.208 0.183
79.6075 2.938 0.175
79.6279 3.250 0.184
79.6484 3.375 0.188
79.6689 3.927 0.202
79.6893 3.073 0.179
79.7098 3.563 0.193
79.7303 3.542 0.192
79.7507 3.188 0.182
79.7712 3.427 0.189
79.7916 3.438 0.189
79.8121 3.396 0.188
79.8326 2.917 0.174
79.8530 2.875 0.173
79.8735 3.385 0.188
79.8940 3.563 0.193
79.9144 3.510 0.191
79.9349 3.083 0.179
79.9553 3.198 0.183
79.9758 3.156 0.181
79.9963 3.208 0.183
