'Id: "" Comment: "" Operator: "Lab Manager" Anode: "Cu" Scantype: "Locked Coupled" TimePerStep: "96" X: "0" Y: "0" Z: "0" 
5.0001 38.250 0.631
5.0206 38.719 0.635
5.0410 38.656 0.635
5.0615 39.021 0.638
5.0820 39.302 0.640
5.1024 37.469 0.625
5.1229 37.646 0.626
5.1433 38.125 0.630
5.1638 37.781 0.627
5.1843 37.417 0.624
5.2047 37.802 0.628
5.2252 37.094 0.622
5.2457 36.917 0.620
5.2661 37.969 0.629
5.2866 35.802 0.611
5.3070 36.531 0.617
5.3275 36.417 0.616
5.3480 36.198 0.614
5.3684 35.917 0.612
5.3889 37.208 0.623
5.4094 35.979 0.612
5.4298 34.854 0.603
5.4503 34.292 0.598
5.4707 36.250 0.614
5.4912 36.500 0.617
5.5117 35.375 0.607
5.5321 34.969 0.604
5.5526 35.156 0.605
5.5731 35.219 0.606
5.5935 34.906 0.603
5.6140 34.677 0.601
5.6344 36.417 0.616
5.6549 34.635 0.601
5.6754 33.740 0.593
5.6958 34.573 0.600
5.7163 33.521 0.591
5.7368 33.990 0.595
5.7572 34.490 0.599
5.7777 34.135 0.596
5.7981 33.844 0.594
5.8186 32.854 0.585
5.8391 33.104 0.587
5.8595 33.313 0.589
5.8800 33.271 0.589
5.9005 33.510 0.591
5.9209 32.792 0.584
5.9414 33.146 0.588
5.9619 31.521 0.573
5.9823 32.292 0.580
6.0028 32.656 0.583
6.0232 32.677 0.583
6.0437 31.604 0.574
6.0642 30.979 0.568
6.0846 33.396 0.590
6.1051 32.865 0.585
6.1256 31.260 0.571
6.1460 31.188 0.570
6.1665 31.510 0.573
6.1869 30.396 0.563
6.2074 30.479 0.563
6.2279 30.417 0.563
6.2483 31.219 0.570
6.2688 31.292 0.571
6.2893 30.990 0.568
6.3097 30.479 0.563
6.3302 28.760 0.547
6.3506 30.438 0.563
6.3711 29.719 0.556
6.3916 30.365 0.562
6.4120 30.500 0.564
6.4325 29.896 0.558
6.4530 28.885 0.549
6.4734 29.594 0.555
6.4939 29.031 0.550
6.5143 29.313 0.553
6.5348 28.156 0.542
6.5553 27.615 0.536
6.5757 28.885 0.549
6.5962 29.396 0.553
6.6167 29.510 0.554
6.6371 27.573 0.536
6.6576 27.990 0.540
6.6780 28.479 0.545
6.6985 28.219 0.542
6.7190 28.563 0.545
6.7394 27.135 0.532
6.7599 27.333 0.534
6.7804 26.469 0.525
6.8008 28.396 0.544
6.8213 26.667 0.527
6.8418 26.396 0.524
6.8622 27.229 0.533
6.8827 26.823 0.529
6.9031 28.010 0.540
6.9236 26.271 0.523
6.9441 26.271 0.523
6.9645 26.219 0.523
6.9850 26.354 0.524
7.0055 26.729 0.528
7.0259 25.573 0.516
7.0464 25.427 0.515
7.0668 26.146 0.522
7.0873 25.615 0.517
7.1078 24.771 0.508
7.1282 25.104 0.511
7.1487 25.500 0.515
7.1692 24.969 0.510
7.1896 25.667 0.517
7.2101 23.833 0.498
7.2305 24.823 0.508
7.2510 25.240 0.513
7.2715 24.417 0.504
7.2919 24.115 0.501
7.3124 23.677 0.497
7.3329 24.063 0.501
7.3533 23.906 0.499
7.3738 23.583 0.496
7.3942 23.896 0.499
7.4147 23.156 0.491
7.4352 23.667 0.497
7.4556 23.813 0.498
7.4761 23.365 0.493
7.4966 23.490 0.495
7.5170 23.208 0.492
7.5375 23.000 0.489
7.5580 23.323 0.493
7.5784 22.948 0.489
7.5989 24.021 0.500
7.6193 22.583 0.485
7.6398 23.531 0.495
7.6603 22.573 0.485
7.6807 22.552 0.485
7.7012 22.979 0.489
7.7217 22.917 0.489
7.7421 22.604 0.485
7.7626 22.521 0.484
7.7830 21.969 0.478
7.8035 22.438 0.483
7.8240 21.844 0.477
7.8444 22.458 0.484
7.8649 22.073 0.480
7.8854 21.438 0.473
7.9058 21.979 0.478
7.9263 22.125 0.480
7.9467 21.323 0.471
7.9672 21.667 0.475
7.9877 21.823 0.477
8.0081 21.875 0.477
8.0286 21.198 0.470
8.0491 21.292 0.471
8.0695 21.479 0.473
8.0900 21.813 0.477
8.1104 21.573 0.474
8.1309 20.917 0.467
8.1514 20.615 0.463
8.1718 21.333 0.471
8.1923 22.292 0.482
8.2128 20.427 0.461
8.2332 21.177 0.470
8.2537 21.552 0.474
8.2741 21.604 0.474
8.2946 21.677 0.475
8.3151 20.375 0.461
8.3355 20.490 0.462
8.3560 20.229 0.459
8.3765 21.073 0.469
8.3969 20.302 0.460
8.4174 20.563 0.463
8.4379 21.146 0.469
8.4583 20.990 0.468
8.4788 20.135 0.458
8.4992 20.729 0.465
8.5197 20.531 0.462
8.5402 20.583 0.463
8.5606 20.198 0.459
8.5811 20.875 0.466
8.6016 20.698 0.464
8.6220 19.823 0.454
8.6425 20.250 0.459
8.6629 20.354 0.460
8.6834 20.896 0.467
8.7039 20.083 0.457
8.7243 20.167 0.458
8.7448 19.667 0.453
8.7653 20.229 0.459
8.7857 20.031 0.457
8.8062 19.917 0.455
8.8266 19.938 0.456
8.8471 20.042 0.457
8.8676 20.458 0.462
8.8880 20.740 0.465
8.9085 21.104 0.469
8.9290 21.167 0.470
8.9494 20.677 0.464
8.9699 21.521 0.473
8.9903 21.396 0.472
9.0108 20.260 0.459
9.0313 21.281 0.471
9.0517 22.646 0.486
9.0722 21.552 0.474
9.0927 21.521 0.473
9.1131 22.531 0.484
9.1336 22.896 0.488
9.1540 22.135 0.480
9.1745 23.323 0.493
9.1950 23.271 0.492
9.2154 22.729 0.487
9.2359 21.177 0.470
9.2564 22.188 0.481
9.2768 21.125 0.469
9.2973 20.469 0.462
9.3178 20.688 0.464
9.3382 20.885 0.466
9.3587 19.958 0.456
9.3791 20.135 0.458
9.3996 20.604 0.463
9.4201 20.865 0.466
9.4405 19.469 0.450
9.4610 20.188 0.459
9.4815 20.156 0.458
9.5019 19.969 0.456
9.5224 20.406 0.461
9.5428 19.417 0.450
9.5633 19.927 0.456
9.5838 20.302 0.460
9.6042 20.260 0.459
9.6247 20.229 0.459
9.6452 20.031 0.457
9.6656 20.635 0.464
9.6861 19.375 0.449
9.7065 20.125 0.458
9.7270 21.240 0.470
9.7475 20.281 0.460
9.7679 20.542 0.463
9.7884 21.042 0.468
9.8089 19.750 0.454
9.8293 20.198 0.459
9.8498 19.740 0.453
9.8702 19.479 0.450
9.8907 20.000 0.456
9.9112 19.635 0.452
9.9316 20.396 0.461
9.9521 21.073 0.469
9.9726 20.156 0.458
9.9930 19.521 0.451
10.0135 21.073 0.469
10.0339 20.500 0.462
10.0544 20.479 0.462
10.0749 20.063 0.457
10.0953 20.583 0.463
10.1158 20.885 0.466
10.1363 20.677 0.464
10.1567 20.750 0.465
10.1772 20.313 0.460
10.1977 20.052 0.457
10.2181 20.260 0.459
10.2386 21.042 0.468
10.2590 20.302 0.460
10.2795 21.604 0.474
10.3000 21.083 0.469
10.3204 21.323 0.471
10.3409 21.094 0.469
10.3614 21.594 0.474
10.3818 20.354 0.460
10.4023 21.510 0.473
10.4227 21.667 0.475
10.4432 21.927 0.478
10.4637 21.271 0.471
10.4841 21.781 0.476
10.5046 21.427 0.472
10.5251 22.240 0.481
10.5455 22.740 0.487
10.5660 22.208 0.481
10.5864 23.000 0.489
10.6069 21.750 0.476
10.6274 21.875 0.477
10.6478 22.271 0.482
10.6683 22.427 0.483
10.6888 22.781 0.487
10.7092 21.896 0.478
10.7297 22.406 0.483
10.7501 22.938 0.489
10.7706 23.708 0.497
10.7911 23.385 0.494
10.8115 22.688 0.486
10.8320 23.083 0.490
10.8525 23.708 0.497
10.8729 22.427 0.483
10.8934 22.427 0.483
10.9138 23.021 0.490
10.9343 22.885 0.488
10.9548 23.094 0.490
10.9752 22.604 0.485
10.9957 23.031 0.490
11.0162 21.979 0.478
11.0366 22.698 0.486
11.0571 21.771 0.476
11.0776 22.656 0.486
11.0980 22.188 0.481
11.1185 23.260 0.492
11.1389 21.979 0.478
11.1594 22.854 0.488
11.1799 23.177 0.491
11.2003 22.802 0.487
11.2208 22.396 0.483
11.2413 23.104 0.491
11.2617 23.229 0.492
11.2822 23.354 0.493
11.3026 22.906 0.488
11.3231 22.833 0.488
11.3436 21.563 0.474
11.3640 22.917 0.489
11.3845 23.698 0.497
11.4050 22.646 0.486
11.4254 22.031 0.479
11.4459 22.813 0.487
11.4663 23.177 0.491
11.4868 23.313 0.493
11.5073 24.052 0.501
11.5277 23.104 0.491
11.5482 23.094 0.490
11.5687 24.177 0.502
11.5891 24.583 0.506
11.6096 23.604 0.496
11.6300 24.000 0.500
11.6505 24.135 0.501
11.6710 25.167 0.512
11.6914 25.833 0.519
11.7119 26.146 0.522
11.7324 26.125 0.522
11.7528 25.906 0.519
11.7733 26.219 0.523
11.7938 25.073 0.511
11.8142 23.115 0.491
11.8347 22.625 0.485
11.8551 20.771 0.465
11.8756 21.771 0.476
11.8961 21.333 0.471
11.9165 21.552 0.474
11.9370 20.438 0.461
11.9575 20.979 0.467
11.9779 21.667 0.475
11.9984 20.938 0.467
12.0188 21.010 0.468
12.0393 21.635 0.475
12.0598 20.938 0.467
12.0802 20.573 0.463
12.1007 21.698 0.475
12.1212 21.417 0.472
12.1416 22.010 0.479
12.1621 21.708 0.476
12.1825 21.708 0.476
12.2030 21.198 0.470
12.2235 21.479 0.473
12.2439 20.969 0.467
12.2644 21.365 0.472
12.2849 19.698 0.453
12.3053 19.510 0.451
12.3258 19.917 0.455
12.3462 19.458 0.450
12.3667 19.781 0.454
12.3872 19.802 0.454
12.4076 19.448 0.450
12.4281 18.500 0.439
12.4486 19.823 0.454
12.4690 19.917 0.455
12.4895 19.427 0.450
12.5099 18.156 0.435
12.5304 19.375 0.449
12.5509 19.250 0.448
12.5713 18.490 0.439
12.5918 19.635 0.452
12.6123 18.708 0.441
12.6327 19.427 0.450
12.6532 19.375 0.449
12.6737 19.438 0.450
12.6941 19.198 0.447
12.7146 19.042 0.445
12.7350 18.719 0.442
12.7555 19.104 0.446
12.7760 19.177 0.447
12.7964 19.469 0.450
12.8169 19.219 0.447
12.8374 19.406 0.450
12.8578 19.135 0.446
12.8783 19.531 0.451
12.8987 19.188 0.447
12.9192 18.677 0.441
12.9397 18.844 0.443
12.9601 18.135 0.435
12.9806 19.177 0.447
13.0011 19.510 0.451
13.0215 19.365 0.449
13.0420 19.281 0.448
13.0624 19.146 0.447
13.0829 18.604 0.440
13.1034 18.896 0.444
13.1238 18.823 0.443
13.1443 18.292 0.437
13.1648 18.344 0.437
13.1852 18.375 0.438
13.2057 19.115 0.446
13.2261 17.927 0.432
13.2466 18.438 0.438
13.2671 18.010 0.433
13.2875 18.302 0.437
13.3080 18.448 0.438
13.3285 18.521 0.439
13.3489 17.583 0.428
13.3694 19.292 0.448
13.3898 18.260 0.436
13.4103 17.667 0.429
13.4308 18.500 0.439
13.4512 17.385 0.426
13.4717 18.833 0.443
13.4922 18.396 0.438
13.5126 17.927 0.432
13.5331 18.000 0.433
13.5536 17.052 0.421
13.5740 17.698 0.429
13.5945 18.083 0.434
13.6149 17.802 0.431
13.6354 18.219 0.436
13.6559 17.531 0.427
13.6763 18.646 0.441
13.6968 18.906 0.444
13.7173 18.083 0.434
13.7377 18.083 0.434
13.7582 17.667 0.429
13.7786 17.698 0.429
13.7991 17.552 0.428
13.8196 18.458 0.438
13.8400 18.135 0.435
13.8605 17.781 0.430
13.8810 17.646 0.429
13.9014 18.000 0.433
13.9219 17.958 0.433
13.9423 17.583 0.428
13.9628 17.677 0.429
13.9833 17.177 0.423
14.0037 17.615 0.428
14.0242 17.156 0.423
14.0447 17.250 0.424
14.0651 18.240 0.436
14.0856 17.646 0.429
14.1060 16.979 0.421
14.1265 18.052 0.434
14.1470 17.365 0.425
14.1674 16.906 0.420
14.1879 17.792 0.430
14.2084 16.885 0.419
14.2288 18.365 0.437
14.2493 17.177 0.423
14.2697 17.844 0.431
14.2902 16.490 0.414
14.3107 16.875 0.419
14.3311 18.500 0.439
14.3516 16.906 0.420
14.3721 17.333 0.425
14.3925 17.073 0.422
14.4130 17.427 0.426
14.4335 17.313 0.425
14.4539 16.594 0.416
14.4744 17.135 0.422
14.4948 18.198 0.435
14.5153 17.271 0.424
14.5358 17.177 0.423
14.5562 17.135 0.422
14.5767 17.542 0.427
14.5972 16.979 0.421
14.6176 17.396 0.426
14.6381 16.792 0.418
14.6585 16.750 0.418
14.6790 16.906 0.420
14.6995 17.354 0.425
14.7199 16.396 0.413
14.7404 17.521 0.427
14.7609 16.646 0.416
14.7813 17.604 0.428
14.8018 17.833 0.431
14.8222 17.281 0.424
14.8427 17.708 0.429
14.8632 16.802 0.418
14.8836 16.531 0.415
14.9041 17.385 0.426
14.9246 16.500 0.415
14.9450 16.729 0.417
14.9655 17.823 0.431
14.9859 17.760 0.430
15.0064 18.083 0.434
15.0269 16.552 0.415
15.0473 16.354 0.413
15.0678 17.083 0.422
15.0883 16.375 0.413
15.1087 17.073 0.422
15.1292 15.854 0.406
15.1496 16.667 0.417
15.1701 17.188 0.423
15.1906 16.323 0.412
15.2110 15.781 0.405
15.2315 16.104 0.410
15.2520 16.188 0.411
15.2724 16.969 0.420
15.2929 16.385 0.413
15.3134 16.365 0.413
15.3338 17.042 0.421
15.3543 16.844 0.419
15.3747 16.490 0.414
15.3952 16.594 0.416
15.4157 17.010 0.421
15.4361 16.719 0.417
15.4566 16.656 0.417
15.4771 16.208 0.411
15.4975 17.052 0.421
15.5180 16.813 0.418
15.5384 16.646 0.416
15.5589 16.385 0.413
15.5794 16.552 0.415
15.5998 16.677 0.417
15.6203 16.021 0.409
15.6408 16.865 0.419
15.6612 16.958 0.420
15.6817 16.292 0.412
15.7021 15.833 0.406
15.7226 17.021 0.421
15.7431 16.771 0.418
15.7635 17.823 0.431
15.7840 17.406 0.426
15.8045 17.729 0.430
15.8249 17.469 0.427
15.8454 17.115 0.422
15.8658 16.969 0.420
15.8863 17.625 0.428
15.9068 17.781 0.430
15.9272 17.010 0.421
15.9477 16.083 0.409
15.9682 16.615 0.416
15.9886 17.708 0.429
16.0091 17.104 0.422
16.0296 17.031 0.421
16.0500 16.396 0.413
16.0705 16.281 0.412
16.0909 17.646 0.429
16.1114 17.021 0.421
16.1319 16.875 0.419
16.1523 17.427 0.426
16.1728 17.188 0.423
16.1933 17.208 0.423
16.2137 17.417 0.426
16.2342 16.802 0.418
16.2546 17.000 0.421
16.2751 16.594 0.416
16.2956 16.875 0.419
16.3160 16.708 0.417
16.3365 16.302 0.412
16.3570 17.313 0.425
16.3774 17.688 0.429
16.3979 16.708 0.417
16.4183 16.271 0.412
16.4388 16.708 0.417
16.4593 16.542 0.415
16.4797 16.469 0.414
16.5002 16.521 0.415
16.5207 16.052 0.409
16.5411 16.958 0.420
16.5616 16.250 0.411
16.5820 16.656 0.417
16.6025 16.448 0.414
16.6230 16.698 0.417
16.6434 16.490 0.414
16.6639 16.792 0.418
16.6844 16.740 0.418
16.7048 17.656 0.429
16.7253 16.021 0.409
16.7457 17.115 0.422
16.7662 16.125 0.410
16.7867 16.406 0.413
16.8071 16.417 0.414
16.8276 16.781 0.418
16.8481 17.229 0.424
16.8685 17.146 0.423
16.8890 16.406 0.413
16.9095 16.313 0.412
16.9299 17.115 0.422
16.9504 17.385 0.426
16.9708 17.021 0.421
16.9913 16.969 0.420
17.0118 16.917 0.420
17.0322 16.813 0.418
17.0527 16.417 0.414
17.0732 16.740 0.418
17.0936 16.615 0.416
17.1141 16.552 0.415
17.1345 17.292 0.424
17.1550 17.000 0.421
17.1755 16.813 0.418
17.1959 16.427 0.414
17.2164 17.833 0.431
17.2369 16.573 0.415
17.2573 16.667 0.417
17.2778 16.979 0.421
17.2982 17.500 0.427
17.3187 16.896 0.420
17.3392 16.875 0.419
17.3596 16.792 0.418
17.3801 17.510 0.427
17.4006 16.885 0.419
17.4210 16.500 0.415
17.4415 16.385 0.413
17.4619 17.688 0.429
17.4824 16.667 0.417
17.5029 17.167 0.423
17.5233 17.260 0.424
17.5438 18.250 0.436
17.5643 18.240 0.436
17.5847 18.542 0.439
17.6052 17.771 0.430
17.6256 17.552 0.428
17.6461 18.063 0.434
17.6666 18.667 0.441
17.6870 17.302 0.425
17.7075 18.250 0.436
17.7280 19.208 0.447
17.7484 18.490 0.439
17.7689 19.417 0.450
17.7894 20.938 0.467
17.8098 21.833 0.477
17.8303 21.427 0.472
17.8507 23.781 0.498
17.8712 24.500 0.505
17.8917 25.896 0.519
17.9121 28.281 0.543
17.9326 33.938 0.595
17.9531 36.365 0.615
17.9735 40.646 0.651
17.9940 46.625 0.697
18.0144 62.094 0.804
18.0349 87.677 0.956
18.0554 113.573 1.088
18.0758 151.708 1.257
18.0963 227.052 1.538
18.1168 414.771 2.079
18.1372 391.177 2.019
18.1577 272.292 1.684
18.1781 217.521 1.505
18.1986 98.563 1.013
18.2191 45.781 0.691
18.2395 31.542 0.573
18.2600 26.510 0.525
18.2805 23.146 0.491
18.3009 23.844 0.498
18.3214 20.906 0.467
18.3418 20.552 0.463
18.3623 19.563 0.451
18.3828 18.938 0.444
18.4032 18.458 0.438
18.4237 17.990 0.433
18.4442 17.760 0.430
18.4646 17.844 0.431
18.4851 17.104 0.422
18.5055 17.740 0.430
18.5260 17.646 0.429
18.5465 17.958 0.433
18.5669 17.458 0.426
18.5874 17.479 0.427
18.6079 17.625 0.428
18.6283 17.406 0.426
18.6488 18.031 0.433
18.6693 17.604 0.428
18.6897 17.406 0.426
18.7102 17.427 0.426
18.7306 18.135 0.435
18.7511 18.115 0.434
18.7716 16.448 0.414
18.7920 16.854 0.419
18.8125 17.229 0.424
18.8330 17.021 0.421
18.8534 16.302 0.412
18.8739 17.531 0.427
18.8943 16.750 0.418
18.9148 17.354 0.425
18.9353 16.792 0.418
18.9557 17.969 0.433
18.9762 17.917 0.432
18.9967 17.698 0.429
19.0171 17.938 0.432
19.0376 17.396 0.426
19.0580 18.167 0.435
19.0785 18.219 0.436
19.0990 18.219 0.436
19.1194 18.729 0.442
19.1399 18.135 0.435
19.1604 16.854 0.419
19.1808 17.740 0.430
19.2013 16.729 0.417
19.2217 16.729 0.417
19.2422 17.510 0.427
19.2627 17.094 0.422
19.2831 17.104 0.422
19.3036 16.448 0.414
19.3241 17.240 0.424
19.3445 16.646 0.416
19.3650 16.375 0.413
19.3854 17.406 0.426
19.4059 17.115 0.422
19.4264 16.813 0.418
19.4468 16.000 0.408
19.4673 16.229 0.411
19.4878 16.406 0.413
19.5082 16.677 0.417
19.5287 16.427 0.414
19.5492 17.563 0.428
19.5696 16.740 0.418
19.5901 17.094 0.422
19.6105 16.146 0.410
19.6310 15.833 0.406
19.6515 16.594 0.416
19.6719 16.219 0.411
19.6924 16.667 0.417
19.7129 17.542 0.427
19.7333 16.406 0.413
19.7538 16.188 0.411
19.7742 16.396 0.413
19.7947 16.198 0.411
19.8152 15.958 0.408
19.8356 16.573 0.415
19.8561 16.938 0.420
19.8766 16.938 0.420
19.8970 16.271 0.412
19.9175 16.865 0.419
19.9379 16.677 0.417
19.9584 16.938 0.420
19.9789 16.438 0.414
19.9993 16.396 0.413
20.0198 16.656 0.417
20.0403 17.083 0.422
20.0607 17.135 0.422
20.0812 17.521 0.427
20.1016 16.500 0.415
20.1221 16.365 0.413
20.1426 16.479 0.414
20.1630 17.292 0.424
20.1835 16.500 0.415
20.2040 17.115 0.422
20.2244 16.406 0.413
20.2449 17.260 0.424
20.2654 16.604 0.416
20.2858 16.510 0.415
20.3063 16.979 0.421
20.3267 17.250 0.424
20.3472 17.177 0.423
20.3677 17.083 0.422
20.3881 16.906 0.420
20.4086 17.042 0.421
20.4291 17.010 0.421
20.4495 16.604 0.416
20.4700 17.208 0.423
20.4904 17.010 0.421
20.5109 15.958 0.408
20.5314 16.990 0.421
20.5518 16.698 0.417
20.5723 16.542 0.415
20.5928 16.469 0.414
20.6132 16.667 0.417
20.6337 15.990 0.408
20.6541 16.010 0.408
20.6746 16.271 0.412
20.6951 16.313 0.412
20.7155 16.531 0.415
20.7360 16.240 0.411
20.7565 16.667 0.417
20.7769 15.906 0.407
20.7974 17.010 0.421
20.8178 16.438 0.414
20.8383 16.417 0.414
20.8588 16.052 0.409
20.8792 15.979 0.408
20.8997 16.490 0.414
20.9202 16.188 0.411
20.9406 16.469 0.414
20.9611 17.281 0.424
20.9815 16.646 0.416
21.0020 16.063 0.409
21.0225 16.521 0.415
21.0429 15.875 0.407
21.0634 16.698 0.417
21.0839 16.604 0.416
21.1043 15.802 0.406
21.1248 17.031 0.421
21.1453 16.833 0.419
21.1657 17.010 0.421
21.1862 16.302 0.412
21.2066 16.750 0.418
21.2271 16.313 0.412
21.2476 16.510 0.415
21.2680 16.448 0.414
21.2885 16.333 0.412
21.3090 16.406 0.413
21.3294 16.021 0.409
21.3499 15.938 0.407
21.3703 16.458 0.414
21.3908 15.958 0.408
21.4113 16.375 0.413
21.4317 16.302 0.412
21.4522 16.417 0.414
21.4727 17.354 0.425
21.4931 15.896 0.407
21.5136 16.771 0.418
21.5340 16.635 0.416
21.5545 16.635 0.416
21.5750 16.667 0.417
21.5954 16.490 0.414
21.6159 16.563 0.415
21.6364 17.000 0.421
21.6568 17.219 0.424
21.6773 16.844 0.419
21.6977 16.396 0.413
21.7182 17.167 0.423
21.7387 17.021 0.421
21.7591 16.729 0.417
21.7796 16.604 0.416
21.8001 17.271 0.424
21.8205 16.240 0.411
21.8410 15.802 0.406
21.8614 16.500 0.415
21.8819 16.844 0.419
21.9024 17.052 0.421
21.9228 16.229 0.411
21.9433 15.948 0.408
21.9638 16.469 0.414
21.9842 17.354 0.425
22.0047 16.240 0.411
22.0252 16.615 0.416
22.0456 16.156 0.410
22.0661 16.781 0.418
22.0865 16.656 0.417
22.1070 16.115 0.410
22.1275 16.604 0.416
22.1479 16.896 0.420
22.1684 15.323 0.400
22.1889 15.750 0.405
22.2093 17.188 0.423
22.2298 16.594 0.416
22.2502 17.125 0.422
22.2707 16.552 0.415
22.2912 16.375 0.413
22.3116 16.323 0.412
22.3321 17.125 0.422
22.3526 16.458 0.414
22.3730 16.854 0.419
22.3935 16.615 0.416
22.4139 16.656 0.417
22.4344 16.083 0.409
22.4549 16.510 0.415
22.4753 16.292 0.412
22.4958 16.385 0.413
22.5163 16.813 0.418
22.5367 16.896 0.420
22.5572 16.271 0.412
22.5776 16.750 0.418
22.5981 16.458 0.414
22.6186 16.938 0.420
22.6390 17.729 0.430
22.6595 16.604 0.416
22.6800 17.260 0.424
22.7004 17.031 0.421
22.7209 17.677 0.429
22.7413 16.844 0.419
22.7618 17.604 0.428
22.7823 17.167 0.423
22.8027 18.458 0.438
22.8232 18.094 0.434
22.8437 17.885 0.432
22.8641 17.365 0.425
22.8846 16.958 0.420
22.9051 17.104 0.422
22.9255 18.104 0.434
22.9460 18.729 0.442
22.9664 17.583 0.428
22.9869 17.563 0.428
23.0074 17.938 0.432
23.0278 18.729 0.442
23.0483 18.854 0.443
23.0688 18.740 0.442
23.0892 18.177 0.435
23.1097 18.479 0.439
23.1301 18.688 0.441
23.1506 17.823 0.431
23.1711 18.656 0.441
23.1915 18.813 0.443
23.2120 17.521 0.427
23.2325 18.167 0.435
23.2529 17.396 0.426
23.2734 17.448 0.426
23.2938 17.656 0.429
23.3143 17.563 0.428
23.3348 17.125 0.422
23.3552 17.302 0.425
23.3757 16.802 0.418
23.3962 18.000 0.433
23.4166 16.656 0.417
23.4371 18.135 0.435
23.4575 17.771 0.430
23.4780 17.167 0.423
23.4985 17.615 0.428
23.5189 17.000 0.421
23.5394 17.396 0.426
23.5599 18.146 0.435
23.5803 18.010 0.433
23.6008 17.375 0.425
23.6212 18.677 0.441
23.6417 16.802 0.418
23.6622 17.177 0.423
23.6826 16.271 0.412
23.7031 16.135 0.410
23.7236 17.219 0.424
23.7440 16.802 0.418
23.7645 15.875 0.407
23.7850 16.188 0.411
23.8054 16.500 0.415
23.8259 16.458 0.414
23.8463 16.677 0.417
23.8668 15.875 0.407
23.8873 15.646 0.404
23.9077 15.760 0.405
23.9282 15.833 0.406
23.9487 16.146 0.410
23.9691 15.646 0.404
23.9896 16.021 0.409
24.0100 16.063 0.409
24.0305 15.917 0.407
24.0510 15.875 0.407
24.0714 16.104 0.410
24.0919 15.396 0.400
24.1124 16.354 0.413
24.1328 15.635 0.404
24.1533 16.531 0.415
24.1737 16.479 0.414
24.1942 16.292 0.412
24.2147 15.865 0.407
24.2351 15.844 0.406
24.2556 16.635 0.416
24.2761 16.750 0.418
24.2965 16.438 0.414
24.3170 16.438 0.414
24.3374 17.510 0.427
24.3579 16.198 0.411
24.3784 15.729 0.405
24.3988 17.094 0.422
24.4193 16.563 0.415
24.4398 16.667 0.417
24.4602 16.823 0.419
24.4807 16.146 0.410
24.5012 16.000 0.408
24.5216 16.531 0.415
24.5421 15.417 0.401
24.5625 16.052 0.409
24.5830 15.708 0.405
24.6035 15.552 0.402
24.6239 16.344 0.413
24.6444 16.479 0.414
24.6649 15.740 0.405
24.6853 15.885 0.407
24.7058 16.417 0.414
24.7262 16.188 0.411
24.7467 15.844 0.406
24.7672 15.813 0.406
24.7876 16.073 0.409
24.8081 15.625 0.403
24.8286 16.365 0.413
24.8490 15.375 0.400
24.8695 16.458 0.414
24.8899 16.333 0.412
24.9104 16.125 0.410
24.9309 15.698 0.404
24.9513 15.802 0.406
24.9718 15.875 0.407
24.9923 15.865 0.407
25.0127 14.990 0.395
25.0332 16.448 0.414
25.0536 15.948 0.408
25.0741 15.802 0.406
25.0946 15.823 0.406
25.1150 16.333 0.412
25.1355 15.917 0.407
25.1560 16.271 0.412
25.1764 15.896 0.407
25.1969 16.219 0.411
25.2173 16.802 0.418
25.2378 16.344 0.413
25.2583 16.615 0.416
25.2787 16.396 0.413
25.2992 16.240 0.411
25.3197 16.240 0.411
25.3401 15.833 0.406
25.3606 14.906 0.394
25.3811 15.781 0.405
25.4015 16.323 0.412
25.4220 15.906 0.407
25.4424 15.844 0.406
25.4629 16.177 0.411
25.4834 16.177 0.411
25.5038 15.833 0.406
25.5243 16.604 0.416
25.5448 16.333 0.412
25.5652 16.313 0.412
25.5857 16.458 0.414
25.6061 17.531 0.427
25.6266 17.823 0.431
25.6471 17.073 0.422
25.6675 17.802 0.431
25.6880 17.573 0.428
25.7085 17.938 0.432
25.7289 17.594 0.428
25.7494 17.583 0.428
25.7698 17.302 0.425
25.7903 16.698 0.417
25.8108 17.333 0.425
25.8312 16.760 0.418
25.8517 16.625 0.416
25.8722 16.583 0.416
25.8926 16.552 0.415
25.9131 16.313 0.412
25.9335 16.531 0.415
25.9540 16.063 0.409
25.9745 15.792 0.406
25.9949 16.458 0.414
26.0154 16.500 0.415
26.0359 17.281 0.424
26.0563 15.469 0.401
26.0768 16.323 0.412
26.0972 16.042 0.409
26.1177 15.969 0.408
26.1382 15.760 0.405
26.1586 15.938 0.407
26.1791 15.260 0.399
26.1996 16.000 0.408
26.2200 16.271 0.412
26.2405 15.927 0.407
26.2610 16.427 0.414
26.2814 15.875 0.407
26.3019 15.906 0.407
26.3223 15.823 0.406
26.3428 16.417 0.414
26.3633 16.000 0.408
26.3837 16.229 0.411
26.4042 17.115 0.422
26.4247 16.208 0.411
26.4451 15.906 0.407
26.4656 16.083 0.409
26.4860 16.031 0.409
26.5065 16.115 0.410
26.5270 15.229 0.398
26.5474 16.042 0.409
26.5679 15.990 0.408
26.5884 16.594 0.416
26.6088 16.292 0.412
26.6293 15.875 0.407
26.6497 15.760 0.405
26.6702 15.542 0.402
26.6907 15.385 0.400
26.7111 16.031 0.409
26.7316 15.885 0.407
26.7521 15.396 0.400
26.7725 15.260 0.399
26.7930 16.188 0.411
26.8134 15.333 0.400
26.8339 16.333 0.412
26.8544 15.958 0.408
26.8748 15.823 0.406
26.8953 16.010 0.408
26.9158 15.865 0.407
26.9362 16.208 0.411
26.9567 15.771 0.405
26.9771 16.208 0.411
26.9976 16.604 0.416
27.0181 16.438 0.414
27.0385 15.125 0.397
27.0590 15.406 0.401
27.0795 15.375 0.400
27.0999 15.885 0.407
27.1204 15.688 0.404
27.1409 15.615 0.403
27.1613 15.719 0.405
27.1818 15.063 0.396
27.2022 16.135 0.410
27.2227 15.635 0.404
27.2432 15.188 0.398
27.2636 15.427 0.401
27.2841 15.792 0.406
27.3046 15.708 0.405
27.3250 15.958 0.408
27.3455 15.875 0.407
27.3659 15.646 0.404
27.3864 15.938 0.407
27.4069 14.917 0.394
27.4273 15.875 0.407
27.4478 15.708 0.405
27.4683 15.563 0.403
27.4887 15.583 0.403
27.5092 15.875 0.407
27.5296 15.917 0.407
27.5501 16.104 0.410
27.5706 16.260 0.412
27.5910 16.094 0.409
27.6115 15.792 0.406
27.6320 15.344 0.400
27.6524 16.083 0.409
27.6729 15.865 0.407
27.6933 14.969 0.395
27.7138 15.813 0.406
27.7343 16.063 0.409
27.7547 15.927 0.407
27.7752 16.188 0.411
27.7957 15.719 0.405
27.8161 15.896 0.407
27.8366 16.344 0.413
27.8570 15.635 0.404
27.8775 16.854 0.419
27.8980 16.594 0.416
27.9184 16.573 0.415
27.9389 16.458 0.414
27.9594 16.042 0.409
27.9798 17.135 0.422
28.0003 17.625 0.428
28.0208 16.448 0.414
28.0412 16.146 0.410
28.0617 16.438 0.414
28.0821 16.958 0.420
28.1026 16.552 0.415
28.1231 15.875 0.407
28.1435 15.917 0.407
28.1640 15.865 0.407
28.1845 15.490 0.402
28.2049 15.542 0.402
28.2254 15.552 0.402
28.2458 15.844 0.406
28.2663 15.760 0.405
28.2868 15.375 0.400
28.3072 15.927 0.407
28.3277 15.594 0.403
28.3482 15.531 0.402
28.3686 16.271 0.412
28.3891 16.156 0.410
28.4095 17.000 0.421
28.4300 15.677 0.404
28.4505 15.760 0.405
28.4709 16.000 0.408
28.4914 15.521 0.402
28.5119 16.229 0.411
28.5323 16.750 0.418
28.5528 16.125 0.410
28.5732 16.542 0.415
28.5937 17.646 0.429
28.6142 17.552 0.428
28.6346 17.990 0.433
28.6551 18.813 0.443
28.6756 19.854 0.455
28.6960 21.094 0.469
28.7165 22.365 0.483
28.7370 22.615 0.485
28.7574 21.760 0.476
28.7779 20.656 0.464
28.7983 20.250 0.459
28.8188 19.958 0.456
28.8393 19.135 0.446
28.8597 18.750 0.442
28.8802 19.344 0.449
28.9007 18.448 0.438
28.9211 18.927 0.444
28.9416 19.417 0.450
28.9620 18.667 0.441
28.9825 19.719 0.453
29.0030 19.563 0.451
29.0234 20.844 0.466
29.0439 20.438 0.461
29.0644 20.656 0.464
29.0848 21.010 0.468
29.1053 21.500 0.473
29.1257 22.469 0.484
29.1462 21.646 0.475
29.1667 22.594 0.485
29.1871 22.375 0.483
29.2076 23.521 0.495
29.2281 22.396 0.483
29.2485 23.813 0.498
29.2690 24.063 0.501
29.2894 25.573 0.516
29.3099 24.469 0.505
29.3304 24.875 0.509
29.3508 25.594 0.516
29.3713 26.740 0.528
29.3918 28.552 0.545
29.4122 29.771 0.557
29.4327 32.188 0.579
29.4531 32.708 0.584
29.4736 33.281 0.589
29.4941 33.229 0.588
29.5145 30.875 0.567
29.5350 29.375 0.553
29.5555 27.271 0.533
29.5759 25.958 0.520
29.5964 23.438 0.494
29.6169 22.719 0.486
29.6373 21.656 0.475
29.6578 21.302 0.471
29.6782 20.438 0.461
29.6987 21.656 0.475
29.7192 19.906 0.455
29.7396 20.635 0.464
29.7601 19.427 0.450
29.7806 19.583 0.452
29.8010 19.458 0.450
29.8215 20.063 0.457
29.8419 19.240 0.448
29.8624 19.250 0.448
29.8829 18.573 0.440
29.9033 18.833 0.443
29.9238 19.104 0.446
29.9443 18.927 0.444
29.9647 18.792 0.442
29.9852 19.354 0.449
30.0056 18.885 0.444
30.0261 19.479 0.450
30.0466 19.719 0.453
30.0670 20.323 0.460
30.0875 19.771 0.454
30.1080 19.906 0.455
30.1284 20.073 0.457
30.1489 20.167 0.458
30.1693 19.635 0.452
30.1898 19.115 0.446
30.2103 18.583 0.440
30.2307 17.948 0.432
30.2512 17.917 0.432
30.2717 17.583 0.428
30.2921 16.594 0.416
30.3126 16.625 0.416
30.3330 16.688 0.417
30.3535 17.042 0.421
30.3740 18.156 0.435
30.3944 16.323 0.412
30.4149 16.719 0.417
30.4354 16.417 0.414
30.4558 16.927 0.420
30.4763 16.802 0.418
30.4968 16.958 0.420
30.5172 16.813 0.418
30.5377 16.542 0.415
30.5581 16.115 0.410
30.5786 16.500 0.415
30.5991 16.156 0.410
30.6195 17.292 0.424
30.6400 17.188 0.423
30.6605 16.313 0.412
30.6809 17.448 0.426
30.7014 16.385 0.413
30.7218 15.948 0.408
30.7423 15.781 0.405
30.7628 15.396 0.400
30.7832 17.281 0.424
30.8037 16.427 0.414
30.8242 16.823 0.419
30.8446 16.073 0.409
30.8651 16.656 0.417
30.8855 16.573 0.415
30.9060 16.979 0.421
30.9265 16.594 0.416
30.9469 16.229 0.411
30.9674 17.375 0.425
30.9879 17.844 0.431
31.0083 18.792 0.442
31.0288 19.604 0.452
31.0492 20.146 0.458
31.0697 19.292 0.448
31.0902 19.271 0.448
31.1106 18.646 0.441
31.1311 19.333 0.449
31.1516 18.313 0.437
31.1720 18.365 0.437
31.1925 17.656 0.429
31.2129 16.979 0.421
31.2334 16.917 0.420
31.2539 16.875 0.419
31.2743 16.500 0.415
31.2948 16.948 0.420
31.3153 16.615 0.416
31.3357 16.698 0.417
31.3562 17.156 0.423
31.3767 16.594 0.416
31.3971 16.948 0.420
31.4176 16.885 0.419
31.4380 17.417 0.426
31.4585 16.854 0.419
31.4790 17.656 0.429
31.4994 17.865 0.431
31.5199 18.052 0.434
31.5404 17.813 0.431
31.5608 18.813 0.443
31.5813 18.875 0.443
31.6017 18.969 0.445
31.6222 19.729 0.453
31.6427 19.146 0.447
31.6631 20.396 0.461
31.6836 19.813 0.454
31.7041 19.771 0.454
31.7245 19.896 0.455
31.7450 20.083 0.457
31.7654 20.667 0.464
31.7859 19.833 0.455
31.8064 19.375 0.449
31.8268 19.719 0.453
31.8473 18.875 0.443
31.8678 19.396 0.449
31.8882 18.635 0.441
31.9087 18.865 0.443
31.9291 18.990 0.445
31.9496 19.177 0.447
31.9701 20.094 0.458
31.9905 20.688 0.464
32.0110 20.438 0.461
32.0315 20.771 0.465
32.0519 22.010 0.479
32.0724 22.917 0.489
32.0928 24.896 0.509
32.1133 24.469 0.505
32.1338 25.677 0.517
32.1542 27.750 0.538
32.1747 30.573 0.564
32.1952 33.625 0.592
32.2156 31.594 0.574
32.2361 30.781 0.566
32.2566 31.385 0.572
32.2770 32.625 0.583
32.2975 30.260 0.561
32.3179 27.260 0.533
32.3384 25.104 0.511
32.3589 24.531 0.506
32.3793 24.448 0.505
32.3998 23.646 0.496
32.4203 22.302 0.482
32.4407 22.302 0.482
32.4612 23.490 0.495
32.4816 22.469 0.484
32.5021 22.604 0.485
32.5226 23.396 0.494
32.5430 24.719 0.507
32.5635 26.323 0.524
32.5840 26.323 0.524
32.6044 26.667 0.527
32.6249 28.646 0.546
32.6453 27.615 0.536
32.6658 27.917 0.539
32.6863 27.625 0.536
32.7067 27.458 0.535
32.7272 25.427 0.515
32.7477 25.042 0.511
32.7681 23.708 0.497
32.7886 22.344 0.482
32.8090 22.479 0.484
32.8295 20.667 0.464
32.8500 20.594 0.463
32.8704 21.323 0.471
32.8909 20.927 0.467
32.9114 21.313 0.471
32.9318 20.844 0.466
32.9523 21.146 0.469
32.9728 21.042 0.468
32.9932 20.438 0.461
33.0137 20.031 0.457
33.0341 20.125 0.458
33.0546 20.427 0.461
33.0751 20.052 0.457
33.0955 19.969 0.456
33.1160 20.615 0.463
33.1365 19.792 0.454
33.1569 20.302 0.460
33.1774 19.573 0.452
33.1978 19.469 0.450
33.2183 19.760 0.454
33.2388 19.688 0.453
33.2592 19.938 0.456
33.2797 20.333 0.460
33.3002 19.875 0.455
33.3206 19.125 0.446
33.3411 18.698 0.441
33.3615 17.917 0.432
33.3820 17.354 0.425
33.4025 17.115 0.422
33.4229 16.552 0.415
33.4434 17.375 0.425
33.4639 17.438 0.426
33.4843 16.948 0.420
33.5048 17.552 0.428
33.5252 16.354 0.413
33.5457 16.896 0.420
33.5662 17.594 0.428
33.5866 17.563 0.428
33.6071 18.500 0.439
33.6276 18.021 0.433
33.6480 17.833 0.431
33.6685 18.229 0.436
33.6889 18.635 0.441
33.7094 18.885 0.444
33.7299 18.458 0.438
33.7503 18.625 0.440
33.7708 19.125 0.446
33.7913 19.365 0.449
33.8117 20.250 0.459
33.8322 19.896 0.455
33.8527 22.302 0.482
33.8731 21.344 0.472
33.8936 21.792 0.476
33.9140 22.104 0.480
33.9345 21.865 0.477
33.9550 21.854 0.477
33.9754 22.344 0.482
33.9959 22.542 0.485
34.0164 23.396 0.494
34.0368 25.406 0.514
34.0573 29.115 0.551
34.0777 31.719 0.575
34.0982 36.115 0.613
34.1187 39.333 0.640
34.1391 39.063 0.638
34.1596 37.240 0.623
34.1801 33.594 0.592
34.2005 32.729 0.584
34.2210 30.448 0.563
34.2414 28.615 0.546
34.2619 26.021 0.521
34.2824 23.688 0.497
34.3028 21.344 0.472
34.3233 22.344 0.482
34.3438 22.010 0.479
34.3642 22.667 0.486
34.3847 25.469 0.515
34.4051 25.938 0.520
34.4256 24.271 0.503
34.4461 21.740 0.476
34.4665 21.448 0.473
34.4870 20.865 0.466
34.5075 19.427 0.450
34.5279 17.771 0.430
34.5484 16.490 0.414
34.5688 15.219 0.398
34.5893 15.646 0.404
34.6098 14.948 0.395
34.6302 15.146 0.397
34.6507 15.490 0.402
34.6712 15.333 0.400
34.6916 15.208 0.398
34.7121 14.583 0.390
34.7326 15.333 0.400
34.7530 14.771 0.392
34.7735 15.010 0.395
34.7939 15.698 0.404
34.8144 15.240 0.398
34.8349 15.365 0.400
34.8553 14.604 0.390
34.8758 14.958 0.395
34.8963 15.344 0.400
34.9167 14.781 0.392
34.9372 14.854 0.393
34.9576 15.365 0.400
34.9781 14.396 0.387
34.9986 14.885 0.394
35.0190 14.729 0.392
35.0395 15.167 0.397
35.0600 14.563 0.389
35.0804 14.667 0.391
35.1009 14.938 0.394
35.1213 14.438 0.388
35.1418 14.740 0.392
35.1623 14.844 0.393
35.1827 15.417 0.401
35.2032 14.458 0.388
35.2237 15.229 0.398
35.2441 14.990 0.395
35.2646 15.104 0.397
35.2850 15.406 0.401
35.3055 14.458 0.388
35.3260 15.229 0.398
35.3464 15.208 0.398
35.3669 15.229 0.398
35.3874 14.375 0.387
35.4078 14.875 0.394
35.4283 14.719 0.392
35.4487 14.833 0.393
35.4692 14.865 0.393
35.4897 14.594 0.390
35.5101 14.427 0.388
35.5306 14.490 0.389
35.5511 14.135 0.384
35.5715 14.271 0.386
35.5920 14.281 0.386
35.6125 13.771 0.379
35.6329 14.396 0.387
35.6534 14.354 0.387
35.6738 14.333 0.386
35.6943 14.313 0.386
35.7148 14.854 0.393
35.7352 13.729 0.378
35.7557 14.438 0.388
35.7762 14.635 0.390
35.7966 13.656 0.377
35.8171 13.719 0.378
35.8375 14.240 0.385
35.8580 14.135 0.384
35.8785 14.208 0.385
35.8989 13.802 0.379
35.9194 14.240 0.385
35.9399 14.010 0.382
35.9603 13.708 0.378
35.9808 14.469 0.388
36.0012 14.385 0.387
36.0217 14.865 0.393
36.0422 14.448 0.388
36.0626 14.490 0.389
36.0831 14.469 0.388
36.1036 14.219 0.385
36.1240 14.469 0.388
36.1445 14.292 0.386
36.1649 14.583 0.390
36.1854 13.917 0.381
36.2059 13.917 0.381
36.2263 14.573 0.390
36.2468 13.990 0.382
36.2673 13.396 0.374
36.2877 14.167 0.384
36.3082 14.292 0.386
36.3286 13.990 0.382
36.3491 14.583 0.390
36.3696 14.063 0.383
36.3900 13.708 0.378
36.4105 14.333 0.386
36.4310 14.250 0.385
36.4514 13.656 0.377
36.4719 14.385 0.387
36.4924 14.333 0.386
36.5128 14.635 0.390
36.5333 15.146 0.397
36.5537 14.833 0.393
36.5742 15.073 0.396
36.5947 15.615 0.403
36.6151 16.135 0.410
36.6356 16.771 0.418
36.6561 16.333 0.412
36.6765 15.240 0.398
36.6970 16.208 0.411
36.7174 15.740 0.405
36.7379 16.448 0.414
36.7584 15.719 0.405
36.7788 15.479 0.402
36.7993 15.458 0.401
36.8198 15.521 0.402
36.8402 15.688 0.404
36.8607 14.500 0.389
36.8811 14.896 0.394
36.9016 14.323 0.386
36.9221 14.833 0.393
36.9425 14.573 0.390
36.9630 14.083 0.383
36.9835 14.500 0.389
37.0039 14.635 0.390
37.0244 13.958 0.381
37.0448 14.281 0.386
37.0653 14.031 0.382
37.0858 14.719 0.392
37.1062 13.729 0.378
37.1267 14.344 0.387
37.1472 14.615 0.390
37.1676 14.042 0.382
37.1881 14.490 0.389
37.2085 14.354 0.387
37.2290 14.542 0.389
37.2495 14.250 0.385
37.2699 14.417 0.388
37.2904 14.813 0.393
37.3109 14.344 0.387
37.3313 14.417 0.388
37.3518 14.271 0.386
37.3723 13.646 0.377
37.3927 14.021 0.382
37.4132 13.542 0.376
37.4336 13.781 0.379
37.4541 14.083 0.383
37.4746 14.417 0.388
37.4950 14.323 0.386
37.5155 13.594 0.376
37.5360 13.531 0.375
37.5564 14.021 0.382
37.5769 13.844 0.380
37.5973 13.677 0.377
37.6178 13.448 0.374
37.6383 14.073 0.383
37.6587 13.073 0.369
37.6792 13.135 0.370
37.6997 12.573 0.362
37.7201 13.135 0.370
37.7406 14.073 0.383
37.7610 12.948 0.367
37.7815 13.760 0.379
37.8020 13.229 0.371
37.8224 13.823 0.379
37.8429 13.240 0.371
37.8634 13.115 0.370
37.8838 13.688 0.378
37.9043 12.917 0.367
37.9247 13.625 0.377
37.9452 13.469 0.375
37.9657 13.104 0.369
37.9861 13.552 0.376
38.0066 13.073 0.369
38.0271 13.698 0.378
38.0475 12.396 0.359
38.0680 13.292 0.372
38.0885 13.604 0.376
38.1089 13.521 0.375
38.1294 13.115 0.370
38.1498 12.865 0.366
38.1703 12.854 0.366
38.1908 12.438 0.360
38.2112 12.990 0.368
38.2317 13.469 0.375
38.2522 13.115 0.370
38.2726 13.115 0.370
38.2931 12.531 0.361
38.3135 13.667 0.377
38.3340 13.771 0.379
38.3545 13.354 0.373
38.3749 12.729 0.364
38.3954 13.521 0.375
38.4159 12.646 0.363
38.4363 13.865 0.380
38.4568 13.469 0.375
38.4772 13.667 0.377
38.4977 12.958 0.367
38.5182 12.938 0.367
38.5386 13.531 0.375
38.5591 13.781 0.379
38.5796 12.313 0.358
38.6000 13.885 0.380
38.6205 13.490 0.375
38.6409 13.188 0.371
38.6614 13.271 0.372
38.6819 13.927 0.381
38.7023 14.510 0.389
38.7228 13.969 0.381
38.7433 13.365 0.373
38.7637 14.427 0.388
38.7842 13.802 0.379
38.8046 14.823 0.393
38.8251 15.229 0.398
38.8456 14.771 0.392
38.8660 14.969 0.395
38.8865 14.823 0.393
38.9070 14.052 0.383
38.9274 14.729 0.392
38.9479 14.531 0.389
38.9684 13.385 0.373
38.9888 13.792 0.379
39.0093 13.594 0.376
39.0297 13.094 0.369
39.0502 13.250 0.372
39.0707 14.177 0.384
39.0911 14.083 0.383
39.1116 13.854 0.380
39.1321 13.313 0.372
39.1525 13.094 0.369
39.1730 13.240 0.371
39.1934 13.375 0.373
39.2139 13.854 0.380
39.2344 13.563 0.376
39.2548 13.177 0.370
39.2753 13.542 0.376
39.2958 12.813 0.365
39.3162 14.271 0.386
39.3367 13.271 0.372
39.3571 13.938 0.381
39.3776 13.365 0.373
39.3981 14.344 0.387
39.4185 14.385 0.387
39.4390 14.271 0.386
39.4595 14.500 0.389
39.4799 14.927 0.394
39.5004 14.469 0.388
39.5208 14.260 0.385
39.5413 13.563 0.376
39.5618 13.948 0.381
39.5822 13.583 0.376
39.6027 13.792 0.379
39.6232 13.417 0.374
39.6436 13.656 0.377
39.6641 14.313 0.386
39.6845 13.948 0.381
39.7050 13.510 0.375
39.7255 13.010 0.368
39.7459 14.000 0.382
39.7664 13.094 0.369
39.7869 13.521 0.375
39.8073 13.448 0.374
39.8278 13.479 0.375
39.8483 13.823 0.379
39.8687 13.229 0.371
39.8892 13.135 0.370
39.9096 12.927 0.367
39.9301 13.969 0.381
39.9506 13.042 0.369
39.9710 12.677 0.363
39.9915 12.719 0.364
40.0120 12.396 0.359
40.0324 12.635 0.363
40.0529 13.656 0.377
40.0733 12.500 0.361
40.0938 12.396 0.359
40.1143 12.781 0.365
40.1347 13.146 0.370
40.1552 12.521 0.361
40.1757 12.802 0.365
40.1961 12.875 0.366
40.2166 12.802 0.365
40.2370 12.729 0.364
40.2575 13.063 0.369
40.2780 13.063 0.369
40.2984 12.635 0.363
40.3189 12.885 0.366
40.3394 12.490 0.361
40.3598 13.073 0.369
40.3803 12.979 0.368
40.4007 13.208 0.371
40.4212 13.302 0.372
40.4417 12.719 0.364
40.4621 12.292 0.358
40.4826 12.688 0.364
40.5031 12.292 0.358
40.5235 11.604 0.348
40.5440 13.031 0.368
40.5644 12.969 0.368
40.5849 12.500 0.361
40.6054 12.135 0.356
40.6258 12.708 0.364
40.6463 12.490 0.361
40.6668 12.542 0.361
40.6872 13.094 0.369
40.7077 13.563 0.376
40.7282 11.979 0.353
40.7486 12.188 0.356
40.7691 12.990 0.368
40.7895 13.146 0.370
40.8100 12.979 0.368
40.8305 12.969 0.368
40.8509 13.479 0.375
40.8714 14.292 0.386
40.8919 14.083 0.383
40.9123 13.771 0.379
40.9328 13.333 0.373
40.9532 13.990 0.382
40.9737 14.063 0.383
40.9942 14.792 0.393
41.0146 14.615 0.390
41.0351 13.833 0.380
41.0556 14.354 0.387
41.0760 15.396 0.400
41.0965 14.823 0.393
41.1169 15.802 0.406
41.1374 15.438 0.401
41.1579 15.802 0.406
41.1783 15.708 0.405
41.1988 16.406 0.413
41.2193 16.667 0.417
41.2397 17.115 0.422
41.2602 17.500 0.427
41.2806 18.063 0.434
41.3011 18.542 0.439
41.3216 18.500 0.439
41.3420 18.094 0.434
41.3625 19.677 0.453
41.3830 18.448 0.438
41.4034 16.583 0.416
41.4239 16.208 0.411
41.4443 16.385 0.413
41.4648 15.948 0.408
41.4853 15.406 0.401
41.5057 15.833 0.406
41.5262 14.521 0.389
41.5467 14.979 0.395
41.5671 14.094 0.383
41.5876 14.094 0.383
41.6081 14.385 0.387
41.6285 15.083 0.396
41.6490 14.813 0.393
41.6694 13.906 0.381
41.6899 14.500 0.389
41.7104 14.479 0.388
41.7308 13.552 0.376
41.7513 14.448 0.388
41.7718 14.188 0.384
41.7922 14.573 0.390
41.8127 14.063 0.383
41.8331 13.438 0.374
41.8536 14.594 0.390
41.8741 13.698 0.378
41.8945 13.302 0.372
41.9150 12.688 0.364
41.9355 13.823 0.379
41.9559 13.615 0.377
41.9764 13.792 0.379
41.9968 13.875 0.380
42.0173 12.948 0.367
42.0378 14.750 0.392
42.0582 13.781 0.379
42.0787 13.573 0.376
42.0992 13.833 0.380
42.1196 13.583 0.376
42.1401 13.396 0.374
42.1605 13.219 0.371
42.1810 14.271 0.386
42.2015 13.646 0.377
42.2219 14.188 0.384
42.2424 12.531 0.361
42.2629 13.781 0.379
42.2833 13.010 0.368
42.3038 13.698 0.378
42.3243 13.052 0.369
42.3447 14.063 0.383
42.3652 14.323 0.386
42.3856 14.396 0.387
42.4061 13.833 0.380
42.4266 13.677 0.377
42.4470 14.365 0.387
42.4675 14.802 0.393
42.4880 15.167 0.397
42.5084 14.948 0.395
42.5289 15.156 0.397
42.5493 16.375 0.413
42.5698 15.719 0.405
42.5903 14.719 0.392
42.6107 15.719 0.405
42.6312 15.188 0.398
42.6517 14.927 0.394
42.6721 14.958 0.395
42.6926 14.802 0.393
42.7130 14.479 0.388
42.7335 13.802 0.379
42.7540 14.042 0.382
42.7744 14.177 0.384
42.7949 13.521 0.375
42.8154 13.656 0.377
42.8358 14.438 0.388
42.8563 13.719 0.378
42.8767 14.031 0.382
42.8972 14.760 0.392
42.9177 13.625 0.377
42.9381 14.354 0.387
42.9586 14.281 0.386
42.9791 14.667 0.391
42.9995 14.260 0.385
43.0200 14.052 0.383
43.0404 14.229 0.385
43.0609 14.000 0.382
43.0814 13.885 0.380
43.1018 14.563 0.389
43.1223 14.625 0.390
43.1428 14.052 0.383
43.1632 14.292 0.386
43.1837 13.510 0.375
43.2042 14.427 0.388
43.2246 15.260 0.399
43.2451 14.490 0.389
43.2655 14.344 0.387
43.2860 15.063 0.396
43.3065 14.417 0.388
43.3269 14.333 0.386
43.3474 14.719 0.392
43.3679 14.677 0.391
43.3883 15.188 0.398
43.4088 15.063 0.396
43.4292 14.740 0.392
43.4497 15.302 0.399
43.4702 15.104 0.397
43.4906 15.271 0.399
43.5111 14.760 0.392
43.5316 15.635 0.404
43.5520 15.771 0.405
43.5725 16.271 0.412
43.5929 14.844 0.393
43.6134 15.698 0.404
43.6339 15.688 0.404
43.6543 15.542 0.402
43.6748 15.115 0.397
43.6953 15.219 0.398
43.7157 14.750 0.392
43.7362 14.719 0.392
43.7566 14.698 0.391
43.7771 15.167 0.397
43.7976 15.250 0.399
43.8180 14.052 0.383
43.8385 14.719 0.392
43.8590 14.573 0.390
43.8794 14.885 0.394
43.8999 14.740 0.392
43.9203 15.125 0.397
43.9408 14.500 0.389
43.9613 14.792 0.393
43.9817 14.042 0.382
44.0022 14.531 0.389
44.0227 14.927 0.394
44.0431 15.406 0.401
44.0636 14.844 0.393
44.0841 15.229 0.398
44.1045 14.990 0.395
44.1250 14.823 0.393
44.1454 15.104 0.397
44.1659 14.615 0.390
44.1864 14.396 0.387
44.2068 14.063 0.383
44.2273 14.594 0.390
44.2478 14.615 0.390
44.2682 14.948 0.395
44.2887 13.927 0.381
44.3091 14.938 0.394
44.3296 14.917 0.394
44.3501 14.208 0.385
44.3705 14.302 0.386
44.3910 14.063 0.383
44.4115 14.156 0.384
44.4319 14.167 0.384
44.4524 13.990 0.382
44.4728 14.167 0.384
44.4933 13.646 0.377
44.5138 14.542 0.389
44.5342 13.708 0.378
44.5547 14.594 0.390
44.5752 13.615 0.377
44.5956 14.865 0.393
44.6161 14.729 0.392
44.6365 14.021 0.382
44.6570 14.833 0.393
44.6775 13.927 0.381
44.6979 14.479 0.388
44.7184 14.740 0.392
44.7389 14.479 0.388
44.7593 14.646 0.391
44.7798 13.510 0.375
44.8002 14.385 0.387
44.8207 13.500 0.375
44.8412 13.750 0.378
44.8616 14.135 0.384
44.8821 12.948 0.367
44.9026 13.427 0.374
44.9230 13.969 0.381
44.9435 13.010 0.368
44.9640 13.667 0.377
44.9844 13.333 0.373
45.0049 13.281 0.372
45.0253 14.031 0.382
45.0458 13.667 0.377
45.0663 13.125 0.370
45.0867 13.677 0.377
45.1072 12.969 0.368
45.1277 13.104 0.369
45.1481 12.344 0.359
45.1686 13.208 0.371
45.1890 13.229 0.371
45.2095 13.188 0.371
45.2300 12.979 0.368
45.2504 13.396 0.374
45.2709 13.188 0.371
45.2914 13.021 0.368
45.3118 13.115 0.370
45.3323 13.521 0.375
45.3527 13.146 0.370
45.3732 13.594 0.376
45.3937 13.271 0.372
45.4141 13.344 0.373
45.4346 14.135 0.384
45.4551 12.583 0.362
45.4755 13.135 0.370
45.4960 13.208 0.371
45.5164 13.125 0.370
45.5369 13.698 0.378
45.5574 13.083 0.369
45.5778 13.250 0.372
45.5983 13.042 0.369
45.6188 13.323 0.373
45.6392 12.927 0.367
45.6597 13.104 0.369
45.6801 13.604 0.376
45.7006 13.083 0.369
45.7211 12.833 0.366
45.7415 14.958 0.395
45.7620 14.604 0.390
45.7825 13.365 0.373
45.8029 14.260 0.385
45.8234 13.677 0.377
45.8439 13.938 0.381
45.8643 13.688 0.378
45.8848 14.302 0.386
45.9052 13.813 0.379
45.9257 13.802 0.379
45.9462 13.208 0.371
45.9666 13.115 0.370
45.9871 12.896 0.367
46.0076 13.292 0.372
46.0280 12.906 0.367
46.0485 13.042 0.369
46.0689 12.458 0.360
46.0894 13.010 0.368
46.1099 12.490 0.361
46.1303 12.552 0.362
46.1508 12.917 0.367
46.1713 12.135 0.356
46.1917 12.500 0.361
46.2122 13.135 0.370
46.2326 12.896 0.367
46.2531 12.042 0.354
46.2736 12.969 0.368
46.2940 12.448 0.360
46.3145 12.396 0.359
46.3350 13.354 0.373
46.3554 12.844 0.366
46.3759 12.677 0.363
46.3963 12.885 0.366
46.4168 12.667 0.363
46.4373 13.448 0.374
46.4577 12.615 0.362
46.4782 13.198 0.371
46.4987 13.396 0.374
46.5191 13.177 0.370
46.5396 13.354 0.373
46.5601 13.323 0.373
46.5805 13.833 0.380
46.6010 12.802 0.365
46.6214 13.365 0.373
46.6419 12.552 0.362
46.6624 14.021 0.382
46.6828 13.594 0.376
46.7033 13.625 0.377
46.7238 13.271 0.372
46.7442 13.281 0.372
46.7647 12.521 0.361
46.7851 13.490 0.375
46.8056 13.240 0.371
46.8261 12.833 0.366
46.8465 13.729 0.378
46.8670 14.042 0.382
46.8875 13.990 0.382
46.9079 14.448 0.388
46.9284 14.563 0.389
46.9488 14.688 0.391
46.9693 14.260 0.385
46.9898 14.635 0.390
47.0102 15.458 0.401
47.0307 15.802 0.406
47.0512 17.719 0.430
47.0716 18.615 0.440
47.0921 20.500 0.462
47.1125 21.063 0.468
47.1330 23.115 0.491
47.1535 24.198 0.502
47.1739 22.260 0.482
47.1944 21.563 0.474
47.2149 20.740 0.465
47.2353 20.250 0.459
47.2558 19.813 0.454
47.2762 20.156 0.458
47.2967 19.167 0.447
47.3172 16.792 0.418
47.3376 17.198 0.423
47.3581 16.375 0.413
47.3786 15.469 0.401
47.3990 14.427 0.388
47.4195 14.844 0.393
47.4400 13.917 0.381
47.4604 14.833 0.393
47.4809 14.281 0.386
47.5013 14.094 0.383
47.5218 13.958 0.381
47.5423 13.354 0.373
47.5627 13.646 0.377
47.5832 14.865 0.393
47.6037 13.385 0.373
47.6241 13.323 0.373
47.6446 13.010 0.368
47.6650 13.406 0.374
47.6855 13.156 0.370
47.7060 13.250 0.372
47.7264 13.417 0.374
47.7469 13.240 0.371
47.7674 13.563 0.376
47.7878 13.365 0.373
47.8083 13.698 0.378
47.8287 13.000 0.368
47.8492 12.854 0.366
47.8697 13.073 0.369
47.8901 12.927 0.367
47.9106 13.156 0.370
47.9311 13.198 0.371
47.9515 13.083 0.369
47.9720 12.844 0.366
47.9924 13.135 0.370
48.0129 12.469 0.360
48.0334 12.844 0.366
48.0538 12.135 0.356
48.0743 12.396 0.359
48.0948 12.604 0.362
48.1152 12.573 0.362
48.1357 11.990 0.353
48.1561 12.781 0.365
48.1766 12.698 0.364
48.1971 13.000 0.368
48.2175 11.896 0.352
48.2380 12.365 0.359
48.2585 12.635 0.363
48.2789 11.708 0.349
48.2994 12.031 0.354
48.3199 11.302 0.343
48.3403 11.969 0.353
48.3608 12.292 0.358
48.3812 12.146 0.356
48.4017 11.990 0.353
48.4222 11.917 0.352
48.4426 11.885 0.352
48.4631 12.781 0.365
48.4836 12.323 0.358
48.5040 12.833 0.366
48.5245 12.354 0.359
48.5449 12.281 0.358
48.5654 12.292 0.358
48.5859 12.365 0.359
48.6063 11.760 0.350
48.6268 12.438 0.360
48.6473 12.177 0.356
48.6677 11.188 0.341
48.6882 11.604 0.348
48.7086 12.271 0.358
48.7291 11.531 0.347
48.7496 11.781 0.350
48.7700 11.188 0.341
48.7905 11.781 0.350
48.8110 12.292 0.358
48.8314 11.896 0.352
48.8519 11.635 0.348
48.8723 11.885 0.352
48.8928 12.573 0.362
48.9133 11.948 0.353
48.9337 12.042 0.354
48.9542 12.240 0.357
48.9747 11.719 0.349
48.9951 11.927 0.352
49.0156 12.000 0.354
49.0360 12.719 0.364
49.0565 13.052 0.369
49.0770 12.052 0.354
49.0974 13.198 0.371
49.1179 12.688 0.364
49.1384 12.510 0.361
49.1588 13.250 0.372
49.1793 12.542 0.361
49.1998 13.302 0.372
49.2202 13.094 0.369
49.2407 12.573 0.362
49.2611 12.500 0.361
49.2816 13.292 0.372
49.3021 13.146 0.370
49.3225 12.760 0.365
49.3430 13.010 0.368
49.3635 12.896 0.367
49.3839 12.833 0.366
49.4044 12.563 0.362
49.4248 13.302 0.372
49.4453 12.281 0.358
49.4658 13.052 0.369
49.4862 13.344 0.373
49.5067 13.208 0.371
49.5272 13.385 0.373
49.5476 13.990 0.382
49.5681 13.354 0.373
49.5885 13.260 0.372
49.6090 13.469 0.375
49.6295 13.813 0.379
49.6499 13.292 0.372
49.6704 13.438 0.374
49.6909 13.583 0.376
49.7113 13.698 0.378
49.7318 13.458 0.374
49.7522 13.760 0.379
49.7727 13.906 0.381
49.7932 14.260 0.385
49.8136 14.115 0.383
49.8341 13.813 0.379
49.8546 14.708 0.391
49.8750 14.448 0.388
49.8955 14.052 0.383
49.9159 15.250 0.399
49.9364 14.938 0.394
49.9569 13.813 0.379
49.9773 14.979 0.395
49.9978 14.177 0.384
50.0183 14.396 0.387
50.0387 14.438 0.388
50.0592 14.000 0.382
50.0797 13.865 0.380
50.1001 13.615 0.377
50.1206 13.802 0.379
50.1410 13.406 0.374
50.1615 13.521 0.375
50.1820 13.396 0.374
50.2024 13.115 0.370
50.2229 12.698 0.364
50.2434 13.042 0.369
50.2638 13.073 0.369
50.2843 12.385 0.359
50.3047 12.875 0.366
50.3252 12.344 0.359
50.3457 11.854 0.351
50.3661 12.615 0.362
50.3866 12.354 0.359
50.4071 12.292 0.358
50.4275 12.563 0.362
50.4480 12.583 0.362
50.4684 12.344 0.359
50.4889 12.646 0.363
50.5094 12.615 0.362
50.5298 12.063 0.354
50.5503 12.635 0.363
50.5708 12.594 0.362
50.5912 12.292 0.358
50.6117 12.688 0.364
50.6321 12.677 0.363
50.6526 12.083 0.355
50.6731 11.990 0.353
50.6935 12.615 0.362
50.7140 12.563 0.362
50.7345 13.281 0.372
50.7549 14.375 0.387
50.7754 15.000 0.395
50.7959 15.281 0.399
50.8163 15.438 0.401
50.8368 16.094 0.409
50.8572 14.385 0.387
50.8777 14.521 0.389
50.8982 13.448 0.374
50.9186 13.958 0.381
50.9391 14.531 0.389
50.9596 14.469 0.388
50.9800 13.396 0.374
51.0005 13.021 0.368
51.0209 12.021 0.354
51.0414 12.583 0.362
51.0619 11.625 0.348
51.0823 11.490 0.346
51.1028 12.229 0.357
51.1233 11.740 0.350
51.1437 11.542 0.347
51.1642 11.927 0.352
51.1846 11.750 0.350
51.2051 11.417 0.345
51.2256 10.896 0.337
51.2460 11.781 0.350
51.2665 10.885 0.337
51.2870 11.167 0.341
51.3074 10.719 0.334
51.3279 11.333 0.344
51.3483 11.490 0.346
51.3688 11.177 0.341
51.3893 11.417 0.345
51.4097 11.313 0.343
51.4302 11.219 0.342
51.4507 11.354 0.344
51.4711 11.313 0.343
51.4916 11.427 0.345
51.5120 11.031 0.339
51.5325 11.417 0.345
51.5530 11.510 0.346
51.5734 11.573 0.347
51.5939 11.740 0.350
51.6144 11.708 0.349
51.6348 11.625 0.348
51.6553 12.229 0.357
51.6758 12.969 0.368
51.6962 13.427 0.374
51.7167 13.698 0.378
51.7371 13.708 0.378
51.7576 14.510 0.389
51.7781 14.104 0.383
51.7985 13.771 0.379
51.8190 13.219 0.371
51.8395 14.667 0.391
51.8599 14.042 0.382
51.8804 14.542 0.389
51.9008 14.208 0.385
51.9213 13.604 0.376
51.9418 12.854 0.366
51.9622 12.823 0.365
51.9827 13.469 0.375
52.0032 12.573 0.362
52.0236 12.208 0.357
52.0441 11.396 0.345
52.0645 11.615 0.348
52.0850 12.188 0.356
52.1055 11.385 0.344
52.1259 11.792 0.350
52.1464 11.208 0.342
52.1669 11.854 0.351
52.1873 10.063 0.324
52.2078 11.198 0.342
52.2282 10.792 0.335
52.2487 10.875 0.337
52.2692 10.854 0.336
52.2896 11.552 0.347
52.3101 11.010 0.339
52.3306 11.198 0.342
52.3510 11.708 0.349
52.3715 10.969 0.338
52.3919 10.531 0.331
52.4124 10.833 0.336
52.4329 11.344 0.344
52.4533 10.823 0.336
52.4738 11.010 0.339
52.4943 11.188 0.341
52.5147 10.708 0.334
52.5352 11.750 0.350
52.5557 10.500 0.331
52.5761 10.281 0.327
52.5966 10.542 0.331
52.6170 10.688 0.334
52.6375 10.750 0.335
52.6580 11.344 0.344
52.6784 11.146 0.341
52.6989 10.729 0.334
52.7194 11.115 0.340
52.7398 10.500 0.331
52.7603 11.021 0.339
52.7807 10.844 0.336
52.8012 11.219 0.342
52.8217 11.115 0.340
52.8421 10.958 0.338
52.8626 11.594 0.348
52.8831 10.719 0.334
52.9035 10.823 0.336
52.9240 11.333 0.344
52.9444 10.510 0.331
52.9649 10.604 0.332
52.9854 10.448 0.330
53.0058 11.448 0.345
53.0263 10.865 0.336
53.0468 10.698 0.334
53.0672 11.052 0.339
53.0877 10.813 0.336
53.1081 11.083 0.340
53.1286 10.844 0.336
53.1491 10.385 0.329
53.1695 11.458 0.345
53.1900 10.802 0.335
53.2105 11.063 0.339
53.2309 10.865 0.336
53.2514 11.271 0.343
53.2718 10.969 0.338
53.2923 10.510 0.331
53.3128 10.563 0.332
53.3332 11.292 0.343
53.3537 10.667 0.333
53.3742 10.250 0.327
53.3946 11.333 0.344
53.4151 10.833 0.336
53.4356 11.052 0.339
53.4560 10.854 0.336
53.4765 10.969 0.338
53.4969 11.156 0.341
53.5174 10.438 0.330
53.5379 11.260 0.342
53.5583 10.906 0.337
53.5788 10.469 0.330
53.5993 11.458 0.345
53.6197 11.000 0.339
53.6402 11.083 0.340
53.6606 10.750 0.335
53.6811 10.740 0.334
53.7016 10.792 0.335
53.7220 10.698 0.334
53.7425 10.719 0.334
53.7630 10.021 0.323
53.7834 10.448 0.330
53.8039 10.917 0.337
53.8243 10.448 0.330
53.8448 10.521 0.331
53.8653 10.292 0.327
53.8857 10.271 0.327
53.9062 10.729 0.334
53.9267 10.292 0.327
53.9471 10.438 0.330
53.9676 10.458 0.330
53.9880 10.938 0.338
54.0085 10.906 0.337
54.0290 10.198 0.326
54.0494 10.156 0.325
54.0699 11.448 0.345
54.0904 10.667 0.333
54.1108 10.875 0.337
54.1313 10.885 0.337
54.1517 10.573 0.332
54.1722 10.219 0.326
54.1927 10.969 0.338
54.2131 11.240 0.342
54.2336 10.781 0.335
54.2541 11.344 0.344
54.2745 11.906 0.352
54.2950 12.448 0.360
54.3155 13.219 0.371
54.3359 13.125 0.370
54.3564 14.188 0.384
54.3768 14.646 0.391
54.3973 14.344 0.387
54.4178 12.990 0.368
54.4382 12.313 0.358
54.4587 12.510 0.361
54.4792 12.698 0.364
54.4996 13.302 0.372
54.5201 12.969 0.368
54.5405 12.448 0.360
54.5610 11.969 0.353
54.5815 11.792 0.350
54.6019 10.875 0.337
54.6224 10.979 0.338
54.6429 10.531 0.331
54.6633 10.531 0.331
54.6838 10.792 0.335
54.7042 10.448 0.330
54.7247 10.156 0.325
54.7452 10.427 0.330
54.7656 10.927 0.337
54.7861 10.823 0.336
54.8066 10.885 0.337
54.8270 10.094 0.324
54.8475 10.938 0.338
54.8679 10.917 0.337
54.8884 10.844 0.336
54.9089 10.260 0.327
54.9293 10.906 0.337
54.9498 10.823 0.336
54.9703 10.656 0.333
54.9907 10.448 0.330
55.0112 10.958 0.338
55.0317 10.844 0.336
55.0521 11.167 0.341
55.0726 11.292 0.343
55.0930 11.208 0.342
55.1135 11.469 0.346
55.1340 12.260 0.357
55.1544 11.031 0.339
55.1749 11.063 0.339
55.1954 11.250 0.342
55.2158 11.281 0.343
55.2363 11.500 0.346
55.2567 11.500 0.346
55.2772 11.719 0.349
55.2977 12.104 0.355
55.3181 12.083 0.355
55.3386 12.000 0.354
55.3591 12.146 0.356
55.3795 11.813 0.351
55.4000 11.000 0.339
55.4204 11.302 0.343
55.4409 11.396 0.345
55.4614 11.313 0.343
55.4818 10.823 0.336
55.5023 10.896 0.337
55.5228 11.104 0.340
55.5432 10.833 0.336
55.5637 11.052 0.339
55.5841 10.844 0.336
55.6046 10.729 0.334
55.6251 11.031 0.339
55.6455 10.802 0.335
55.6660 11.146 0.341
55.6865 10.938 0.338
55.7069 10.917 0.337
55.7274 10.750 0.335
55.7478 10.646 0.333
55.7683 11.250 0.342
55.7888 10.635 0.333
55.8092 11.344 0.344
55.8297 10.427 0.330
55.8502 11.292 0.343
55.8706 10.677 0.333
55.8911 10.740 0.334
55.9116 11.042 0.339
55.9320 11.167 0.341
55.9525 10.250 0.327
55.9729 10.938 0.338
55.9934 10.354 0.328
56.0139 11.135 0.341
56.0343 11.000 0.339
56.0548 11.146 0.341
56.0753 11.281 0.343
56.0957 12.000 0.354
56.1162 11.938 0.353
56.1366 12.990 0.368
56.1571 13.542 0.376
56.1776 13.854 0.380
56.1980 14.458 0.388
56.2185 13.135 0.370
56.2390 12.500 0.361
56.2594 12.354 0.359
56.2799 12.021 0.354
56.3003 12.531 0.361
56.3208 12.583 0.362
56.3413 13.188 0.371
56.3617 12.854 0.366
56.3822 11.906 0.352
56.4027 12.344 0.359
56.4231 12.250 0.357
56.4436 12.479 0.361
56.4640 11.948 0.353
56.4845 11.490 0.346
56.5050 11.771 0.350
56.5254 11.698 0.349
56.5459 11.906 0.352
56.5664 11.958 0.353
56.5868 12.042 0.354
56.6073 11.219 0.342
56.6277 11.656 0.348
56.6482 11.292 0.343
56.6687 11.448 0.345
56.6891 10.458 0.330
56.7096 10.656 0.333
56.7301 10.594 0.332
56.7505 11.052 0.339
56.7710 11.240 0.342
56.7915 10.396 0.329
56.8119 10.646 0.333
56.8324 10.688 0.334
56.8528 10.156 0.325
56.8733 10.708 0.334
56.8938 10.375 0.329
56.9142 10.104 0.324
56.9347 9.583 0.316
56.9552 11.396 0.345
56.9756 10.542 0.331
56.9961 9.969 0.322
57.0165 10.438 0.330
57.0370 10.594 0.332
57.0575 9.531 0.315
57.0779 10.396 0.329
57.0984 9.521 0.315
57.1189 10.688 0.334
57.1393 10.573 0.332
57.1598 10.552 0.332
57.1802 9.938 0.322
57.2007 10.219 0.326
57.2212 10.177 0.326
57.2416 9.656 0.317
57.2621 9.740 0.319
57.2826 9.917 0.321
57.3030 9.896 0.321
57.3235 9.667 0.317
57.3439 9.594 0.316
57.3644 10.344 0.328
57.3849 10.406 0.329
57.4053 10.917 0.337
57.4258 10.198 0.326
57.4463 10.281 0.327
57.4667 9.792 0.319
57.4872 9.333 0.312
57.5076 9.833 0.320
57.5281 10.677 0.333
57.5486 9.760 0.319
57.5690 10.198 0.326
57.5895 10.073 0.324
57.6100 10.146 0.325
57.6304 10.000 0.323
57.6509 9.573 0.316
57.6714 9.740 0.319
57.6918 9.688 0.318
57.7123 9.875 0.321
57.7327 10.208 0.326
57.7532 9.865 0.321
57.7737 9.698 0.318
57.7941 10.188 0.326
57.8146 10.000 0.323
57.8351 9.688 0.318
57.8555 9.500 0.315
57.8760 10.000 0.323
57.8964 10.083 0.324
57.9169 10.302 0.328
57.9374 9.896 0.321
57.9578 9.469 0.314
57.9783 10.552 0.332
57.9988 10.208 0.326
58.0192 9.427 0.313
58.0397 10.417 0.329
58.0601 10.333 0.328
58.0806 10.563 0.332
58.1011 10.375 0.329
58.1215 9.688 0.318
58.1420 10.281 0.327
58.1625 9.792 0.319
58.1829 10.042 0.323
58.2034 10.177 0.326
58.2238 9.698 0.318
58.2443 9.938 0.322
58.2648 9.948 0.322
58.2852 9.750 0.319
58.3057 9.188 0.309
58.3262 9.656 0.317
58.3466 9.833 0.320
58.3671 9.646 0.317
58.3875 10.177 0.326
58.4080 10.042 0.323
58.4285 10.104 0.324
58.4489 9.427 0.313
58.4694 10.063 0.324
58.4899 10.313 0.328
58.5103 9.906 0.321
58.5308 9.885 0.321
58.5513 10.281 0.327
58.5717 9.875 0.321
58.5922 10.021 0.323
58.6126 9.594 0.316
58.6331 10.396 0.329
58.6536 10.021 0.323
58.6740 10.000 0.323
58.6945 10.448 0.330
58.7150 10.375 0.329
58.7354 9.802 0.320
58.7559 10.500 0.331
58.7763 10.177 0.326
58.7968 10.490 0.331
58.8173 10.146 0.325
58.8377 9.958 0.322
58.8582 9.542 0.315
58.8787 9.854 0.320
58.8991 9.948 0.322
58.9196 10.125 0.325
58.9400 10.000 0.323
58.9605 10.010 0.323
58.9810 9.885 0.321
59.0014 10.344 0.328
59.0219 9.677 0.317
59.0424 10.313 0.328
59.0628 9.760 0.319
59.0833 9.719 0.318
59.1037 10.104 0.324
59.1242 10.198 0.326
59.1447 9.948 0.322
59.1651 10.156 0.325
59.1856 10.656 0.333
59.2061 10.208 0.326
59.2265 10.448 0.330
59.2470 9.833 0.320
59.2675 10.531 0.331
59.2879 10.000 0.323
59.3084 10.521 0.331
59.3288 10.427 0.330
59.3493 10.635 0.333
59.3698 10.958 0.338
59.3902 10.813 0.336
59.4107 10.438 0.330
59.4312 10.479 0.330
59.4516 10.813 0.336
59.4721 10.292 0.327
59.4925 10.260 0.327
59.5130 10.146 0.325
59.5335 10.802 0.335
59.5539 9.990 0.323
59.5744 10.813 0.336
59.5949 10.552 0.332
59.6153 10.688 0.334
59.6358 10.479 0.330
59.6562 10.344 0.328
59.6767 10.052 0.324
59.6972 10.250 0.327
59.7176 10.167 0.325
59.7381 9.531 0.315
59.7586 10.021 0.323
59.7790 9.698 0.318
59.7995 10.292 0.327
59.8199 9.823 0.320
59.8404 10.042 0.323
59.8609 10.646 0.333
59.8813 9.885 0.321
59.9018 9.635 0.317
59.9223 10.073 0.324
59.9427 10.927 0.337
59.9632 11.240 0.342
59.9836 10.854 0.336
60.0041 11.198 0.342
60.0246 10.854 0.336
60.0450 10.771 0.335
60.0655 10.531 0.331
60.0860 11.073 0.340
60.1064 10.823 0.336
60.1269 10.156 0.325
60.1474 10.250 0.327
60.1678 10.583 0.332
60.1883 11.125 0.340
60.2087 10.510 0.331
60.2292 10.115 0.325
60.2497 10.729 0.334
60.2701 10.021 0.323
60.2906 9.708 0.318
60.3111 10.302 0.328
60.3315 10.156 0.325
60.3520 10.177 0.326
60.3724 9.260 0.311
60.3929 10.146 0.325
60.4134 9.979 0.322
60.4338 10.354 0.328
60.4543 9.646 0.317
60.4748 9.896 0.321
60.4952 10.208 0.326
60.5157 9.802 0.320
60.5361 9.417 0.313
60.5566 10.250 0.327
60.5771 10.500 0.331
60.5975 9.615 0.316
60.6180 9.990 0.323
60.6385 10.010 0.323
60.6589 9.990 0.323
60.6794 10.448 0.330
60.6998 9.896 0.321
60.7203 10.021 0.323
60.7408 9.958 0.322
60.7612 9.833 0.320
60.7817 10.344 0.328
60.8022 9.323 0.312
60.8226 9.698 0.318
60.8431 9.635 0.317
60.8635 9.854 0.320
60.8840 9.448 0.314
60.9045 10.479 0.330
60.9249 9.750 0.319
60.9454 9.531 0.315
60.9659 9.542 0.315
60.9863 9.667 0.317
61.0068 9.667 0.317
61.0273 9.615 0.316
61.0477 9.583 0.316
61.0682 9.469 0.314
61.0886 10.083 0.324
61.1091 9.667 0.317
61.1296 9.729 0.318
61.1500 10.229 0.326
61.1705 9.958 0.322
61.1910 9.760 0.319
61.2114 9.271 0.311
61.2319 9.792 0.319
61.2523 10.010 0.323
61.2728 9.625 0.317
61.2933 9.229 0.310
61.3137 9.802 0.320
61.3342 9.677 0.317
61.3547 9.448 0.314
61.3751 9.542 0.315
61.3956 9.833 0.320
61.4160 9.750 0.319
61.4365 9.656 0.317
61.4570 9.615 0.316
61.4774 9.792 0.319
61.4979 9.760 0.319
61.5184 9.521 0.315
61.5388 9.396 0.313
61.5593 9.219 0.310
61.5797 9.677 0.317
61.6002 9.198 0.310
61.6207 9.573 0.316
61.6411 9.635 0.317
61.6616 9.188 0.309
61.6821 9.229 0.310
61.7025 9.573 0.316
61.7230 9.385 0.313
61.7434 9.938 0.322
61.7639 9.354 0.312
61.7844 9.156 0.309
61.8048 9.635 0.317
61.8253 9.375 0.313
61.8458 8.677 0.301
61.8662 9.500 0.315
61.8867 9.854 0.320
61.9072 8.885 0.304
61.9276 8.677 0.301
61.9481 9.583 0.316
61.9685 9.365 0.312
61.9890 9.500 0.315
62.0095 9.219 0.310
62.0299 9.760 0.319
62.0504 8.917 0.305
62.0709 9.781 0.319
62.0913 9.427 0.313
62.1118 9.323 0.312
62.1322 9.948 0.322
62.1527 9.906 0.321
62.1732 9.979 0.322
62.1936 10.073 0.324
62.2141 11.115 0.340
62.2346 10.917 0.337
62.2550 11.271 0.343
62.2755 11.385 0.344
62.2959 11.052 0.339
62.3164 10.917 0.337
62.3369 11.333 0.344
62.3573 10.719 0.334
62.3778 11.354 0.344
62.3983 11.000 0.339
62.4187 11.792 0.350
62.4392 11.688 0.349
62.4596 11.635 0.348
62.4801 11.792 0.350
62.5006 11.250 0.342
62.5210 11.333 0.344
62.5415 11.250 0.342
62.5620 12.031 0.354
62.5824 12.260 0.357
62.6029 12.438 0.360
62.6233 12.469 0.360
62.6438 11.510 0.346
62.6643 11.781 0.350
62.6847 10.635 0.333
62.7052 9.854 0.320
62.7257 10.604 0.332
62.7461 10.667 0.333
62.7666 10.917 0.337
62.7871 10.406 0.329
62.8075 10.167 0.325
62.8280 9.677 0.317
62.8484 9.833 0.320
62.8689 9.813 0.320
62.8894 9.958 0.322
62.9098 8.927 0.305
62.9303 9.875 0.321
62.9508 8.427 0.296
62.9712 9.031 0.307
62.9917 8.854 0.304
63.0121 9.292 0.311
63.0326 9.240 0.310
63.0531 9.542 0.315
63.0735 9.500 0.315
63.0940 9.042 0.307
63.1145 9.260 0.311
63.1349 9.854 0.320
63.1554 8.958 0.305
63.1758 9.177 0.309
63.1963 9.563 0.316
63.2168 8.948 0.305
63.2372 9.396 0.313
63.2577 9.177 0.309
63.2782 9.250 0.310
63.2986 9.292 0.311
63.3191 9.281 0.311
63.3395 9.052 0.307
63.3600 8.833 0.303
63.3805 8.875 0.304
63.4009 9.208 0.310
63.4214 8.708 0.301
63.4419 9.073 0.307
63.4623 9.292 0.311
63.4828 8.365 0.295
63.5033 8.604 0.299
63.5237 9.573 0.316
63.5442 9.250 0.310
63.5646 9.042 0.307
63.5851 9.188 0.309
63.6056 8.844 0.304
63.6260 9.333 0.312
63.6465 9.219 0.310
63.6670 9.302 0.311
63.6874 9.781 0.319
63.7079 9.583 0.316
63.7283 10.073 0.324
63.7488 9.469 0.314
63.7693 9.344 0.312
63.7897 9.948 0.322
63.8102 9.281 0.311
63.8307 9.198 0.310
63.8511 9.094 0.308
63.8716 9.104 0.308
63.8920 9.354 0.312
63.9125 8.917 0.305
63.9330 9.260 0.311
63.9534 9.521 0.315
63.9739 9.375 0.313
63.9944 9.615 0.316
64.0148 9.167 0.309
64.0353 9.448 0.314
64.0557 8.802 0.303
64.0762 9.604 0.316
64.0967 9.260 0.311
64.1171 9.417 0.313
64.1376 10.448 0.330
64.1581 10.063 0.324
64.1785 10.875 0.337
64.1990 11.698 0.349
64.2194 11.792 0.350
64.2399 12.844 0.366
64.2604 12.563 0.362
64.2808 13.448 0.374
64.3013 12.802 0.365
64.3218 11.750 0.350
64.3422 11.490 0.346
64.3627 10.313 0.328
64.3832 10.875 0.337
64.4036 11.688 0.349
64.4241 10.875 0.337
64.4445 11.115 0.340
64.4650 10.917 0.337
64.4855 11.167 0.341
64.5059 10.354 0.328
64.5264 10.125 0.325
64.5469 9.365 0.312
64.5673 9.573 0.316
64.5878 9.292 0.311
64.6082 8.667 0.300
64.6287 9.323 0.312
64.6492 9.229 0.310
64.6696 9.385 0.313
64.6901 9.042 0.307
64.7106 8.906 0.305
64.7310 9.052 0.307
64.7515 9.240 0.310
64.7719 8.375 0.295
64.7924 9.323 0.312
64.8129 9.000 0.306
64.8333 8.583 0.299
64.8538 8.740 0.302
64.8743 8.469 0.297
64.8947 8.104 0.291
64.9152 8.927 0.305
64.9356 8.604 0.299
64.9561 9.135 0.308
64.9766 9.135 0.308
64.9970 8.479 0.297
65.0175 8.667 0.300
65.0380 8.375 0.295
65.0584 8.615 0.300
65.0789 8.500 0.298
65.0993 9.115 0.308
65.1198 8.573 0.299
65.1403 8.823 0.303
65.1607 7.948 0.288
65.1812 8.750 0.302
65.2017 8.656 0.300
65.2221 8.781 0.302
65.2426 8.563 0.299
65.2631 8.781 0.302
65.2835 8.656 0.300
65.3040 8.563 0.299
65.3244 8.573 0.299
65.3449 8.510 0.298
65.3654 8.615 0.300
65.3858 8.760 0.302
65.4063 8.146 0.291
65.4268 8.406 0.296
65.4472 8.208 0.292
65.4677 8.156 0.291
65.4881 9.333 0.312
65.5086 8.406 0.296
65.5291 8.667 0.300
65.5495 8.313 0.294
65.5700 8.552 0.298
65.5905 8.948 0.305
65.6109 9.031 0.307
65.6314 8.146 0.291
65.6518 8.698 0.301
65.6723 9.219 0.310
65.6928 8.740 0.302
65.7132 8.854 0.304
65.7337 9.156 0.309
65.7542 8.677 0.301
65.7746 9.271 0.311
65.7951 8.823 0.303
65.8155 8.250 0.293
65.8360 7.781 0.285
65.8565 9.573 0.316
65.8769 8.688 0.301
65.8974 9.188 0.309
65.9179 8.656 0.300
65.9383 8.792 0.303
65.9588 8.990 0.306
65.9792 8.500 0.298
65.9997 8.938 0.305
66.0202 8.458 0.297
66.0406 8.740 0.302
66.0611 9.365 0.312
66.0816 8.760 0.302
66.1020 8.438 0.296
66.1225 8.729 0.302
66.1430 8.344 0.295
66.1634 8.573 0.299
66.1839 8.188 0.292
66.2043 8.542 0.298
66.2248 8.604 0.299
66.2453 8.427 0.296
66.2657 8.281 0.294
66.2862 8.542 0.298
66.3067 8.760 0.302
66.3271 8.604 0.299
66.3476 8.917 0.305
66.3680 8.594 0.299
66.3885 8.406 0.296
66.4090 9.073 0.307
66.4294 8.708 0.301
66.4499 8.792 0.303
66.4704 8.229 0.293
66.4908 8.740 0.302
66.5113 8.448 0.297
66.5317 8.073 0.290
66.5522 8.906 0.305
66.5727 8.146 0.291
66.5931 8.635 0.300
66.6136 8.323 0.294
66.6341 9.010 0.306
66.6545 8.719 0.301
66.6750 8.323 0.294
66.6954 9.125 0.308
66.7159 8.083 0.290
66.7364 8.760 0.302
66.7568 8.823 0.303
66.7773 8.365 0.295
66.7978 9.188 0.309
66.8182 8.677 0.301
66.8387 8.042 0.289
66.8591 8.458 0.297
66.8796 8.510 0.298
66.9001 8.479 0.297
66.9205 8.604 0.299
66.9410 9.021 0.307
66.9615 8.479 0.297
66.9819 8.781 0.302
67.0024 8.375 0.295
67.0229 8.510 0.298
67.0433 8.615 0.300
67.0638 8.500 0.298
67.0842 8.750 0.302
67.1047 8.802 0.303
67.1252 8.448 0.297
67.1456 9.115 0.308
67.1661 8.927 0.305
67.1866 8.563 0.299
67.2070 8.604 0.299
67.2275 9.125 0.308
67.2479 9.208 0.310
67.2684 8.469 0.297
67.2889 8.417 0.296
67.3093 8.333 0.295
67.3298 8.969 0.306
67.3503 8.417 0.296
67.3707 8.906 0.305
67.3912 8.865 0.304
67.4116 9.073 0.307
67.4321 8.760 0.302
67.4526 8.625 0.300
67.4730 8.583 0.299
67.4935 8.083 0.290
67.5140 8.302 0.294
67.5344 8.531 0.298
67.5549 8.844 0.304
67.5753 8.635 0.300
67.5958 8.125 0.291
67.6163 8.698 0.301
67.6367 8.604 0.299
67.6572 8.208 0.292
67.6777 8.583 0.299
67.6981 8.708 0.301
67.7186 8.792 0.303
67.7391 8.219 0.293
67.7595 8.052 0.290
67.7800 8.365 0.295
67.8004 8.406 0.296
67.8209 8.583 0.299
67.8414 8.188 0.292
67.8618 8.458 0.297
67.8823 8.594 0.299
67.9028 8.156 0.291
67.9232 8.271 0.294
67.9437 8.198 0.292
67.9641 8.135 0.291
67.9846 8.396 0.296
68.0051 8.479 0.297
68.0255 8.333 0.295
68.0460 8.281 0.294
68.0665 8.031 0.289
68.0869 8.073 0.290
68.1074 8.698 0.301
68.1278 8.615 0.300
68.1483 7.823 0.285
68.1688 8.198 0.292
68.1892 8.219 0.293
68.2097 8.802 0.303
68.2302 8.708 0.301
68.2506 8.688 0.301
68.2711 8.104 0.291
68.2915 7.854 0.286
68.3120 8.125 0.291
68.3325 8.198 0.292
68.3529 8.156 0.291
68.3734 8.635 0.300
68.3939 8.552 0.298
68.4143 8.646 0.300
68.4348 8.490 0.297
68.4552 8.427 0.296
68.4757 8.010 0.289
68.4962 8.417 0.296
68.5166 8.344 0.295
68.5371 8.542 0.298
68.5576 8.104 0.291
68.5780 8.500 0.298
68.5985 8.219 0.293
68.6190 7.927 0.287
68.6394 8.490 0.297
68.6599 8.063 0.290
68.6803 8.219 0.293
68.7008 8.115 0.291
68.7213 8.396 0.296
68.7417 8.417 0.296
68.7622 8.542 0.298
68.7827 8.260 0.293
68.8031 8.000 0.289
68.8236 8.094 0.290
68.8440 8.031 0.289
68.8645 8.323 0.294
68.8850 7.875 0.286
68.9054 8.354 0.295
68.9259 8.063 0.290
68.9464 8.563 0.299
68.9668 8.615 0.300
68.9873 8.281 0.294
69.0077 8.000 0.289
69.0282 8.271 0.294
69.0487 8.198 0.292
69.0691 8.156 0.291
69.0896 7.875 0.286
69.1101 8.542 0.298
69.1305 8.021 0.289
69.1510 8.177 0.292
69.1714 7.531 0.280
69.1919 7.948 0.288
69.2124 8.281 0.294
69.2328 7.760 0.284
69.2533 8.094 0.290
69.2738 8.104 0.291
69.2942 7.771 0.285
69.3147 7.656 0.282
69.3351 8.146 0.291
69.3556 7.875 0.286
69.3761 8.448 0.297
69.3965 7.854 0.286
69.4170 7.760 0.284
69.4375 8.292 0.294
69.4579 8.250 0.293
69.4784 8.198 0.292
69.4989 8.333 0.295
69.5193 8.333 0.295
69.5398 8.125 0.291
69.5602 8.250 0.293
69.5807 8.542 0.298
69.6012 8.292 0.294
69.6216 8.177 0.292
69.6421 7.854 0.286
69.6626 8.073 0.290
69.6830 8.177 0.292
69.7035 7.844 0.286
69.7239 8.438 0.296
69.7444 8.375 0.295
69.7649 8.708 0.301
69.7853 7.823 0.285
69.8058 7.698 0.283
69.8263 8.438 0.296
69.8467 8.115 0.291
69.8672 7.729 0.284
69.8876 8.417 0.296
69.9081 8.292 0.294
69.9286 8.302 0.294
69.9490 8.000 0.289
69.9695 7.750 0.284
69.9900 7.698 0.283
70.0104 7.969 0.288
70.0309 7.646 0.282
70.0513 7.823 0.285
70.0718 7.927 0.287
70.0923 7.833 0.286
70.1127 7.531 0.280
70.1332 7.969 0.288
70.1537 7.604 0.281
70.1741 7.844 0.286
70.1946 8.313 0.294
70.2150 7.958 0.288
70.2355 7.604 0.281
70.2560 7.854 0.286
70.2764 8.031 0.289
70.2969 8.250 0.293
70.3174 8.667 0.300
70.3378 7.833 0.286
70.3583 7.479 0.279
70.3788 8.135 0.291
70.3992 7.958 0.288
70.4197 8.052 0.290
70.4401 7.865 0.286
70.4606 7.708 0.283
70.4811 8.021 0.289
70.5015 7.969 0.288
70.5220 7.823 0.285
70.5425 7.865 0.286
70.5629 8.344 0.295
70.5834 6.917 0.268
70.6038 8.052 0.290
70.6243 7.542 0.280
70.6448 8.156 0.291
70.6652 8.104 0.291
70.6857 7.865 0.286
70.7062 7.677 0.283
70.7266 8.052 0.290
70.7471 7.750 0.284
70.7675 8.406 0.296
70.7880 7.719 0.284
70.8085 7.354 0.277
70.8289 7.531 0.280
70.8494 7.802 0.285
70.8699 8.500 0.298
70.8903 7.583 0.281
70.9108 7.510 0.280
70.9312 8.073 0.290
70.9517 8.438 0.296
70.9722 7.885 0.287
70.9926 7.667 0.283
71.0131 8.250 0.293
71.0336 7.865 0.286
71.0540 8.323 0.294
71.0745 8.115 0.291
71.0949 7.948 0.288
71.1154 8.500 0.298
71.1359 8.177 0.292
71.1563 7.948 0.288
71.1768 8.479 0.297
71.1973 7.906 0.287
71.2177 8.000 0.289
71.2382 8.031 0.289
71.2587 8.260 0.293
71.2791 8.302 0.294
71.2996 7.500 0.280
71.3200 7.542 0.280
71.3405 8.104 0.291
71.3610 8.188 0.292
71.3814 8.385 0.296
71.4019 8.177 0.292
71.4224 7.281 0.275
71.4428 8.260 0.293
71.4633 7.781 0.285
71.4837 7.656 0.282
71.5042 8.094 0.290
71.5247 7.563 0.281
71.5451 8.240 0.293
71.5656 7.833 0.286
71.5861 7.990 0.288
71.6065 8.396 0.296
71.6270 7.750 0.284
71.6474 7.938 0.288
71.6679 8.583 0.299
71.6884 8.052 0.290
71.7088 8.573 0.299
71.7293 8.438 0.296
71.7498 8.125 0.291
71.7702 9.083 0.308
71.7907 8.750 0.302
71.8111 8.417 0.296
71.8316 8.417 0.296
71.8521 7.927 0.287
71.8725 8.208 0.292
71.8930 8.646 0.300
71.9135 8.365 0.295
71.9339 8.156 0.291
71.9544 8.469 0.297
71.9749 8.688 0.301
71.9953 8.458 0.297
72.0158 8.271 0.294
72.0362 8.104 0.291
72.0567 8.198 0.292
72.0772 8.063 0.290
72.0976 8.052 0.290
72.1181 8.094 0.290
72.1386 7.979 0.288
72.1590 7.781 0.285
72.1795 7.833 0.286
72.1999 7.813 0.285
72.2204 7.823 0.285
72.2409 8.146 0.291
72.2613 7.865 0.286
72.2818 7.406 0.278
72.3023 7.917 0.287
72.3227 7.750 0.284
72.3432 7.719 0.284
72.3636 8.000 0.289
72.3841 7.177 0.273
72.4046 8.135 0.291
72.4250 7.708 0.283
72.4455 7.406 0.278
72.4660 7.833 0.286
72.4864 7.760 0.284
72.5069 7.927 0.287
72.5273 7.792 0.285
72.5478 7.396 0.278
72.5683 8.010 0.289
72.5887 7.552 0.280
72.6092 7.635 0.282
72.6297 7.906 0.287
72.6501 7.563 0.281
72.6706 8.073 0.290
72.6910 7.615 0.282
72.7115 8.021 0.289
72.7320 7.635 0.282
72.7524 7.750 0.284
72.7729 7.135 0.273
72.7934 7.844 0.286
72.8138 7.510 0.280
72.8343 7.896 0.287
72.8548 7.698 0.283
72.8752 7.719 0.284
72.8957 7.479 0.279
72.9161 8.417 0.296
72.9366 7.938 0.288
72.9571 7.833 0.286
72.9775 7.948 0.288
72.9980 7.448 0.279
73.0185 7.938 0.288
73.0389 7.510 0.280
73.0594 7.344 0.277
73.0798 7.875 0.286
73.1003 7.323 0.276
73.1208 7.354 0.277
73.1412 7.104 0.272
73.1617 7.604 0.281
73.1822 7.865 0.286
73.2026 7.948 0.288
73.2231 7.833 0.286
73.2435 7.771 0.285
73.2640 8.344 0.295
73.2845 7.417 0.278
73.3049 7.854 0.286
73.3254 7.396 0.278
73.3459 7.167 0.273
73.3663 7.542 0.280
73.3868 7.750 0.284
73.4072 7.490 0.279
73.4277 7.583 0.281
73.4482 7.240 0.275
73.4686 7.542 0.280
73.4891 7.729 0.284
73.5096 7.781 0.285
73.5300 7.635 0.282
73.5505 8.260 0.293
73.5709 7.771 0.285
73.5914 7.802 0.285
73.6119 7.417 0.278
73.6323 7.240 0.275
73.6528 7.375 0.277
73.6733 7.969 0.288
73.6937 8.177 0.292
73.7142 7.281 0.275
73.7347 7.375 0.277
73.7551 7.729 0.284
73.7756 8.240 0.293
73.7960 7.844 0.286
73.8165 7.365 0.277
73.8370 7.271 0.275
73.8574 7.323 0.276
73.8779 7.698 0.283
73.8984 7.198 0.274
73.9188 7.688 0.283
73.9393 8.083 0.290
73.9597 7.240 0.275
73.9802 7.531 0.280
74.0007 7.635 0.282
74.0211 7.469 0.279
74.0416 7.500 0.280
74.0621 7.292 0.276
74.0825 7.469 0.279
74.1030 7.583 0.281
74.1234 7.542 0.280
74.1439 7.625 0.282
74.1644 7.927 0.287
74.1848 7.510 0.280
74.2053 7.313 0.276
74.2258 7.094 0.272
74.2462 7.625 0.282
74.2667 7.667 0.283
74.2871 7.615 0.282
74.3076 7.323 0.276
74.3281 7.344 0.277
74.3485 7.385 0.277
74.3690 8.198 0.292
74.3895 7.240 0.275
74.4099 7.917 0.287
74.4304 6.979 0.270
74.4508 7.698 0.283
74.4713 7.406 0.278
74.4918 7.479 0.279
74.5122 7.740 0.284
74.5327 7.781 0.285
74.5532 7.844 0.286
74.5736 7.573 0.281
74.5941 7.208 0.274
74.6146 7.365 0.277
74.6350 7.615 0.282
74.6555 7.740 0.284
74.6759 8.010 0.289
74.6964 7.417 0.278
74.7169 7.323 0.276
74.7373 7.635 0.282
74.7578 7.177 0.273
74.7783 7.635 0.282
74.7987 7.417 0.278
74.8192 7.958 0.288
74.8396 7.510 0.280
74.8601 7.146 0.273
74.8806 7.010 0.270
74.9010 7.854 0.286
74.9215 7.875 0.286
74.9420 7.719 0.284
74.9624 7.479 0.279
74.9829 7.406 0.278
75.0033 7.854 0.286
75.0238 7.344 0.277
75.0443 7.438 0.278
75.0647 7.635 0.282
75.0852 7.219 0.274
75.1057 7.354 0.277
75.1261 7.896 0.287
75.1466 7.948 0.288
75.1670 7.052 0.271
75.1875 7.458 0.279
75.2080 7.125 0.272
75.2284 7.115 0.272
75.2489 7.448 0.279
75.2694 6.719 0.265
75.2898 7.688 0.283
75.3103 7.115 0.272
75.3307 7.604 0.281
75.3512 7.417 0.278
75.3717 7.448 0.279
75.3921 7.177 0.273
75.4126 7.135 0.273
75.4331 7.281 0.275
75.4535 7.458 0.279
75.4740 7.344 0.277
75.4945 7.271 0.275
75.5149 7.510 0.280
75.5354 7.948 0.288
75.5558 7.365 0.277
75.5763 8.115 0.291
75.5968 7.635 0.282
75.6172 7.615 0.282
75.6377 7.656 0.282
75.6582 7.646 0.282
75.6786 7.354 0.277
75.6991 7.667 0.283
75.7195 7.417 0.278
75.7400 7.417 0.278
75.7605 7.552 0.280
75.7809 7.563 0.281
75.8014 7.135 0.273
75.8219 7.490 0.279
75.8423 7.396 0.278
75.8628 6.792 0.266
75.8832 7.385 0.277
75.9037 7.688 0.283
75.9242 7.469 0.279
75.9446 7.542 0.280
75.9651 7.698 0.283
75.9856 7.740 0.284
76.0060 7.365 0.277
76.0265 7.229 0.274
76.0469 7.135 0.273
76.0674 8.021 0.289
76.0879 7.979 0.288
76.1083 6.979 0.270
76.1288 7.510 0.280
76.1493 7.427 0.278
76.1697 7.760 0.284
76.1902 7.260 0.275
76.2106 7.052 0.271
76.2311 7.813 0.285
76.2516 7.729 0.284
76.2720 7.344 0.277
76.2925 7.302 0.276
76.3130 7.135 0.273
76.3334 7.198 0.274
76.3539 7.500 0.280
76.3744 7.250 0.275
76.3948 7.802 0.285
76.4153 7.510 0.280
76.4357 7.198 0.274
76.4562 8.010 0.289
76.4767 7.521 0.280
76.4971 7.469 0.279
76.5176 7.177 0.273
76.5381 7.021 0.270
76.5585 7.281 0.275
76.5790 7.427 0.278
76.5994 7.219 0.274
76.6199 7.010 0.270
76.6404 7.438 0.278
76.6608 7.083 0.272
76.6813 7.333 0.276
76.7018 7.781 0.285
76.7222 7.521 0.280
76.7427 7.760 0.284
76.7631 7.000 0.270
76.7836 7.563 0.281
76.8041 7.938 0.288
76.8245 7.656 0.282
76.8450 7.135 0.273
76.8655 7.781 0.285
76.8859 7.490 0.279
76.9064 7.719 0.284
76.9268 7.396 0.278
76.9473 7.385 0.277
76.9678 7.583 0.281
76.9882 7.344 0.277
77.0087 7.167 0.273
77.0292 7.167 0.273
77.0496 7.708 0.283
77.0701 7.094 0.272
77.0906 7.135 0.273
77.1110 7.271 0.275
77.1315 7.594 0.281
77.1519 7.573 0.281
77.1724 7.552 0.280
77.1929 7.729 0.284
77.2133 7.198 0.274
77.2338 7.104 0.272
77.2543 7.500 0.280
77.2747 7.292 0.276
77.2952 7.177 0.273
77.3156 7.906 0.287
77.3361 7.333 0.276
77.3566 7.323 0.276
77.3770 7.042 0.271
77.3975 7.271 0.275
77.4180 7.833 0.286
77.4384 7.417 0.278
77.4589 7.271 0.275
77.4793 7.844 0.286
77.4998 7.865 0.286
77.5203 6.906 0.268
77.5407 7.281 0.275
77.5612 7.781 0.285
77.5817 7.208 0.274
77.6021 8.313 0.294
77.6226 8.031 0.289
77.6430 8.000 0.289
77.6635 7.979 0.288
77.6840 8.635 0.300
77.7044 8.990 0.306
77.7249 9.625 0.317
77.7454 9.500 0.315
77.7658 9.281 0.311
77.7863 9.083 0.308
77.8067 8.635 0.300
77.8272 9.458 0.314
77.8477 8.094 0.290
77.8681 7.938 0.288
77.8886 7.979 0.288
77.9091 8.427 0.296
77.9295 7.667 0.283
77.9500 8.792 0.303
77.9705 8.010 0.289
77.9909 9.229 0.310
78.0114 8.729 0.302
78.0318 8.000 0.289
78.0523 8.271 0.294
78.0728 8.042 0.289
78.0932 8.073 0.290
78.1137 7.677 0.283
78.1342 7.406 0.278
78.1546 7.594 0.281
78.1751 7.271 0.275
78.1955 7.354 0.277
78.2160 7.615 0.282
78.2365 6.865 0.267
78.2569 7.167 0.273
78.2774 7.479 0.279
78.2979 7.188 0.274
78.3183 7.583 0.281
78.3388 7.542 0.280
78.3592 7.656 0.282
78.3797 7.344 0.277
78.4002 7.198 0.274
78.4206 7.302 0.276
78.4411 6.979 0.270
78.4616 7.125 0.272
78.4820 7.542 0.280
78.5025 7.208 0.274
78.5229 7.229 0.274
78.5434 7.115 0.272
78.5639 7.594 0.281
78.5843 7.031 0.271
78.6048 7.531 0.280
78.6253 7.469 0.279
78.6457 7.406 0.278
78.6662 8.031 0.289
78.6866 7.531 0.280
78.7071 7.469 0.279
78.7276 7.792 0.285
78.7480 7.740 0.284
78.7685 7.375 0.277
78.7890 7.531 0.280
78.8094 7.188 0.274
78.8299 7.813 0.285
78.8504 7.375 0.277
78.8708 7.667 0.283
78.8913 7.167 0.273
78.9117 7.354 0.277
78.9322 7.281 0.275
78.9527 7.896 0.287
78.9731 7.771 0.285
78.9936 7.135 0.273
79.0141 8.240 0.293
79.0345 7.927 0.287
79.0550 8.010 0.289
79.0754 7.844 0.286
79.0959 8.208 0.292
79.1164 7.813 0.285
79.1368 7.406 0.278
79.1573 7.833 0.286
79.1778 7.375 0.277
79.1982 7.719 0.284
79.2187 7.563 0.281
79.2391 7.750 0.284
79.2596 8.063 0.290
79.2801 7.198 0.274
79.3005 8.010 0.289
79.3210 7.667 0.283
79.3415 7.583 0.281
79.3619 7.323 0.276
79.3824 7.625 0.282
79.4028 7.667 0.283
79.4233 8.167 0.292
79.4438 6.948 0.269
79.4642 7.333 0.276
79.4847 7.208 0.274
79.5052 8.000 0.289
79.5256 7.229 0.274
79.5461 7.677 0.283
79.5665 7.146 0.273
79.5870 7.521 0.280
79.6075 7.646 0.282
79.6279 7.375 0.277
79.6484 7.323 0.276
79.6689 6.990 0.270
79.6893 7.406 0.278
79.7098 7.104 0.272
79.7303 6.563 0.261
79.7507 7.427 0.278
79.7712 7.229 0.274
79.7916 7.677 0.283
79.8121 6.865 0.267
79.8326 7.635 0.282
79.8530 7.542 0.280
79.8735 6.938 0.269
79.8940 6.729 0.265
79.9144 7.500 0.280
79.9349 6.927 0.269
79.9553 6.896 0.268
79.9758 6.948 0.269
79.9963 8.010 0.289
