'Id: "" Comment: "Single 30 min qual/quant raw material scan" Operator: "Paul  Stutzman" Anode: "Cu" Scantype: "Locked Coupled" TimePerStep: "175.496" X: "0" Y: "0" Z: "0" 
10.0000 15.966 0.302
10.0156 15.573 0.298
10.0312 16.092 0.303
10.0468 15.790 0.300
10.0625 15.111 0.293
10.0781 15.186 0.294
10.0937 15.476 0.297
10.1093 15.379 0.296
10.1249 15.265 0.295
10.1405 15.550 0.298
10.1562 15.875 0.301
10.1718 14.912 0.291
10.1874 15.146 0.294
10.2030 15.465 0.297
10.2186 15.396 0.296
10.2342 16.023 0.302
10.2498 15.505 0.297
10.2655 15.368 0.296
10.2811 15.345 0.296
10.2967 15.146 0.294
10.3123 15.527 0.297
10.3279 15.556 0.298
10.3435 15.356 0.296
10.3591 15.425 0.296
10.3748 15.664 0.299
10.3904 15.624 0.298
10.4060 15.516 0.297
10.4216 15.790 0.300
10.4372 15.248 0.295
10.4528 15.932 0.301
10.4685 16.120 0.303
10.4841 16.063 0.303
10.4997 15.573 0.298
10.5153 15.562 0.298
10.5309 16.040 0.302
10.5465 15.676 0.299
10.5621 15.790 0.300
10.5778 15.601 0.298
10.5934 15.368 0.296
10.6090 15.579 0.298
10.6246 15.761 0.300
10.6402 15.607 0.298
10.6558 15.852 0.301
10.6714 15.841 0.300
10.6871 15.795 0.300
10.7027 15.448 0.297
10.7183 15.431 0.297
10.7339 15.391 0.296
10.7495 14.980 0.292
10.7651 15.009 0.292
10.7808 14.906 0.291
10.7964 15.157 0.294
10.8120 15.351 0.296
10.8276 15.584 0.298
10.8432 15.396 0.296
10.8588 15.903 0.301
10.8744 14.992 0.292
10.8901 15.254 0.295
10.9057 14.872 0.291
10.9213 15.892 0.301
10.9369 15.448 0.297
10.9525 15.408 0.296
10.9681 15.579 0.298
10.9838 15.265 0.295
10.9994 15.265 0.295
11.0150 15.790 0.300
11.0306 15.453 0.297
11.0462 15.733 0.299
11.0618 15.567 0.298
11.0774 14.758 0.290
11.0931 14.884 0.291
11.1087 14.946 0.292
11.1243 14.963 0.292
11.1399 15.134 0.294
11.1555 15.345 0.296
11.1711 15.180 0.294
11.1867 14.770 0.290
11.2024 15.391 0.296
11.2180 15.197 0.294
11.2336 15.436 0.297
11.2492 15.123 0.294
11.2648 15.374 0.296
11.2804 15.271 0.295
11.2961 15.425 0.296
11.3117 15.339 0.296
11.3273 15.339 0.296
11.3429 14.969 0.292
11.3585 14.980 0.292
11.3741 15.322 0.295
11.3897 15.351 0.296
11.4054 14.633 0.289
11.4210 14.741 0.290
11.4366 15.168 0.294
11.4522 15.396 0.296
11.4678 15.077 0.293
11.4834 15.054 0.293
11.4990 14.673 0.289
11.5147 14.741 0.290
11.5303 15.043 0.293
11.5459 15.436 0.297
11.5615 15.448 0.297
11.5771 15.203 0.294
11.5927 15.271 0.295
11.6084 15.026 0.293
11.6240 15.197 0.294
11.6396 15.670 0.299
11.6552 15.015 0.292
11.6708 15.413 0.296
11.6864 16.223 0.304
11.7020 15.077 0.293
11.7177 15.345 0.296
11.7333 15.807 0.300
11.7489 15.960 0.302
11.7645 15.869 0.301
11.7801 15.727 0.299
11.7957 16.473 0.306
11.8114 15.658 0.299
11.8270 15.972 0.302
11.8426 16.194 0.304
11.8582 16.319 0.305
11.8738 16.462 0.306
11.8894 16.730 0.309
11.9050 17.072 0.312
11.9207 17.436 0.315
11.9363 17.419 0.315
11.9519 19.100 0.330
11.9675 18.525 0.325
11.9831 20.405 0.341
11.9987 20.804 0.344
12.0143 22.285 0.356
12.0300 23.499 0.366
12.0456 24.827 0.376
12.0612 27.209 0.394
12.0768 29.539 0.410
12.0924 31.835 0.426
12.1080 35.585 0.450
12.1237 38.947 0.471
12.1393 41.471 0.486
12.1549 43.790 0.500
12.1705 44.708 0.505
12.1861 43.984 0.501
12.2017 41.767 0.488
12.2173 37.676 0.463
12.2330 33.357 0.436
12.2486 29.106 0.407
12.2642 25.129 0.378
12.2798 21.847 0.353
12.2954 19.174 0.331
12.3110 17.961 0.320
12.3266 18.035 0.321
12.3423 17.055 0.312
12.3579 16.388 0.306
12.3735 16.126 0.303
12.3891 16.262 0.304
12.4047 16.753 0.309
12.4203 15.966 0.302
12.4360 15.767 0.300
12.4516 15.795 0.300
12.4672 15.664 0.299
12.4828 14.958 0.292
12.4984 15.607 0.298
12.5140 15.824 0.300
12.5296 15.505 0.297
12.5453 15.111 0.293
12.5609 15.032 0.293
12.5765 15.260 0.295
12.5921 15.493 0.297
12.6077 15.083 0.293
12.6233 16.166 0.304
12.6390 15.009 0.292
12.6546 14.992 0.292
12.6702 15.311 0.295
12.6858 15.619 0.298
12.7014 14.724 0.290
12.7170 15.465 0.297
12.7326 14.684 0.289
12.7483 15.214 0.294
12.7639 15.032 0.293
12.7795 15.015 0.292
12.7951 14.695 0.289
12.8107 14.969 0.292
12.8263 14.787 0.290
12.8419 15.402 0.296
12.8576 14.604 0.288
12.8732 15.470 0.297
12.8888 15.408 0.296
12.9044 15.715 0.299
12.9200 15.425 0.296
12.9356 15.043 0.293
12.9513 16.547 0.307
12.9669 15.926 0.301
12.9825 15.886 0.301
12.9981 15.545 0.298
13.0137 15.972 0.302
13.0293 15.886 0.301
13.0449 15.186 0.294
13.0606 15.738 0.299
13.0762 15.807 0.300
13.0918 14.684 0.289
13.1074 15.448 0.297
13.1230 15.299 0.295
13.1386 15.271 0.295
13.1543 15.094 0.293
13.1699 14.371 0.286
13.1855 14.570 0.288
13.2011 14.878 0.291
13.2167 14.513 0.288
13.2323 15.100 0.293
13.2479 14.884 0.291
13.2636 14.177 0.284
13.2792 14.764 0.290
13.2948 14.530 0.288
13.3104 14.952 0.292
13.3260 15.094 0.293
13.3416 14.393 0.286
13.3572 14.986 0.292
13.3729 14.804 0.290
13.3885 14.114 0.284
13.4041 14.787 0.290
13.4197 14.639 0.289
13.4353 14.593 0.288
13.4509 14.126 0.284
13.4666 14.388 0.286
13.4822 14.656 0.289
13.4978 15.072 0.293
13.5134 14.946 0.292
13.5290 14.644 0.289
13.5446 14.376 0.286
13.5602 14.536 0.288
13.5759 14.154 0.284
13.5915 14.456 0.287
13.6071 13.943 0.282
13.6227 14.462 0.287
13.6383 14.661 0.289
13.6539 14.701 0.289
13.6695 14.422 0.287
13.6852 15.100 0.293
13.7008 13.761 0.280
13.7164 14.433 0.287
13.7320 14.297 0.285
13.7476 14.354 0.286
13.7632 14.097 0.283
13.7789 14.342 0.286
13.7945 14.148 0.284
13.8101 14.433 0.287
13.8257 14.091 0.283
13.8413 14.422 0.287
13.8569 14.923 0.292
13.8725 14.137 0.284
13.8882 14.496 0.287
13.9038 14.188 0.284
13.9194 14.109 0.284
13.9350 14.280 0.285
13.9506 14.331 0.286
13.9662 14.274 0.285
13.9819 13.721 0.280
13.9975 14.376 0.286
14.0131 14.052 0.283
14.0287 14.547 0.288
14.0443 13.972 0.282
14.0599 14.046 0.283
14.0755 13.989 0.282
14.0912 14.359 0.286
14.1068 14.559 0.288
14.1224 14.120 0.284
14.1380 13.921 0.282
14.1536 13.903 0.281
14.1692 14.086 0.283
14.1848 13.841 0.281
14.2005 13.943 0.282
14.2161 14.091 0.283
14.2317 14.490 0.287
14.2473 14.610 0.289
14.2629 14.205 0.285
14.2785 14.291 0.285
14.2942 14.297 0.285
14.3098 14.223 0.285
14.3254 14.302 0.285
14.3410 14.040 0.283
14.3566 14.479 0.287
14.3722 13.727 0.280
14.3878 13.613 0.279
14.4035 14.114 0.284
14.4191 14.240 0.285
14.4347 13.431 0.277
14.4503 13.898 0.281
14.4659 14.291 0.285
14.4815 13.835 0.281
14.4971 14.308 0.286
14.5128 13.567 0.278
14.5284 13.647 0.279
14.5440 14.017 0.283
14.5596 13.681 0.279
14.5752 14.331 0.286
14.5908 13.573 0.278
14.6065 14.297 0.285
14.6221 13.841 0.281
14.6377 13.727 0.280
14.6533 13.687 0.279
14.6689 13.812 0.281
14.6845 14.097 0.283
14.7001 13.829 0.281
14.7158 14.240 0.285
14.7314 14.131 0.284
14.7470 13.989 0.282
14.7626 13.926 0.282
14.7782 13.966 0.282
14.7938 14.228 0.285
14.8095 13.824 0.281
14.8251 14.308 0.286
14.8407 13.744 0.280
14.8563 13.636 0.279
14.8719 13.761 0.280
14.8875 14.331 0.286
14.9031 14.177 0.284
14.9188 13.601 0.278
14.9344 14.194 0.284
14.9500 14.029 0.283
14.9656 14.439 0.287
14.9812 14.154 0.284
14.9968 14.103 0.283
15.0124 14.319 0.286
15.0281 13.807 0.280
15.0437 13.311 0.275
15.0593 13.955 0.282
15.0749 13.903 0.281
15.0905 13.915 0.282
15.1061 13.772 0.280
15.1218 13.721 0.280
15.1374 13.869 0.281
15.1530 13.738 0.280
15.1686 13.676 0.279
15.1842 13.915 0.282
15.1998 14.063 0.283
15.2154 13.619 0.279
15.2311 13.921 0.282
15.2467 13.784 0.280
15.2623 13.698 0.279
15.2779 13.510 0.277
15.2935 14.006 0.283
15.3091 13.681 0.279
15.3247 14.171 0.284
15.3404 13.311 0.275
15.3560 13.322 0.276
15.3716 13.960 0.282
15.3872 13.972 0.282
15.4028 13.516 0.278
15.4184 13.579 0.278
15.4341 13.693 0.279
15.4497 13.607 0.278
15.4653 13.408 0.276
15.4809 13.727 0.280
15.4965 13.516 0.278
15.5121 13.755 0.280
15.5277 13.317 0.275
15.5434 13.869 0.281
15.5590 13.795 0.280
15.5746 13.636 0.279
15.5902 13.949 0.282
15.6058 14.223 0.285
15.6214 14.126 0.284
15.6371 12.906 0.271
15.6527 13.459 0.277
15.6683 14.040 0.283
15.6839 13.778 0.280
15.6995 13.288 0.275
15.7151 13.197 0.274
15.7307 13.487 0.277
15.7464 13.328 0.276
15.7620 13.476 0.277
15.7776 13.818 0.281
15.7932 13.334 0.276
15.8088 13.807 0.280
15.8244 13.305 0.275
15.8400 13.567 0.278
15.8557 14.012 0.283
15.8713 13.094 0.273
15.8869 13.168 0.274
15.9025 13.157 0.274
15.9181 13.288 0.275
15.9337 14.137 0.284
15.9494 13.653 0.279
15.9650 13.579 0.278
15.9806 13.881 0.281
15.9962 13.619 0.279
16.0118 13.647 0.279
16.0274 13.681 0.279
16.0430 13.413 0.276
16.0587 13.260 0.275
16.0743 13.630 0.279
16.0899 13.869 0.281
16.1055 13.619 0.279
16.1211 13.368 0.276
16.1367 13.567 0.278
16.1523 13.339 0.276
16.1680 13.670 0.279
16.1836 13.408 0.276
16.1992 13.544 0.278
16.2148 13.054 0.273
16.2304 13.237 0.275
16.2460 13.231 0.275
16.2617 13.613 0.279
16.2773 13.345 0.276
16.2929 13.493 0.277
16.3085 13.032 0.272
16.3241 13.305 0.275
16.3397 13.391 0.276
16.3553 13.647 0.279
16.3710 13.926 0.282
16.3866 13.459 0.277
16.4022 13.459 0.277
16.4178 13.983 0.282
16.4334 13.094 0.273
16.4490 13.505 0.277
16.4647 13.693 0.279
16.4803 13.789 0.280
16.4959 13.351 0.276
16.5115 13.533 0.278
16.5271 13.693 0.279
16.5427 13.180 0.274
16.5583 14.319 0.286
16.5740 13.311 0.275
16.5896 13.539 0.278
16.6052 13.647 0.279
16.6208 13.453 0.277
16.6364 12.838 0.270
16.6520 13.185 0.274
16.6676 13.054 0.273
16.6833 13.328 0.276
16.6989 13.590 0.278
16.7145 13.174 0.274
16.7301 12.906 0.271
16.7457 13.818 0.281
16.7613 13.522 0.278
16.7770 13.134 0.274
16.7926 13.419 0.277
16.8082 13.721 0.280
16.8238 13.613 0.279
16.8394 13.693 0.279
16.8550 13.134 0.274
16.8706 13.220 0.274
16.8863 13.476 0.277
16.9019 13.299 0.275
16.9175 13.322 0.276
16.9331 13.106 0.273
16.9487 13.864 0.281
16.9643 13.351 0.276
16.9799 13.505 0.277
16.9956 13.448 0.277
17.0112 13.356 0.276
17.0268 13.875 0.281
17.0424 13.938 0.282
17.0580 14.154 0.284
17.0736 14.188 0.284
17.0893 15.151 0.294
17.1049 14.923 0.292
17.1205 14.861 0.291
17.1361 15.294 0.295
17.1517 14.644 0.289
17.1673 14.912 0.291
17.1829 14.963 0.292
17.1986 14.792 0.290
17.2142 14.695 0.289
17.2298 14.354 0.286
17.2454 14.240 0.285
17.2610 13.921 0.282
17.2766 14.211 0.285
17.2923 13.596 0.278
17.3079 13.630 0.279
17.3235 13.807 0.280
17.3391 13.875 0.281
17.3547 13.624 0.279
17.3703 13.989 0.282
17.3859 13.693 0.279
17.4016 13.852 0.281
17.4172 13.653 0.279
17.4328 13.824 0.281
17.4484 14.171 0.284
17.4640 14.057 0.283
17.4796 13.943 0.282
17.4952 13.955 0.282
17.5109 13.220 0.274
17.5265 13.459 0.277
17.5421 13.322 0.276
17.5577 13.789 0.280
17.5733 13.077 0.273
17.5889 13.544 0.278
17.6046 13.163 0.274
17.6202 12.701 0.269
17.6358 12.929 0.271
17.6514 13.203 0.274
17.6670 12.878 0.271
17.6826 12.883 0.271
17.6982 12.838 0.270
17.7139 13.476 0.277
17.7295 13.305 0.275
17.7451 13.322 0.276
17.7607 13.049 0.273
17.7763 12.901 0.271
17.7919 13.060 0.273
17.8076 13.465 0.277
17.8232 13.493 0.277
17.8388 12.855 0.271
17.8544 13.322 0.276
17.8700 13.579 0.278
17.8856 13.197 0.274
17.9012 13.442 0.277
17.9169 13.106 0.273
17.9325 13.328 0.276
17.9481 12.832 0.270
17.9637 13.607 0.278
17.9793 13.334 0.276
17.9949 13.197 0.274
18.0105 13.641 0.279
18.0262 13.733 0.280
18.0418 13.733 0.280
18.0574 13.767 0.280
18.0730 13.448 0.277
18.0886 13.425 0.277
18.1042 13.368 0.276
18.1199 13.516 0.278
18.1355 13.368 0.276
18.1511 13.083 0.273
18.1667 13.362 0.276
18.1823 13.168 0.274
18.1979 13.362 0.276
18.2135 12.747 0.270
18.2292 13.111 0.273
18.2448 12.929 0.271
18.2604 12.764 0.270
18.2760 13.100 0.273
18.2916 12.918 0.271
18.3072 12.901 0.271
18.3228 12.730 0.269
18.3385 13.163 0.274
18.3541 13.185 0.274
18.3697 12.849 0.271
18.3853 13.419 0.277
18.4009 12.872 0.271
18.4165 12.536 0.267
18.4322 12.895 0.271
18.4478 13.715 0.280
18.4634 13.413 0.276
18.4790 13.356 0.276
18.4946 12.399 0.266
18.5102 12.906 0.271
18.5258 12.838 0.270
18.5415 13.271 0.275
18.5571 13.396 0.276
18.5727 12.547 0.267
18.5883 13.277 0.275
18.6039 13.339 0.276
18.6195 13.146 0.274
18.6352 12.878 0.271
18.6508 13.037 0.273
18.6664 12.844 0.271
18.6820 13.032 0.272
18.6976 13.203 0.274
18.7132 12.724 0.269
18.7288 13.020 0.272
18.7445 12.798 0.270
18.7601 13.026 0.272
18.7757 12.815 0.270
18.7913 12.918 0.271
18.8069 12.581 0.268
18.8225 12.980 0.272
18.8381 13.134 0.274
18.8538 12.713 0.269
18.8694 12.849 0.271
18.8850 12.291 0.265
18.9006 13.151 0.274
18.9162 12.017 0.262
18.9318 13.282 0.275
18.9475 13.208 0.274
18.9631 13.208 0.274
18.9787 12.713 0.269
18.9943 12.844 0.271
19.0099 13.465 0.277
19.0255 12.809 0.270
19.0411 13.214 0.274
19.0568 13.054 0.273
19.0724 12.530 0.267
19.0880 12.713 0.269
19.1036 13.026 0.272
19.1192 13.020 0.272
19.1348 12.627 0.268
19.1504 12.707 0.269
19.1661 12.690 0.269
19.1817 12.883 0.271
19.1973 12.883 0.271
19.2129 12.980 0.272
19.2285 12.770 0.270
19.2441 12.485 0.267
19.2598 12.986 0.272
19.2754 12.895 0.271
19.2910 12.559 0.268
19.3066 13.220 0.274
19.3222 12.906 0.271
19.3378 12.952 0.272
19.3534 13.482 0.277
19.3691 12.958 0.272
19.3847 12.570 0.268
19.4003 12.923 0.271
19.4159 12.695 0.269
19.4315 13.322 0.276
19.4471 12.724 0.269
19.4628 12.764 0.270
19.4784 12.758 0.270
19.4940 12.553 0.267
19.5096 12.587 0.268
19.5252 13.248 0.275
19.5408 13.100 0.273
19.5564 12.980 0.272
19.5721 12.581 0.268
19.5877 12.638 0.268
19.6033 12.889 0.271
19.6189 13.151 0.274
19.6345 12.809 0.270
19.6501 12.661 0.269
19.6657 12.832 0.270
19.6814 12.861 0.271
19.6970 13.003 0.272
19.7126 13.054 0.273
19.7282 12.918 0.271
19.7438 13.180 0.274
19.7594 12.678 0.269
19.7751 12.935 0.271
19.7907 12.878 0.271
19.8063 12.952 0.272
19.8219 12.678 0.269
19.8375 13.277 0.275
19.8531 12.758 0.270
19.8687 12.918 0.271
19.8844 12.792 0.270
19.9000 12.502 0.267
19.9156 13.254 0.275
19.9312 12.986 0.272
19.9468 12.148 0.263
19.9624 12.593 0.268
19.9780 13.020 0.272
19.9937 12.741 0.269
20.0093 12.673 0.269
20.0249 12.798 0.270
20.0405 13.009 0.272
20.0561 13.334 0.276
20.0717 12.906 0.271
20.0874 13.676 0.279
20.1030 12.815 0.270
20.1186 13.015 0.272
20.1342 13.191 0.274
20.1498 13.550 0.278
20.1654 13.049 0.273
20.1810 13.778 0.280
20.1967 13.721 0.280
20.2123 13.362 0.276
20.2279 13.487 0.277
20.2435 12.735 0.269
20.2591 12.952 0.272
20.2747 13.037 0.273
20.2904 12.923 0.271
20.3060 12.673 0.269
20.3216 12.901 0.271
20.3372 13.197 0.274
20.3528 12.633 0.268
20.3684 12.371 0.265
20.3840 12.992 0.272
20.3997 12.713 0.269
20.4153 12.325 0.265
20.4309 13.106 0.273
20.4465 13.043 0.273
20.4621 12.678 0.269
20.4777 13.032 0.272
20.4933 12.678 0.269
20.5090 12.918 0.271
20.5246 12.809 0.270
20.5402 13.208 0.274
20.5558 12.752 0.270
20.5714 12.992 0.272
20.5870 12.963 0.272
20.6027 13.157 0.274
20.6183 13.077 0.273
20.6339 12.912 0.271
20.6495 12.775 0.270
20.6651 12.701 0.269
20.6807 12.821 0.270
20.6963 12.616 0.268
20.7120 12.183 0.263
20.7276 12.633 0.268
20.7432 12.707 0.269
20.7588 12.906 0.271
20.7744 12.730 0.269
20.7900 13.140 0.274
20.8056 13.026 0.272
20.8213 12.935 0.271
20.8369 12.530 0.267
20.8525 12.787 0.270
20.8681 12.827 0.270
20.8837 12.576 0.268
20.8993 13.220 0.274
20.9150 13.020 0.272
20.9306 12.918 0.271
20.9462 12.997 0.272
20.9618 13.351 0.276
20.9774 12.399 0.266
20.9930 12.690 0.269
21.0086 13.288 0.275
21.0243 13.573 0.278
21.0399 13.448 0.277
21.0555 13.282 0.275
21.0711 13.054 0.273
21.0867 14.388 0.286
21.1023 13.995 0.282
21.1180 14.131 0.284
21.1336 14.023 0.283
21.1492 13.676 0.279
21.1648 13.938 0.282
21.1804 14.513 0.288
21.1960 14.057 0.283
21.2116 13.431 0.277
21.2273 13.676 0.279
21.2429 13.505 0.277
21.2585 13.402 0.276
21.2741 13.556 0.278
21.2897 13.060 0.273
21.3053 13.510 0.277
21.3209 12.604 0.268
21.3366 12.912 0.271
21.3522 13.083 0.273
21.3678 13.396 0.276
21.3834 12.752 0.270
21.3990 12.804 0.270
21.4146 13.163 0.274
21.4303 13.072 0.273
21.4459 13.174 0.274
21.4615 13.174 0.274
21.4771 13.134 0.274
21.4927 12.371 0.265
21.5083 12.570 0.268
21.5239 13.379 0.276
21.5396 13.100 0.273
21.5552 12.992 0.272
21.5708 12.456 0.266
21.5864 12.963 0.272
21.6020 13.254 0.275
21.6176 12.587 0.268
21.6332 13.015 0.272
21.6489 13.089 0.273
21.6645 12.952 0.272
21.6801 12.849 0.271
21.6957 12.889 0.271
21.7113 13.317 0.275
21.7269 13.168 0.274
21.7426 13.881 0.281
21.7582 13.493 0.277
21.7738 13.869 0.281
21.7894 14.074 0.283
21.8050 14.730 0.290
21.8206 14.188 0.284
21.8362 14.758 0.290
21.8519 14.376 0.286
21.8675 14.337 0.286
21.8831 14.411 0.287
21.8987 14.006 0.283
21.9143 13.761 0.280
21.9299 13.619 0.279
21.9456 13.317 0.275
21.9612 12.804 0.270
21.9768 12.194 0.264
21.9924 13.328 0.276
22.0080 13.077 0.273
22.0236 12.849 0.271
22.0392 12.576 0.268
22.0549 12.809 0.270
22.0705 12.940 0.272
22.0861 12.621 0.268
22.1017 12.866 0.271
22.1173 12.354 0.265
22.1329 12.667 0.269
22.1485 12.291 0.265
22.1642 12.735 0.269
22.1798 13.174 0.274
22.1954 12.525 0.267
22.2110 12.656 0.269
22.2266 12.844 0.271
22.2422 12.787 0.270
22.2579 12.895 0.271
22.2735 12.599 0.268
22.2891 12.661 0.269
22.3047 12.787 0.270
22.3203 12.581 0.268
22.3359 12.827 0.270
22.3515 12.633 0.268
22.3672 12.587 0.268
22.3828 12.519 0.267
22.3984 13.083 0.273
22.4140 12.627 0.268
22.4296 12.958 0.272
22.4452 12.485 0.267
22.4608 12.855 0.271
22.4765 12.439 0.266
22.4921 12.502 0.267
22.5077 12.581 0.268
22.5233 12.855 0.271
22.5389 13.089 0.273
22.5545 13.003 0.272
22.5702 12.553 0.267
22.5858 13.003 0.272
22.6014 12.684 0.269
22.6170 12.855 0.271
22.6326 12.787 0.270
22.6482 12.388 0.266
22.6638 12.758 0.270
22.6795 12.735 0.269
22.6951 12.695 0.269
22.7107 12.809 0.270
22.7263 12.713 0.269
22.7419 12.969 0.272
22.7575 12.468 0.267
22.7732 12.211 0.264
22.7888 12.735 0.269
22.8044 12.553 0.267
22.8200 12.804 0.270
22.8356 12.416 0.266
22.8512 13.049 0.273
22.8668 12.365 0.265
22.8825 12.770 0.270
22.8981 12.713 0.269
22.9137 12.923 0.271
22.9293 12.980 0.272
22.9449 12.496 0.267
22.9605 12.992 0.272
22.9761 12.878 0.271
22.9918 12.678 0.269
23.0074 13.265 0.275
23.0230 13.425 0.277
23.0386 13.271 0.275
23.0542 13.499 0.277
23.0698 13.630 0.279
23.0855 13.203 0.274
23.1011 13.715 0.280
23.1167 14.314 0.286
23.1323 13.715 0.280
23.1479 13.379 0.276
23.1635 14.154 0.284
23.1791 13.698 0.279
23.1948 13.960 0.282
23.2104 13.505 0.277
23.2260 13.157 0.274
23.2416 14.188 0.284
23.2572 13.573 0.278
23.2728 13.134 0.274
23.2885 13.197 0.274
23.3041 13.083 0.273
23.3197 13.208 0.274
23.3353 12.980 0.272
23.3509 13.214 0.274
23.3665 12.883 0.271
23.3821 12.935 0.271
23.3978 12.137 0.263
23.4134 12.997 0.272
23.4290 12.827 0.270
23.4446 12.707 0.269
23.4602 12.490 0.267
23.4758 12.302 0.265
23.4914 12.593 0.268
23.5071 12.929 0.271
23.5227 12.536 0.267
23.5383 12.832 0.270
23.5539 12.832 0.270
23.5695 13.049 0.273
23.5851 13.089 0.273
23.6008 12.878 0.271
23.6164 12.901 0.271
23.6320 12.792 0.270
23.6476 12.975 0.272
23.6632 13.339 0.276
23.6788 12.889 0.271
23.6944 12.485 0.267
23.7101 12.741 0.269
23.7257 12.638 0.268
23.7413 12.502 0.267
23.7569 13.590 0.278
23.7725 13.379 0.276
23.7881 12.787 0.270
23.8037 13.111 0.273
23.8194 13.054 0.273
23.8350 13.020 0.272
23.8506 13.020 0.272
23.8662 13.129 0.274
23.8818 13.573 0.278
23.8974 12.468 0.267
23.9131 13.408 0.276
23.9287 13.282 0.275
23.9443 12.855 0.271
23.9599 12.969 0.272
23.9755 12.650 0.268
23.9911 13.100 0.273
24.0067 12.485 0.267
24.0224 13.339 0.276
24.0380 13.391 0.276
24.0536 13.265 0.275
24.0692 13.345 0.276
24.0848 13.379 0.276
24.1004 13.909 0.282
24.1161 13.431 0.277
24.1317 13.419 0.277
24.1473 13.687 0.279
24.1629 13.812 0.281
24.1785 13.818 0.281
24.1941 14.473 0.287
24.2097 14.553 0.288
24.2254 14.878 0.291
24.2410 15.607 0.298
24.2566 16.171 0.304
24.2722 17.043 0.312
24.2878 18.314 0.323
24.3034 19.243 0.331
24.3190 20.171 0.339
24.3347 21.824 0.353
24.3503 22.439 0.358
24.3659 23.203 0.364
24.3815 23.465 0.366
24.3971 22.804 0.360
24.4127 23.311 0.364
24.4284 22.844 0.361
24.4440 21.562 0.351
24.4596 21.117 0.347
24.4752 19.835 0.336
24.4908 19.300 0.332
24.5064 17.459 0.315
24.5220 16.992 0.311
24.5377 15.744 0.300
24.5533 15.510 0.297
24.5689 14.422 0.287
24.5845 14.604 0.288
24.6001 14.297 0.285
24.6157 14.012 0.283
24.6313 13.567 0.278
24.6470 13.789 0.280
24.6626 13.174 0.274
24.6782 13.613 0.279
24.6938 12.809 0.270
24.7094 12.741 0.269
24.7250 13.305 0.275
24.7407 12.958 0.272
24.7563 12.855 0.271
24.7719 12.342 0.265
24.7875 12.718 0.269
24.8031 13.100 0.273
24.8187 12.319 0.265
24.8343 12.656 0.269
24.8500 12.610 0.268
24.8656 13.066 0.273
24.8812 12.849 0.271
24.8968 12.997 0.272
24.9124 12.747 0.270
24.9280 12.393 0.266
24.9437 12.724 0.269
24.9593 12.587 0.268
24.9749 12.553 0.267
24.9905 12.553 0.267
25.0061 12.752 0.270
25.0217 12.388 0.266
25.0373 13.237 0.275
25.0530 12.695 0.269
25.0686 12.695 0.269
25.0842 12.405 0.266
25.0998 12.131 0.263
25.1154 12.069 0.262
25.1310 12.787 0.270
25.1466 12.399 0.266
25.1623 12.878 0.271
25.1779 12.006 0.262
25.1935 12.308 0.265
25.2091 12.986 0.272
25.2247 12.616 0.268
25.2403 12.468 0.267
25.2560 12.365 0.265
25.2716 12.507 0.267
25.2872 13.151 0.274
25.3028 12.758 0.270
25.3184 13.117 0.273
25.3340 12.143 0.263
25.3496 12.593 0.268
25.3653 12.268 0.264
25.3809 12.342 0.265
25.3965 12.650 0.268
25.4121 12.707 0.269
25.4277 12.103 0.263
25.4433 12.758 0.270
25.4589 12.553 0.267
25.4746 12.815 0.270
25.4902 13.305 0.275
25.5058 12.713 0.269
25.5214 12.650 0.268
25.5370 13.117 0.273
25.5526 12.439 0.266
25.5683 13.020 0.272
25.5839 12.257 0.264
25.5995 13.174 0.274
25.6151 12.638 0.268
25.6307 12.638 0.268
25.6463 12.359 0.265
25.6619 12.844 0.271
25.6776 12.462 0.266
25.6932 12.542 0.267
25.7088 12.633 0.268
25.7244 12.525 0.267
25.7400 12.485 0.267
25.7556 12.422 0.266
25.7713 12.399 0.266
25.7869 12.701 0.269
25.8025 12.257 0.264
25.8181 13.146 0.274
25.8337 12.354 0.265
25.8493 12.638 0.268
25.8649 12.815 0.270
25.8806 12.775 0.270
25.8962 12.359 0.265
25.9118 12.730 0.269
25.9274 12.559 0.268
25.9430 12.570 0.268
25.9586 12.336 0.265
25.9742 12.923 0.271
25.9899 12.923 0.271
26.0055 12.866 0.271
26.0211 13.066 0.273
26.0367 13.356 0.276
26.0523 13.225 0.275
26.0679 13.311 0.275
26.0836 13.641 0.279
26.0992 13.852 0.281
26.1148 13.362 0.276
26.1304 14.114 0.284
26.1460 13.299 0.275
26.1616 13.960 0.282
26.1772 13.054 0.273
26.1929 13.807 0.280
26.2085 13.448 0.277
26.2241 13.687 0.279
26.2397 13.231 0.275
26.2553 13.106 0.273
26.2709 13.835 0.281
26.2865 13.185 0.274
26.3022 13.425 0.277
26.3178 13.413 0.276
26.3334 13.750 0.280
26.3490 13.294 0.275
26.3646 12.809 0.270
26.3802 13.619 0.279
26.3959 13.168 0.274
26.4115 13.402 0.276
26.4271 12.997 0.272
26.4427 12.923 0.271
26.4583 13.374 0.276
26.4739 13.396 0.276
26.4895 12.883 0.271
26.5052 13.123 0.273
26.5208 13.356 0.276
26.5364 12.667 0.269
26.5520 12.445 0.266
26.5676 13.123 0.273
26.5832 13.157 0.274
26.5989 12.855 0.271
26.6145 13.054 0.273
26.6301 12.747 0.270
26.6457 13.334 0.276
26.6613 13.453 0.277
26.6769 13.522 0.278
26.6925 13.579 0.278
26.7082 13.550 0.278
26.7238 13.470 0.277
26.7394 13.032 0.272
26.7550 13.864 0.281
26.7706 13.374 0.276
26.7862 13.060 0.273
26.8018 12.940 0.272
26.8175 13.704 0.279
26.8331 13.231 0.275
26.8487 13.237 0.275
26.8643 12.878 0.271
26.8799 13.317 0.275
26.8955 13.134 0.274
26.9112 12.433 0.266
26.9268 12.416 0.266
26.9424 12.997 0.272
26.9580 12.638 0.268
26.9736 12.855 0.271
26.9892 12.735 0.269
27.0048 12.325 0.265
27.0205 12.399 0.266
27.0361 12.200 0.264
27.0517 12.530 0.267
27.0673 13.123 0.273
27.0829 12.154 0.263
27.0985 12.844 0.271
27.1141 12.063 0.262
27.1298 11.920 0.261
27.1454 12.656 0.269
27.1610 11.995 0.261
27.1766 12.314 0.265
27.1922 12.599 0.268
27.2078 12.017 0.262
27.2235 11.721 0.258
27.2391 12.411 0.266
27.2547 12.234 0.264
27.2703 12.507 0.267
27.2859 12.262 0.264
27.3015 12.029 0.262
27.3171 12.496 0.267
27.3328 12.450 0.266
27.3484 12.183 0.263
27.3640 12.262 0.264
27.3796 12.279 0.265
27.3952 12.217 0.264
27.4108 12.502 0.267
27.4265 12.604 0.268
27.4421 12.069 0.262
27.4577 12.490 0.267
27.4733 12.838 0.270
27.4889 12.581 0.268
27.5045 12.354 0.265
27.5201 12.638 0.268
27.5358 12.507 0.267
27.5514 12.462 0.266
27.5670 12.359 0.265
27.5826 12.832 0.270
27.5982 12.456 0.266
27.6138 12.616 0.268
27.6294 12.787 0.270
27.6451 12.661 0.269
27.6607 12.581 0.268
27.6763 12.684 0.269
27.6919 12.411 0.266
27.7075 12.713 0.269
27.7231 12.274 0.264
27.7388 12.536 0.267
27.7544 12.473 0.267
27.7700 12.490 0.267
27.7856 12.473 0.267
27.8012 12.450 0.266
27.8168 12.063 0.262
27.8324 12.262 0.264
27.8481 12.086 0.262
27.8637 12.126 0.263
27.8793 12.194 0.264
27.8949 12.661 0.269
27.9105 12.354 0.265
27.9261 12.034 0.262
27.9417 12.496 0.267
27.9574 12.661 0.269
27.9730 12.046 0.262
27.9886 12.468 0.267
28.0042 12.570 0.268
28.0198 12.519 0.267
28.0354 12.348 0.265
28.0511 12.752 0.270
28.0667 12.530 0.267
28.0823 12.314 0.265
28.0979 12.234 0.264
28.1135 12.285 0.265
28.1291 12.838 0.270
28.1447 12.969 0.272
28.1604 12.245 0.264
28.1760 12.205 0.264
28.1916 12.154 0.263
28.2072 12.422 0.266
28.2228 12.559 0.268
28.2384 12.154 0.263
28.2541 12.564 0.268
28.2697 12.439 0.266
28.2853 12.667 0.269
28.3009 12.382 0.266
28.3165 12.063 0.262
28.3321 12.787 0.270
28.3477 12.433 0.266
28.3634 12.485 0.267
28.3790 12.570 0.268
28.3946 12.194 0.264
28.4102 12.866 0.271
28.4258 12.735 0.269
28.4414 12.502 0.267
28.4570 12.507 0.267
28.4727 12.707 0.269
28.4883 12.291 0.265
28.5039 12.667 0.269
28.5195 12.371 0.265
28.5351 12.627 0.268
28.5507 12.610 0.268
28.5664 13.231 0.275
28.5820 12.485 0.267
28.5976 12.542 0.267
28.6132 12.456 0.266
28.6288 12.815 0.270
28.6444 12.405 0.266
28.6600 12.279 0.265
28.6757 12.707 0.269
28.6913 12.861 0.271
28.7069 12.929 0.271
28.7225 12.371 0.265
28.7381 12.445 0.266
28.7537 12.963 0.272
28.7694 13.197 0.274
28.7850 12.718 0.269
28.8006 12.656 0.269
28.8162 12.382 0.266
28.8318 12.946 0.272
28.8474 12.929 0.271
28.8630 12.621 0.268
28.8787 12.599 0.268
28.8943 12.707 0.269
28.9099 12.496 0.267
28.9255 12.547 0.267
28.9411 12.747 0.270
28.9567 12.695 0.269
28.9723 13.129 0.274
28.9880 12.844 0.271
29.0036 12.564 0.268
29.0192 12.866 0.271
29.0348 12.923 0.271
29.0504 12.849 0.271
29.0660 12.479 0.267
29.0817 13.180 0.274
29.0973 12.940 0.272
29.1129 12.131 0.263
29.1285 12.673 0.269
29.1441 12.513 0.267
29.1597 12.695 0.269
29.1753 12.758 0.270
29.1910 12.439 0.266
29.2066 12.849 0.271
29.2222 12.758 0.270
29.2378 13.191 0.274
29.2534 13.168 0.274
29.2690 13.362 0.276
29.2846 13.562 0.278
29.3003 13.111 0.273
29.3159 13.151 0.274
29.3315 13.476 0.277
29.3471 13.089 0.273
29.3627 13.248 0.275
29.3783 13.448 0.277
29.3940 12.946 0.272
29.4096 13.003 0.272
29.4252 12.815 0.270
29.4408 12.866 0.271
29.4564 13.231 0.275
29.4720 12.878 0.271
29.4876 12.986 0.272
29.5033 12.433 0.266
29.5189 12.752 0.270
29.5345 12.895 0.271
29.5501 12.507 0.267
29.5657 12.730 0.269
29.5813 13.049 0.273
29.5970 12.724 0.269
29.6126 12.610 0.268
29.6282 12.878 0.271
29.6438 12.564 0.268
29.6594 12.183 0.263
29.6750 12.747 0.270
29.6906 12.536 0.267
29.7063 12.411 0.266
29.7219 12.787 0.270
29.7375 12.684 0.269
29.7531 13.356 0.276
29.7687 12.809 0.270
29.7843 13.562 0.278
29.7999 13.419 0.277
29.8156 12.997 0.272
29.8312 13.556 0.278
29.8468 13.556 0.278
29.8624 13.356 0.276
29.8780 13.282 0.275
29.8936 13.225 0.275
29.9093 13.151 0.274
29.9249 13.049 0.273
29.9405 13.003 0.272
29.9561 13.248 0.275
29.9717 13.362 0.276
29.9873 12.684 0.269
30.0029 12.861 0.271
30.0186 13.123 0.273
30.0342 12.872 0.271
30.0498 13.431 0.277
30.0654 12.821 0.270
30.0810 12.291 0.265
30.0966 12.279 0.265
30.1122 12.872 0.271
30.1279 12.923 0.271
30.1435 12.610 0.268
30.1591 13.077 0.273
30.1747 12.507 0.267
30.1903 12.792 0.270
30.2059 12.633 0.268
30.2216 12.348 0.265
30.2372 13.123 0.273
30.2528 13.231 0.275
30.2684 13.288 0.275
30.2840 12.975 0.272
30.2996 13.163 0.274
30.3152 13.573 0.278
30.3309 13.938 0.282
30.3465 13.630 0.279
30.3621 13.755 0.280
30.3777 13.995 0.282
30.3933 13.573 0.278
30.4089 14.040 0.283
30.4246 14.661 0.289
30.4402 14.593 0.288
30.4558 14.661 0.289
30.4714 14.530 0.288
30.4870 15.026 0.293
30.5026 14.889 0.291
30.5182 15.180 0.294
30.5339 14.684 0.289
30.5495 14.359 0.286
30.5651 13.903 0.281
30.5807 13.915 0.282
30.5963 13.812 0.281
30.6119 13.829 0.281
30.6275 13.077 0.273
30.6432 13.448 0.277
30.6588 13.351 0.276
30.6744 13.362 0.276
30.6900 13.368 0.276
30.7056 13.191 0.274
30.7212 13.020 0.272
30.7369 12.912 0.271
30.7525 13.174 0.274
30.7681 12.724 0.269
30.7837 13.151 0.274
30.7993 13.448 0.277
30.8149 13.607 0.278
30.8305 13.277 0.275
30.8462 13.049 0.273
30.8618 13.100 0.273
30.8774 13.083 0.273
30.8930 12.963 0.272
30.9086 13.801 0.280
30.9242 13.476 0.277
30.9398 13.231 0.275
30.9555 12.997 0.272
30.9711 13.368 0.276
30.9867 13.493 0.277
31.0023 13.299 0.275
31.0179 13.294 0.275
31.0335 13.550 0.278
31.0492 13.539 0.278
31.0648 13.658 0.279
31.0804 12.895 0.271
31.0960 12.975 0.272
31.1116 13.208 0.274
31.1272 13.271 0.275
31.1428 12.787 0.270
31.1585 13.020 0.272
31.1741 12.439 0.266
31.1897 12.975 0.272
31.2053 12.781 0.270
31.2209 13.140 0.274
31.2365 12.895 0.271
31.2522 12.758 0.270
31.2678 12.730 0.269
31.2834 13.282 0.275
31.2990 12.764 0.270
31.3146 13.260 0.275
31.3302 12.929 0.271
31.3458 13.049 0.273
31.3615 13.687 0.279
31.3771 13.647 0.279
31.3927 13.334 0.276
31.4083 13.858 0.281
31.4239 13.789 0.280
31.4395 14.211 0.285
31.4551 14.787 0.290
31.4708 14.348 0.286
31.4864 15.505 0.297
31.5020 15.476 0.297
31.5176 15.624 0.298
31.5332 15.926 0.301
31.5488 15.966 0.302
31.5645 15.818 0.300
31.5801 15.989 0.302
31.5957 15.493 0.297
31.6113 15.983 0.302
31.6269 15.026 0.293
31.6425 15.545 0.298
31.6581 14.952 0.292
31.6738 14.695 0.289
31.6894 14.194 0.284
31.7050 13.841 0.281
31.7206 14.211 0.285
31.7362 13.772 0.280
31.7518 14.069 0.283
31.7674 13.294 0.275
31.7831 13.391 0.276
31.7987 13.254 0.275
31.8143 13.242 0.275
31.8299 13.573 0.278
31.8455 13.482 0.277
31.8611 13.801 0.280
31.8768 13.653 0.279
31.8924 13.015 0.272
31.9080 13.943 0.282
31.9236 13.470 0.277
31.9392 13.670 0.279
31.9548 13.710 0.279
31.9704 13.881 0.281
31.9861 13.442 0.277
32.0017 13.761 0.280
32.0173 14.393 0.286
32.0329 14.023 0.283
32.0485 14.547 0.288
32.0641 14.393 0.286
32.0798 14.530 0.288
32.0954 14.507 0.288
32.1110 15.396 0.296
32.1266 16.126 0.303
32.1422 17.066 0.312
32.1578 17.448 0.315
32.1734 18.633 0.326
32.1891 19.465 0.333
32.2047 21.807 0.353
32.2203 23.465 0.366
32.2359 25.459 0.381
32.2515 26.354 0.388
32.2671 28.063 0.400
32.2827 29.032 0.407
32.2984 31.169 0.421
32.3140 31.830 0.426
32.3296 31.915 0.426
32.3452 32.491 0.430
32.3608 32.400 0.430
32.3764 32.069 0.427
32.3921 31.368 0.423
32.4077 30.907 0.420
32.4233 29.362 0.409
32.4389 27.721 0.397
32.4545 26.787 0.391
32.4701 24.639 0.375
32.4857 23.619 0.367
32.5014 22.867 0.361
32.5170 21.830 0.353
32.5326 19.943 0.337
32.5482 19.260 0.331
32.5638 18.707 0.326
32.5794 17.778 0.318
32.5950 16.559 0.307
32.6107 16.599 0.308
32.6263 16.319 0.305
32.6419 15.864 0.301
32.6575 15.556 0.298
32.6731 15.020 0.293
32.6887 14.832 0.291
32.7044 15.208 0.294
32.7200 14.695 0.289
32.7356 14.941 0.292
32.7512 14.678 0.289
32.7668 14.673 0.289
32.7824 14.314 0.286
32.7980 14.576 0.288
32.8137 14.690 0.289
32.8293 14.593 0.288
32.8449 14.234 0.285
32.8605 14.639 0.289
32.8761 14.929 0.292
32.8917 14.855 0.291
32.9074 14.445 0.287
32.9230 15.356 0.296
32.9386 15.379 0.296
32.9542 15.522 0.297
32.9698 15.710 0.299
32.9854 16.564 0.307
33.0010 17.579 0.316
33.0167 17.300 0.314
33.0323 18.166 0.322
33.0479 18.701 0.326
33.0635 18.257 0.323
33.0791 18.644 0.326
33.0947 19.260 0.331
33.1103 19.773 0.336
33.1260 19.311 0.332
33.1416 20.057 0.338
33.1572 19.539 0.334
33.1728 19.539 0.334
33.1884 20.097 0.338
33.2040 20.724 0.344
33.2197 22.377 0.357
33.2353 23.915 0.369
33.2509 25.824 0.384
33.2665 27.750 0.398
33.2821 29.334 0.409
33.2977 31.853 0.426
33.3133 32.439 0.430
33.3290 33.271 0.435
33.3446 32.787 0.432
33.3602 34.024 0.440
33.3758 34.001 0.440
33.3914 33.665 0.438
33.4070 33.767 0.439
33.4227 33.243 0.435
33.4383 34.086 0.441
33.4539 35.101 0.447
33.4695 34.479 0.443
33.4851 35.106 0.447
33.5007 34.383 0.443
33.5163 35.482 0.450
33.5320 35.511 0.450
33.5476 35.414 0.449
33.5632 35.767 0.451
33.5788 35.403 0.449
33.5944 36.012 0.453
33.6100 36.975 0.459
33.6256 36.662 0.457
33.6413 37.385 0.462
33.6569 37.112 0.460
33.6725 37.807 0.464
33.6881 39.950 0.477
33.7037 40.725 0.482
33.7193 43.425 0.497
33.7350 44.981 0.506
33.7506 47.950 0.523
33.7662 52.634 0.548
33.7818 54.691 0.558
33.7974 56.508 0.567
33.8130 58.594 0.578
33.8286 60.309 0.586
33.8443 62.526 0.597
33.8599 63.779 0.603
33.8755 63.831 0.603
33.8911 63.038 0.599
33.9067 62.537 0.597
33.9223 62.275 0.596
33.9379 60.942 0.589
33.9536 59.511 0.582
33.9692 56.366 0.567
33.9848 54.486 0.557
34.0004 51.944 0.544
34.0160 49.597 0.532
34.0316 45.289 0.508
34.0473 41.152 0.484
34.0629 39.146 0.472
34.0785 36.428 0.456
34.0941 32.377 0.430
34.1097 30.109 0.414
34.1253 26.730 0.390
34.1409 23.961 0.370
34.1566 22.907 0.361
34.1722 20.952 0.346
34.1878 18.969 0.329
34.2034 18.160 0.322
34.2190 16.633 0.308
34.2346 16.724 0.309
34.2503 15.567 0.298
34.2659 15.590 0.298
34.2815 15.237 0.295
34.2971 14.878 0.291
34.3127 14.416 0.287
34.3283 14.884 0.291
34.3439 14.337 0.286
34.3596 14.371 0.286
34.3752 14.097 0.283
34.3908 13.898 0.281
34.4064 14.148 0.284
34.4220 13.761 0.280
34.4376 14.109 0.284
34.4532 14.450 0.287
34.4689 14.308 0.286
34.4845 14.069 0.283
34.5001 13.909 0.282
34.5157 14.644 0.289
34.5313 14.844 0.291
34.5469 14.274 0.285
34.5626 15.225 0.295
34.5782 15.265 0.295
34.5938 15.442 0.297
34.6094 14.952 0.292
34.6250 16.280 0.305
34.6406 16.183 0.304
34.6562 16.428 0.306
34.6719 17.037 0.312
34.6875 17.049 0.312
34.7031 17.448 0.315
34.7187 17.562 0.316
34.7343 18.149 0.322
34.7499 18.342 0.323
34.7655 19.060 0.330
34.7812 18.604 0.326
34.7968 18.473 0.324
34.8124 19.032 0.329
34.8280 19.271 0.331
34.8436 18.308 0.323
34.8592 18.057 0.321
34.8749 18.006 0.320
34.8905 17.824 0.319
34.9061 17.419 0.315
34.9217 16.895 0.310
34.9373 16.080 0.303
34.9529 15.214 0.294
34.9685 15.465 0.297
34.9842 15.237 0.295
34.9998 15.299 0.295
35.0154 14.223 0.285
35.0310 14.291 0.285
35.0466 13.869 0.281
35.0622 14.006 0.283
35.0779 12.849 0.271
35.0935 13.237 0.275
35.1091 13.579 0.278
35.1247 12.997 0.272
35.1403 12.889 0.271
35.1559 12.889 0.271
35.1715 13.077 0.273
35.1872 12.958 0.272
35.2028 12.849 0.271
35.2184 12.787 0.270
35.2340 13.049 0.273
35.2496 12.735 0.269
35.2652 12.775 0.270
35.2808 12.815 0.270
35.2965 13.242 0.275
35.3121 12.918 0.271
35.3277 12.752 0.270
35.3433 12.918 0.271
35.3589 12.963 0.272
35.3745 12.576 0.268
35.3902 12.718 0.269
35.4058 13.351 0.276
35.4214 13.066 0.273
35.4370 13.015 0.272
35.4526 12.519 0.267
35.4682 12.433 0.266
35.4838 12.923 0.271
35.4995 12.342 0.265
35.5151 12.883 0.271
35.5307 12.513 0.267
35.5463 12.946 0.272
35.5619 13.151 0.274
35.5775 12.205 0.264
35.5931 12.798 0.270
35.6088 12.827 0.270
35.6244 12.507 0.267
35.6400 12.741 0.269
35.6556 12.798 0.270
35.6712 12.587 0.268
35.6868 12.963 0.272
35.7025 12.547 0.267
35.7181 12.336 0.265
35.7337 12.855 0.271
35.7493 13.630 0.279
35.7649 13.163 0.274
35.7805 12.519 0.267
35.7961 12.861 0.271
35.8118 12.889 0.271
35.8274 13.208 0.274
35.8430 12.798 0.270
35.8586 12.621 0.268
35.8742 12.616 0.268
35.8898 13.191 0.274
35.9055 12.587 0.268
35.9211 12.547 0.267
35.9367 12.650 0.268
35.9523 12.787 0.270
35.9679 12.069 0.262
35.9835 13.282 0.275
35.9991 12.331 0.265
36.0148 12.724 0.269
36.0304 12.861 0.271
36.0460 12.713 0.269
36.0616 13.094 0.273
36.0772 12.354 0.265
36.0928 13.089 0.273
36.1084 12.473 0.267
36.1241 13.163 0.274
36.1397 13.049 0.273
36.1553 12.684 0.269
36.1709 12.177 0.263
36.1865 12.684 0.269
36.2021 12.559 0.268
36.2178 12.758 0.270
36.2334 12.411 0.266
36.2490 12.616 0.268
36.2646 12.633 0.268
36.2802 12.479 0.267
36.2958 12.661 0.269
36.3114 12.758 0.270
36.3271 12.302 0.265
36.3427 12.593 0.268
36.3583 12.376 0.266
36.3739 12.559 0.268
36.3895 12.240 0.264
36.4051 12.251 0.264
36.4207 12.205 0.264
36.4364 12.188 0.264
36.4520 12.228 0.264
36.4676 12.245 0.264
36.4832 12.570 0.268
36.4988 12.764 0.270
36.5144 12.633 0.268
36.5301 13.049 0.273
36.5457 12.131 0.263
36.5613 12.883 0.271
36.5769 12.564 0.268
36.5925 13.294 0.275
36.6081 12.838 0.270
36.6237 12.621 0.268
36.6394 12.599 0.268
36.6550 12.912 0.271
36.6706 12.388 0.266
36.6862 12.883 0.271
36.7018 12.866 0.271
36.7174 13.265 0.275
36.7331 12.479 0.267
36.7487 13.020 0.272
36.7643 12.895 0.271
36.7799 13.453 0.277
36.7955 13.231 0.275
36.8111 13.271 0.275
36.8267 13.345 0.276
36.8424 13.465 0.277
36.8580 13.989 0.282
36.8736 14.530 0.288
36.8892 14.525 0.288
36.9048 14.895 0.291
36.9204 16.074 0.303
36.9360 17.505 0.316
36.9517 17.807 0.319
36.9673 19.083 0.330
36.9829 18.975 0.329
36.9985 17.402 0.315
37.0141 16.656 0.308
37.0297 15.562 0.298
37.0454 16.183 0.304
37.0610 16.656 0.308
37.0766 15.641 0.299
37.0922 14.918 0.292
37.1078 14.690 0.289
37.1234 14.109 0.284
37.1390 13.368 0.276
37.1547 13.807 0.280
37.1703 13.647 0.279
37.1859 13.231 0.275
37.2015 13.453 0.277
37.2171 13.191 0.274
37.2327 13.214 0.274
37.2483 13.248 0.275
37.2640 13.413 0.276
37.2796 13.043 0.273
37.2952 12.536 0.267
37.3108 12.678 0.269
37.3264 12.980 0.272
37.3420 12.958 0.272
37.3577 12.946 0.272
37.3733 12.678 0.269
37.3889 12.895 0.271
37.4045 12.747 0.270
37.4201 12.855 0.271
37.4357 12.701 0.269
37.4513 12.502 0.267
37.4670 12.114 0.263
37.4826 12.245 0.264
37.4982 12.433 0.266
37.5138 12.752 0.270
37.5294 12.844 0.271
37.5450 12.889 0.271
37.5607 13.271 0.275
37.5763 12.781 0.270
37.5919 12.348 0.265
37.6075 12.564 0.268
37.6231 13.265 0.275
37.6387 12.468 0.267
37.6543 12.354 0.265
37.6700 12.713 0.269
37.6856 12.661 0.269
37.7012 12.279 0.265
37.7168 12.462 0.266
37.7324 13.037 0.273
37.7480 13.003 0.272
37.7636 12.923 0.271
37.7793 12.872 0.271
37.7949 12.980 0.272
37.8105 12.599 0.268
37.8261 12.809 0.270
37.8417 12.992 0.272
37.8573 13.379 0.276
37.8730 12.804 0.270
37.8886 12.604 0.268
37.9042 12.980 0.272
37.9198 12.838 0.270
37.9354 13.487 0.277
37.9510 13.111 0.273
37.9666 13.402 0.276
37.9823 13.037 0.273
37.9979 12.621 0.268
38.0135 12.650 0.268
38.0291 13.237 0.275
38.0447 12.827 0.270
38.0603 12.815 0.270
38.0759 12.485 0.267
38.0916 12.382 0.266
38.1072 12.559 0.268
38.1228 12.553 0.267
38.1384 12.587 0.268
38.1540 12.519 0.267
38.1696 13.168 0.274
38.1853 12.695 0.269
38.2009 11.647 0.258
38.2165 12.217 0.264
38.2321 12.194 0.264
38.2477 12.553 0.267
38.2633 12.382 0.266
38.2789 12.553 0.267
38.2946 12.069 0.262
38.3102 12.604 0.268
38.3258 12.325 0.265
38.3414 12.348 0.265
38.3570 12.388 0.266
38.3726 12.371 0.265
38.3883 12.399 0.266
38.4039 12.331 0.265
38.4195 12.223 0.264
38.4351 12.576 0.268
38.4507 12.399 0.266
38.4663 12.661 0.269
38.4819 11.835 0.260
38.4976 12.291 0.265
38.5132 12.633 0.268
38.5288 12.279 0.265
38.5444 12.166 0.263
38.5600 12.336 0.265
38.5756 12.405 0.266
38.5912 12.730 0.269
38.6069 12.382 0.266
38.6225 12.314 0.265
38.6381 12.946 0.272
38.6537 12.581 0.268
38.6693 12.656 0.269
38.6849 12.627 0.268
38.7006 12.604 0.268
38.7162 12.091 0.262
38.7318 12.052 0.262
38.7474 12.604 0.268
38.7630 12.177 0.263
38.7786 12.781 0.270
38.7942 12.120 0.263
38.8099 12.901 0.271
38.8255 12.217 0.264
38.8411 12.029 0.262
38.8567 12.439 0.266
38.8723 12.781 0.270
38.8879 12.473 0.267
38.9036 12.507 0.267
38.9192 12.285 0.265
38.9348 12.992 0.272
38.9504 12.473 0.267
38.9660 12.593 0.268
38.9816 12.559 0.268
38.9972 12.787 0.270
39.0129 12.074 0.262
39.0285 12.348 0.265
39.0441 12.462 0.266
39.0597 12.707 0.269
39.0753 12.547 0.267
39.0909 12.228 0.264
39.1065 12.131 0.263
39.1222 12.194 0.264
39.1378 12.393 0.266
39.1534 13.140 0.274
39.1690 12.114 0.263
39.1846 12.154 0.263
39.2002 12.895 0.271
39.2159 11.915 0.261
39.2315 12.177 0.263
39.2471 12.086 0.262
39.2627 12.245 0.264
39.2783 12.114 0.263
39.2939 12.325 0.265
39.3095 12.120 0.263
39.3252 12.063 0.262
39.3408 12.103 0.263
39.3564 12.302 0.265
39.3720 12.052 0.262
39.3876 12.297 0.265
39.4032 11.983 0.261
39.4188 12.462 0.266
39.4345 12.462 0.266
39.4501 11.949 0.261
39.4657 12.485 0.267
39.4813 12.359 0.265
39.4969 12.462 0.266
39.5125 12.234 0.264
39.5282 12.507 0.267
39.5438 12.086 0.262
39.5594 12.633 0.268
39.5750 12.485 0.267
39.5906 12.382 0.266
39.6062 12.103 0.263
39.6218 12.268 0.264
39.6375 12.120 0.263
39.6531 13.009 0.272
39.6687 12.422 0.266
39.6843 11.767 0.259
39.6999 12.274 0.264
39.7155 12.559 0.268
39.7312 12.297 0.265
39.7468 12.644 0.268
39.7624 12.359 0.265
39.7780 12.610 0.268
39.7936 12.667 0.269
39.8092 12.285 0.265
39.8248 12.439 0.266
39.8405 12.285 0.265
39.8561 12.029 0.262
39.8717 12.359 0.265
39.8873 12.673 0.269
39.9029 12.547 0.267
39.9185 12.496 0.267
39.9341 12.399 0.266
39.9498 12.656 0.269
39.9654 12.234 0.264
39.9810 11.812 0.259
39.9966 12.274 0.264
40.0122 12.057 0.262
40.0278 12.507 0.267
40.0435 12.000 0.261
40.0591 12.365 0.265
40.0747 12.399 0.266
40.0903 12.262 0.264
40.1059 12.433 0.266
40.1215 12.131 0.263
40.1371 11.795 0.259
40.1528 12.371 0.265
40.1684 12.120 0.263
40.1840 12.034 0.262
40.1996 11.977 0.261
40.2152 12.308 0.265
40.2308 12.513 0.267
40.2464 12.314 0.265
40.2621 11.966 0.261
40.2777 12.251 0.264
40.2933 12.661 0.269
40.3089 12.450 0.266
40.3245 12.103 0.263
40.3401 12.319 0.265
40.3558 12.160 0.263
40.3714 12.661 0.269
40.3870 12.490 0.267
40.4026 11.864 0.260
40.4182 12.547 0.267
40.4338 12.701 0.269
40.4494 12.046 0.262
40.4651 12.034 0.262
40.4807 12.331 0.265
40.4963 12.211 0.264
40.5119 12.331 0.265
40.5275 12.376 0.266
40.5431 12.684 0.269
40.5588 12.507 0.267
40.5744 12.308 0.265
40.5900 12.895 0.271
40.6056 12.399 0.266
40.6212 12.450 0.266
40.6368 12.599 0.268
40.6524 12.621 0.268
40.6681 12.525 0.267
40.6837 13.197 0.274
40.6993 13.106 0.273
40.7149 13.579 0.278
40.7305 13.505 0.277
40.7461 13.721 0.280
40.7617 13.903 0.281
40.7774 14.382 0.286
40.7930 14.006 0.283
40.8086 15.111 0.293
40.8242 15.089 0.293
40.8398 15.453 0.297
40.8554 15.647 0.299
40.8711 16.040 0.302
40.8867 16.479 0.306
40.9023 16.992 0.311
40.9179 16.758 0.309
40.9335 17.260 0.314
40.9491 17.197 0.313
40.9647 17.140 0.313
40.9804 17.277 0.314
40.9960 17.243 0.313
41.0116 17.864 0.319
41.0272 17.488 0.316
41.0428 17.459 0.315
41.0584 16.975 0.311
41.0740 16.422 0.306
41.0897 16.291 0.305
41.1053 16.126 0.303
41.1209 15.488 0.297
41.1365 15.624 0.298
41.1521 15.368 0.296
41.1677 14.450 0.287
41.1834 14.416 0.287
41.1990 13.875 0.281
41.2146 14.456 0.287
41.2302 13.613 0.279
41.2458 13.727 0.280
41.2614 13.436 0.277
41.2770 12.963 0.272
41.2927 12.958 0.272
41.3083 13.487 0.277
41.3239 12.940 0.272
41.3395 13.083 0.273
41.3551 13.442 0.277
41.3707 13.151 0.274
41.3864 13.100 0.273
41.4020 13.043 0.273
41.4176 12.969 0.272
41.4332 13.054 0.273
41.4488 12.707 0.269
41.4644 13.203 0.274
41.4800 13.083 0.273
41.4957 13.032 0.272
41.5113 13.054 0.273
41.5269 12.707 0.269
41.5425 12.866 0.271
41.5581 13.185 0.274
41.5737 13.391 0.276
41.5893 13.111 0.273
41.6050 13.129 0.274
41.6206 13.054 0.273
41.6362 13.237 0.275
41.6518 13.499 0.277
41.6674 13.619 0.279
41.6830 14.052 0.283
41.6987 13.989 0.282
41.7143 14.171 0.284
41.7299 14.365 0.286
41.7455 14.678 0.289
41.7611 14.872 0.291
41.7767 15.134 0.294
41.7923 15.550 0.298
41.8080 15.852 0.301
41.8236 16.092 0.303
41.8392 16.496 0.307
41.8548 16.861 0.310
41.8704 16.838 0.310
41.8860 17.043 0.312
41.9016 16.411 0.306
41.9173 16.753 0.309
41.9329 16.809 0.309
41.9485 16.861 0.310
41.9641 15.989 0.302
41.9797 17.134 0.312
41.9953 16.616 0.308
42.0110 16.160 0.303
42.0266 16.639 0.308
42.0422 16.741 0.309
42.0578 17.026 0.311
42.0734 16.553 0.307
42.0890 16.411 0.306
42.1046 15.733 0.299
42.1203 15.784 0.300
42.1359 15.624 0.298
42.1515 15.294 0.295
42.1671 14.941 0.292
42.1827 14.764 0.290
42.1983 14.673 0.289
42.2140 14.468 0.287
42.2296 13.704 0.279
42.2452 14.388 0.286
42.2608 13.789 0.280
42.2764 13.020 0.272
42.2920 13.556 0.278
42.3076 13.653 0.279
42.3233 13.077 0.273
42.3389 12.963 0.272
42.3545 12.929 0.271
42.3701 12.889 0.271
42.3857 13.163 0.274
42.4013 13.487 0.277
42.4169 12.889 0.271
42.4326 12.581 0.268
42.4482 12.906 0.271
42.4638 13.197 0.274
42.4794 12.855 0.271
42.4950 12.621 0.268
42.5106 12.581 0.268
42.5263 13.345 0.276
42.5419 13.197 0.274
42.5575 13.487 0.277
42.5731 13.111 0.273
42.5887 13.442 0.277
42.6043 13.516 0.278
42.6199 13.351 0.276
42.6356 13.852 0.281
42.6512 13.442 0.277
42.6668 14.148 0.284
42.6824 14.057 0.283
42.6980 14.166 0.284
42.7136 14.730 0.290
42.7292 15.505 0.297
42.7449 14.969 0.292
42.7605 15.413 0.296
42.7761 15.921 0.301
42.7917 16.707 0.309
42.8073 16.986 0.311
42.8229 18.433 0.324
42.8386 20.166 0.339
42.8542 23.493 0.366
42.8698 27.704 0.397
42.8854 35.095 0.447
42.9010 44.525 0.504
42.9166 54.600 0.558
42.9322 63.335 0.601
42.9479 65.489 0.611
42.9635 59.021 0.580
42.9791 47.198 0.519
42.9947 39.015 0.472
43.0103 37.482 0.462
43.0259 38.183 0.466
43.0416 40.685 0.481
43.0572 41.670 0.487
43.0728 36.952 0.459
43.0884 30.616 0.418
43.1040 24.166 0.371
43.1196 20.707 0.343
43.1352 18.365 0.323
43.1509 16.616 0.308
43.1665 15.180 0.294
43.1821 15.738 0.299
43.1977 14.838 0.291
43.2133 14.838 0.291
43.2289 14.382 0.286
43.2445 14.029 0.283
43.2602 13.767 0.280
43.2758 13.989 0.282
43.2914 14.057 0.283
43.3070 12.855 0.271
43.3226 13.641 0.279
43.3382 13.590 0.278
43.3539 13.111 0.273
43.3695 13.385 0.276
43.3851 13.049 0.273
43.4007 13.077 0.273
43.4163 12.940 0.272
43.4319 13.111 0.273
43.4475 13.231 0.275
43.4632 12.906 0.271
43.4788 12.718 0.269
43.4944 12.439 0.266
43.5100 13.049 0.273
43.5256 13.562 0.278
43.5412 13.146 0.274
43.5568 13.083 0.273
43.5725 12.849 0.271
43.5881 13.191 0.274
43.6037 12.872 0.271
43.6193 13.009 0.272
43.6349 13.140 0.274
43.6505 13.111 0.273
43.6662 13.294 0.275
43.6818 13.351 0.276
43.6974 13.362 0.276
43.7130 13.772 0.280
43.7286 13.801 0.280
43.7442 13.658 0.279
43.7598 14.205 0.285
43.7755 13.664 0.279
43.7911 14.610 0.289
43.8067 14.217 0.285
43.8223 14.986 0.292
43.8379 15.584 0.298
43.8535 15.117 0.293
43.8692 15.921 0.301
43.8848 16.337 0.305
43.9004 17.066 0.312
43.9160 17.214 0.313
43.9316 17.989 0.320
43.9472 18.268 0.323
43.9628 18.969 0.329
43.9785 19.864 0.336
43.9941 19.932 0.337
44.0097 20.046 0.338
44.0253 20.946 0.345
44.0409 21.294 0.348
44.0565 22.132 0.355
44.0721 21.915 0.353
44.0878 22.246 0.356
44.1034 22.285 0.356
44.1190 22.519 0.358
44.1346 22.679 0.359
44.1502 22.428 0.357
44.1658 22.673 0.359
44.1815 22.320 0.357
44.1971 21.522 0.350
44.2127 21.322 0.349
44.2283 21.368 0.349
44.2439 21.077 0.347
44.2595 20.126 0.339
44.2751 19.858 0.336
44.2908 19.681 0.335
44.3064 18.861 0.328
44.3220 17.989 0.320
44.3376 18.365 0.323
44.3532 17.653 0.317
44.3688 16.929 0.311
44.3845 16.975 0.311
44.4001 16.023 0.302
44.4157 16.519 0.307
44.4313 15.260 0.295
44.4469 15.106 0.293
44.4625 15.311 0.295
44.4781 15.225 0.295
44.4938 14.730 0.290
44.5094 14.764 0.290
44.5250 14.023 0.283
44.5406 13.915 0.282
44.5562 13.505 0.277
44.5718 13.755 0.280
44.5874 13.345 0.276
44.6031 13.636 0.279
44.6187 13.237 0.275
44.6343 13.231 0.275
44.6499 13.003 0.272
44.6655 12.963 0.272
44.6811 13.026 0.272
44.6968 13.089 0.273
44.7124 13.054 0.273
44.7280 12.878 0.271
44.7436 12.262 0.264
44.7592 12.889 0.271
44.7748 12.724 0.269
44.7904 12.878 0.271
44.8061 12.844 0.271
44.8217 12.559 0.268
44.8373 12.929 0.271
44.8529 12.929 0.271
44.8685 12.251 0.264
44.8841 12.730 0.269
44.8997 12.148 0.263
44.9154 12.718 0.269
44.9310 12.570 0.268
44.9466 12.678 0.269
44.9622 12.228 0.264
44.9778 12.376 0.266
44.9934 12.559 0.268
45.0091 12.393 0.266
45.0247 11.915 0.261
45.0403 12.519 0.267
45.0559 12.490 0.267
45.0715 12.547 0.267
45.0871 12.525 0.267
45.1027 12.211 0.264
45.1184 12.257 0.264
45.1340 11.926 0.261
45.1496 11.801 0.259
45.1652 11.721 0.258
45.1808 12.359 0.265
45.1964 12.120 0.263
45.2121 12.143 0.263
45.2277 12.148 0.263
45.2433 12.223 0.264
45.2589 12.040 0.262
45.2745 12.154 0.263
45.2901 12.684 0.269
45.3057 12.034 0.262
45.3214 12.143 0.263
45.3370 12.365 0.265
45.3526 12.274 0.264
45.3682 11.977 0.261
45.3838 12.297 0.265
45.3994 12.126 0.263
45.4150 12.325 0.265
45.4307 11.926 0.261
45.4463 11.812 0.259
45.4619 11.869 0.260
45.4775 12.342 0.265
45.4931 12.120 0.263
45.5087 12.570 0.268
45.5244 12.097 0.263
45.5400 12.314 0.265
45.5556 12.365 0.265
45.5712 12.023 0.262
45.5868 11.909 0.260
45.6024 12.354 0.265
45.6180 12.695 0.269
45.6337 11.641 0.258
45.6493 11.932 0.261
45.6649 12.029 0.262
45.6805 11.522 0.256
45.6961 12.376 0.266
45.7117 12.827 0.270
45.7273 12.143 0.263
45.7430 12.109 0.263
45.7586 12.718 0.269
45.7742 11.966 0.261
45.7898 12.308 0.265
45.8054 12.730 0.269
45.8210 12.599 0.268
45.8367 12.126 0.263
45.8523 12.570 0.268
45.8679 12.661 0.269
45.8835 11.675 0.258
45.8991 12.126 0.263
45.9147 12.034 0.262
45.9303 12.656 0.269
45.9460 12.490 0.267
45.9616 12.268 0.264
45.9772 12.354 0.265
45.9928 12.205 0.264
46.0084 12.456 0.266
46.0240 12.240 0.264
46.0397 12.074 0.262
46.0553 12.336 0.265
46.0709 11.943 0.261
46.0865 12.274 0.264
46.1021 11.932 0.261
46.1177 12.057 0.262
46.1333 12.479 0.267
46.1490 12.308 0.265
46.1646 11.829 0.260
46.1802 12.205 0.264
46.1958 11.875 0.260
46.2114 12.496 0.267
46.2270 12.336 0.265
46.2426 11.841 0.260
46.2583 12.274 0.264
46.2739 12.046 0.262
46.2895 12.245 0.264
46.3051 12.525 0.267
46.3207 12.171 0.263
46.3363 12.188 0.264
46.3520 12.445 0.266
46.3676 12.730 0.269
46.3832 12.126 0.263
46.3988 12.319 0.265
46.4144 12.262 0.264
46.4300 13.197 0.274
46.4456 12.581 0.268
46.4613 12.804 0.270
46.4769 12.109 0.263
46.4925 12.547 0.267
46.5081 12.462 0.266
46.5237 12.792 0.270
46.5393 12.399 0.266
46.5549 12.405 0.266
46.5706 13.009 0.272
46.5862 12.633 0.268
46.6018 12.542 0.267
46.6174 12.365 0.265
46.6330 12.844 0.271
46.6486 12.251 0.264
46.6643 12.308 0.265
46.6799 12.838 0.270
46.6955 12.291 0.265
46.7111 12.154 0.263
46.7267 12.553 0.267
46.7423 12.849 0.271
46.7579 13.339 0.276
46.7736 12.656 0.269
46.7892 12.787 0.270
46.8048 13.180 0.274
46.8204 13.146 0.274
46.8360 13.277 0.275
46.8516 13.818 0.281
46.8673 13.214 0.274
46.8829 13.499 0.277
46.8985 13.835 0.281
46.9141 13.744 0.280
46.9297 14.371 0.286
46.9453 14.582 0.288
46.9609 14.787 0.290
46.9766 15.100 0.293
46.9922 15.636 0.298
47.0078 16.513 0.307
47.0234 17.385 0.315
47.0390 17.602 0.317
47.0546 18.667 0.326
47.0702 19.493 0.333
47.0859 21.020 0.346
47.1015 21.328 0.349
47.1171 21.585 0.351
47.1327 23.243 0.364
47.1483 23.989 0.370
47.1639 25.180 0.379
47.1796 25.767 0.383
47.1952 26.137 0.386
47.2108 27.277 0.394
47.2264 26.399 0.388
47.2420 27.248 0.394
47.2576 27.693 0.397
47.2732 28.120 0.400
47.2889 29.123 0.407
47.3045 28.308 0.402
47.3201 28.246 0.401
47.3357 27.966 0.399
47.3513 28.257 0.401
47.3669 29.431 0.410
47.3825 28.565 0.403
47.3982 28.747 0.405
47.4138 28.211 0.401
47.4294 27.761 0.398
47.4450 27.095 0.393
47.4606 26.285 0.387
47.4762 25.944 0.384
47.4919 25.226 0.379
47.5075 24.382 0.373
47.5231 23.060 0.362
47.5387 22.240 0.356
47.5543 21.026 0.346
47.5699 21.311 0.348
47.5855 19.613 0.334
47.6012 19.528 0.334
47.6168 19.191 0.331
47.6324 17.909 0.319
47.6480 17.904 0.319
47.6636 17.886 0.319
47.6792 16.718 0.309
47.6949 16.758 0.309
47.7105 15.750 0.300
47.7261 16.342 0.305
47.7417 15.875 0.301
47.7573 15.960 0.302
47.7729 15.858 0.301
47.7885 15.356 0.296
47.8042 14.895 0.291
47.8198 14.986 0.292
47.8354 14.388 0.286
47.8510 14.650 0.289
47.8666 14.365 0.286
47.8822 13.778 0.280
47.8978 13.875 0.281
47.9135 13.619 0.279
47.9291 13.601 0.278
47.9447 13.852 0.281
47.9603 13.442 0.277
47.9759 13.624 0.279
47.9915 12.935 0.271
48.0072 13.351 0.276
48.0228 12.918 0.271
48.0384 12.895 0.271
48.0540 12.758 0.270
48.0696 13.009 0.272
48.0852 13.630 0.279
48.1008 13.442 0.277
48.1165 13.043 0.273
48.1321 12.895 0.271
48.1477 13.237 0.275
48.1633 13.431 0.277
48.1789 14.017 0.283
48.1945 13.624 0.279
48.2101 13.351 0.276
48.2258 13.710 0.279
48.2414 13.562 0.278
48.2570 13.710 0.279
48.2726 14.143 0.284
48.2882 13.767 0.280
48.3038 13.875 0.281
48.3195 14.382 0.286
48.3351 13.841 0.281
48.3507 13.955 0.282
48.3663 13.391 0.276
48.3819 13.459 0.277
48.3975 13.909 0.282
48.4131 13.539 0.278
48.4288 13.584 0.278
48.4444 13.356 0.276
48.4600 13.636 0.279
48.4756 13.533 0.278
48.4912 13.562 0.278
48.5068 12.741 0.269
48.5225 12.485 0.267
48.5381 13.185 0.274
48.5537 13.020 0.272
48.5693 12.832 0.270
48.5849 13.089 0.273
48.6005 13.271 0.275
48.6161 13.015 0.272
48.6318 13.020 0.272
48.6474 13.459 0.277
48.6630 13.260 0.275
48.6786 13.015 0.272
48.6942 13.009 0.272
48.7098 13.322 0.276
48.7254 13.043 0.273
48.7411 13.277 0.275
48.7567 13.453 0.277
48.7723 13.795 0.280
48.7879 13.835 0.281
48.8035 13.881 0.281
48.8191 14.131 0.284
48.8348 14.855 0.291
48.8504 14.502 0.287
48.8660 15.094 0.293
48.8816 14.741 0.290
48.8972 15.778 0.300
48.9128 15.123 0.294
48.9284 15.733 0.299
48.9441 15.784 0.300
48.9597 15.767 0.300
48.9753 16.023 0.302
48.9909 15.767 0.300
49.0065 16.468 0.306
49.0221 15.641 0.299
49.0378 16.177 0.304
49.0534 15.448 0.297
49.0690 15.704 0.299
49.0846 16.074 0.303
49.1002 15.225 0.295
49.1158 15.858 0.301
49.1314 15.738 0.299
49.1471 15.339 0.296
49.1627 15.425 0.296
49.1783 15.214 0.294
49.1939 15.379 0.296
49.2095 15.208 0.294
49.2251 15.094 0.293
49.2407 14.844 0.291
49.2564 14.405 0.286
49.2720 14.365 0.286
49.2876 14.342 0.286
49.3032 14.587 0.288
49.3188 13.544 0.278
49.3344 13.487 0.277
49.3501 13.761 0.280
49.3657 13.881 0.281
49.3813 13.579 0.278
49.3969 13.607 0.278
49.4125 13.094 0.273
49.4281 12.581 0.268
49.4437 13.345 0.276
49.4594 12.992 0.272
49.4750 13.442 0.277
49.4906 13.180 0.274
49.5062 13.066 0.273
49.5218 13.009 0.272
49.5374 12.906 0.271
49.5530 13.305 0.275
49.5687 13.191 0.274
49.5843 13.710 0.279
49.5999 12.975 0.272
49.6155 13.522 0.278
49.6311 13.368 0.276
49.6467 14.245 0.285
49.6624 14.205 0.285
49.6780 14.029 0.283
49.6936 14.086 0.283
49.7092 14.297 0.285
49.7248 14.599 0.288
49.7404 14.895 0.291
49.7560 15.180 0.294
49.7717 15.522 0.297
49.7873 15.425 0.296
49.8029 15.129 0.294
49.8185 16.029 0.302
49.8341 16.171 0.304
49.8497 16.023 0.302
49.8654 16.285 0.305
49.8810 16.718 0.309
49.8966 16.319 0.305
49.9122 17.607 0.317
49.9278 17.738 0.318
49.9434 17.499 0.316
49.9590 17.408 0.315
49.9747 17.978 0.320
49.9903 17.909 0.319
50.0059 18.297 0.323
50.0215 18.439 0.324
50.0371 18.371 0.324
50.0527 18.536 0.325
50.0683 18.234 0.322
50.0840 18.570 0.325
50.0996 19.140 0.330
50.1152 18.388 0.324
50.1308 18.280 0.323
50.1464 17.311 0.314
50.1620 17.847 0.319
50.1777 17.881 0.319
50.1933 17.738 0.318
50.2089 17.602 0.317
50.2245 17.676 0.317
50.2401 17.026 0.311
50.2557 16.576 0.307
50.2713 16.576 0.307
50.2870 16.285 0.305
50.3026 15.858 0.301
50.3182 16.348 0.305
50.3338 15.140 0.294
50.3494 14.980 0.292
50.3650 14.576 0.288
50.3806 14.268 0.285
50.3963 13.619 0.279
50.4119 13.812 0.281
50.4275 13.379 0.276
50.4431 13.596 0.278
50.4587 13.624 0.279
50.4743 13.225 0.275
50.4900 13.003 0.272
50.5056 12.883 0.271
50.5212 13.117 0.273
50.5368 12.832 0.270
50.5524 12.348 0.265
50.5680 12.542 0.267
50.5836 12.678 0.269
50.5993 12.809 0.270
50.6149 12.775 0.270
50.6305 12.940 0.272
50.6461 12.673 0.269
50.6617 12.576 0.268
50.6773 12.240 0.264
50.6930 12.878 0.271
50.7086 12.547 0.267
50.7242 12.644 0.268
50.7398 12.513 0.267
50.7554 12.542 0.267
50.7710 12.787 0.270
50.7866 12.228 0.264
50.8023 12.838 0.270
50.8179 12.490 0.267
50.8335 13.345 0.276
50.8491 12.599 0.268
50.8647 12.770 0.270
50.8803 12.262 0.264
50.8959 13.436 0.277
50.9116 12.507 0.267
50.9272 12.502 0.267
50.9428 12.188 0.264
50.9584 12.405 0.266
50.9740 12.752 0.270
50.9896 12.724 0.269
51.0053 12.148 0.263
51.0209 12.336 0.265
51.0365 12.872 0.271
51.0521 12.040 0.262
51.0677 12.485 0.267
51.0833 12.507 0.267
51.0989 12.302 0.265
51.1146 12.285 0.265
51.1302 11.807 0.259
51.1458 11.886 0.260
51.1614 12.302 0.265
51.1770 12.342 0.265
51.1926 12.274 0.264
51.2082 12.502 0.267
51.2239 11.943 0.261
51.2395 11.915 0.261
51.2551 11.835 0.260
51.2707 12.160 0.263
51.2863 12.183 0.263
51.3019 11.920 0.261
51.3176 11.938 0.261
51.3332 12.120 0.263
51.3488 11.858 0.260
51.3644 12.245 0.264
51.3800 12.279 0.265
51.3956 12.564 0.268
51.4112 11.864 0.260
51.4269 11.727 0.258
51.4425 11.892 0.260
51.4581 12.223 0.264
51.4737 11.641 0.258
51.4893 11.727 0.258
51.5049 11.995 0.261
51.5206 11.636 0.257
51.5362 12.040 0.262
51.5518 12.086 0.262
51.5674 11.379 0.255
51.5830 11.801 0.259
51.5986 11.864 0.260
51.6142 11.920 0.261
51.6299 12.131 0.263
51.6455 12.274 0.264
51.6611 11.864 0.260
51.6767 11.265 0.253
51.6923 12.576 0.268
51.7079 11.824 0.260
51.7235 12.120 0.263
51.7392 11.943 0.261
51.7548 12.411 0.266
51.7704 11.653 0.258
51.7860 12.023 0.262
51.8016 11.977 0.261
51.8172 11.920 0.261
51.8329 12.245 0.264
51.8485 11.727 0.258
51.8641 12.177 0.263
51.8797 11.761 0.259
51.8953 11.727 0.258
51.9109 11.664 0.258
51.9265 11.903 0.260
51.9422 11.453 0.255
51.9578 11.801 0.259
51.9734 11.767 0.259
51.9890 12.023 0.262
52.0046 11.818 0.259
52.0202 12.291 0.265
52.0358 11.949 0.261
52.0515 12.166 0.263
52.0671 11.835 0.260
52.0827 12.114 0.263
52.0983 12.297 0.265
52.1139 11.522 0.256
52.1295 11.396 0.255
52.1452 11.601 0.257
52.1608 11.966 0.261
52.1764 11.567 0.257
52.1920 11.818 0.259
52.2076 12.148 0.263
52.2232 11.755 0.259
52.2388 11.260 0.253
52.2545 12.114 0.263
52.2701 12.052 0.262
52.2857 11.761 0.259
52.3013 12.205 0.264
52.3169 11.345 0.254
52.3325 11.886 0.260
52.3482 12.120 0.263
52.3638 11.995 0.261
52.3794 11.892 0.260
52.3950 12.109 0.263
52.4106 12.576 0.268
52.4262 11.641 0.258
52.4418 11.829 0.260
52.4575 11.989 0.261
52.4731 11.618 0.257
52.4887 12.006 0.262
52.5043 11.960 0.261
52.5199 12.171 0.263
52.5355 12.040 0.262
52.5511 11.955 0.261
52.5668 11.641 0.258
52.5824 11.977 0.261
52.5980 12.006 0.262
52.6136 12.336 0.265
52.6292 11.750 0.259
52.6448 12.120 0.263
52.6605 12.513 0.267
52.6761 12.371 0.265
52.6917 12.160 0.263
52.7073 12.342 0.265
52.7229 12.131 0.263
52.7385 11.955 0.261
52.7541 12.046 0.262
52.7698 12.809 0.270
52.7854 12.621 0.268
52.8010 12.610 0.268
52.8166 13.288 0.275
52.8322 12.895 0.271
52.8478 13.248 0.275
52.8634 13.413 0.276
52.8791 13.750 0.280
52.8947 13.220 0.274
52.9103 13.727 0.280
52.9259 13.972 0.282
52.9415 13.829 0.281
52.9571 13.715 0.280
52.9728 13.841 0.281
52.9884 13.738 0.280
53.0040 13.676 0.279
53.0196 14.393 0.286
53.0352 14.564 0.288
53.0508 13.949 0.282
53.0664 14.354 0.286
53.0821 14.730 0.290
53.0977 14.177 0.284
53.1133 14.114 0.284
53.1289 13.801 0.280
53.1445 14.507 0.288
53.1601 14.171 0.284
53.1758 13.846 0.281
53.1914 14.063 0.283
53.2070 14.234 0.285
53.2226 13.744 0.280
53.2382 13.789 0.280
53.2538 13.630 0.279
53.2694 13.658 0.279
53.2851 13.334 0.276
53.3007 13.801 0.280
53.3163 13.351 0.276
53.3319 13.203 0.274
53.3475 12.445 0.266
53.3631 12.667 0.269
53.3787 12.918 0.271
53.3944 12.507 0.267
53.4100 12.593 0.268
53.4256 12.718 0.269
53.4412 12.570 0.268
53.4568 11.881 0.260
53.4724 11.989 0.261
53.4881 12.411 0.266
53.5037 12.240 0.264
53.5193 12.502 0.267
53.5349 12.918 0.271
53.5505 11.750 0.259
53.5661 11.721 0.258
53.5817 11.949 0.261
53.5974 12.228 0.264
53.6130 12.354 0.265
53.6286 12.205 0.264
53.6442 12.205 0.264
53.6598 12.154 0.263
53.6754 12.154 0.263
53.6910 11.750 0.259
53.7067 11.818 0.259
53.7223 11.681 0.258
53.7379 12.057 0.262
53.7535 11.824 0.260
53.7691 11.750 0.259
53.7847 11.989 0.261
53.8004 11.966 0.261
53.8160 12.251 0.264
53.8316 11.801 0.259
53.8472 11.761 0.259
53.8628 11.875 0.260
53.8784 12.530 0.267
53.8940 12.695 0.269
53.9097 11.960 0.261
53.9253 12.171 0.263
53.9409 12.205 0.264
53.9565 11.835 0.260
53.9721 11.607 0.257
53.9877 12.650 0.268
54.0034 11.869 0.260
54.0190 11.732 0.259
54.0346 12.291 0.265
54.0502 11.562 0.257
54.0658 12.091 0.262
54.0814 11.949 0.261
54.0970 11.624 0.257
54.1127 12.160 0.263
54.1283 12.109 0.263
54.1439 11.533 0.256
54.1595 11.966 0.261
54.1751 11.647 0.258
54.1907 12.490 0.267
54.2063 12.166 0.263
54.2220 11.556 0.257
54.2376 11.505 0.256
54.2532 11.966 0.261
54.2688 12.097 0.263
54.2844 11.955 0.261
54.3000 12.308 0.265
54.3157 12.314 0.265
54.3313 11.573 0.257
54.3469 11.613 0.257
54.3625 12.388 0.266
54.3781 11.641 0.258
54.3937 11.624 0.257
54.4093 12.279 0.265
54.4250 11.966 0.261
54.4406 12.433 0.266
54.4562 11.493 0.256
54.4718 11.128 0.252
54.4874 11.864 0.260
54.5030 12.166 0.263
54.5187 12.143 0.263
54.5343 11.140 0.252
54.5499 11.607 0.257
54.5655 11.453 0.255
54.5811 12.074 0.262
54.5967 11.881 0.260
54.6123 11.875 0.260
54.6280 11.630 0.257
54.6436 11.778 0.259
54.6592 12.006 0.262
54.6748 11.681 0.258
54.6904 12.120 0.263
54.7060 12.040 0.262
54.7216 11.658 0.258
54.7373 11.459 0.256
54.7529 11.613 0.257
54.7685 12.063 0.262
54.7841 11.778 0.259
54.7997 11.385 0.255
54.8153 11.960 0.261
54.8310 11.841 0.260
54.8466 11.852 0.260
54.8622 12.297 0.265
54.8778 12.188 0.264
54.8934 12.291 0.265
54.9090 11.835 0.260
54.9246 11.909 0.260
54.9403 11.493 0.256
54.9559 11.772 0.259
54.9715 12.040 0.262
54.9871 11.664 0.258
55.0027 12.359 0.265
55.0183 11.738 0.259
55.0339 12.758 0.270
55.0496 12.354 0.265
55.0652 11.693 0.258
55.0808 11.926 0.261
55.0964 11.732 0.259
55.1120 11.801 0.259
55.1276 11.881 0.260
55.1433 11.562 0.257
55.1589 12.348 0.265
55.1745 12.114 0.263
55.1901 12.012 0.262
55.2057 11.715 0.258
55.2213 12.017 0.262
55.2369 11.584 0.257
55.2526 11.875 0.260
55.2682 11.470 0.256
55.2838 12.656 0.269
55.2994 11.402 0.255
55.3150 12.012 0.262
55.3306 11.693 0.258
55.3463 12.376 0.266
55.3619 12.171 0.263
55.3775 12.228 0.264
55.3931 11.795 0.259
55.4087 12.006 0.262
55.4243 11.835 0.260
55.4399 12.046 0.262
55.4556 11.875 0.260
55.4712 11.972 0.261
55.4868 12.154 0.263
55.5024 12.314 0.265
55.5180 12.148 0.263
55.5336 12.171 0.263
55.5492 11.903 0.260
55.5649 12.570 0.268
55.5805 12.063 0.262
55.5961 12.319 0.265
55.6117 12.086 0.262
55.6273 11.938 0.261
55.6429 12.701 0.269
55.6586 12.063 0.262
55.6742 12.405 0.266
55.6898 11.835 0.260
55.7054 12.040 0.262
55.7210 11.938 0.261
55.7366 12.359 0.265
55.7522 12.274 0.264
55.7679 12.354 0.265
55.7835 12.308 0.265
55.7991 11.920 0.261
55.8147 11.943 0.261
55.8303 12.815 0.270
55.8459 12.285 0.265
55.8615 12.023 0.262
55.8772 12.114 0.263
55.8928 12.297 0.265
55.9084 12.297 0.265
55.9240 11.926 0.261
55.9396 12.177 0.263
55.9552 12.547 0.267
55.9709 12.234 0.264
55.9865 11.972 0.261
56.0021 12.029 0.262
56.0177 11.943 0.261
56.0333 12.131 0.263
56.0489 12.183 0.263
56.0645 12.148 0.263
56.0802 12.240 0.264
56.0958 12.245 0.264
56.1114 12.109 0.263
56.1270 12.496 0.267
56.1426 12.251 0.264
56.1582 12.183 0.263
56.1739 12.166 0.263
56.1895 11.989 0.261
56.2051 12.245 0.264
56.2207 12.188 0.264
56.2363 12.034 0.262
56.2519 11.938 0.261
56.2675 12.086 0.262
56.2832 11.995 0.261
56.2988 11.824 0.260
56.3144 11.886 0.260
56.3300 12.245 0.264
56.3456 12.012 0.262
56.3612 12.365 0.265
56.3768 12.103 0.263
56.3925 11.732 0.259
56.4081 12.012 0.262
56.4237 12.262 0.264
56.4393 12.200 0.264
56.4549 11.932 0.261
56.4705 11.926 0.261
56.4862 11.755 0.259
56.5018 11.579 0.257
56.5174 11.767 0.259
56.5330 11.738 0.259
56.5486 11.356 0.254
56.5642 12.097 0.263
56.5798 11.920 0.261
56.5955 11.852 0.260
56.6111 11.875 0.260
56.6267 11.784 0.259
56.6423 12.012 0.262
56.6579 11.869 0.260
56.6735 11.977 0.261
56.6891 11.732 0.259
56.7048 12.029 0.262
56.7204 11.938 0.261
56.7360 11.675 0.258
56.7516 12.205 0.264
56.7672 12.200 0.264
56.7828 11.983 0.261
56.7985 11.841 0.260
56.8141 12.302 0.265
56.8297 12.234 0.264
56.8453 11.579 0.257
56.8609 11.533 0.256
56.8765 11.647 0.258
56.8921 12.502 0.267
56.9078 11.493 0.256
56.9234 12.747 0.270
56.9390 11.892 0.260
56.9546 11.738 0.259
56.9702 12.097 0.263
56.9858 11.869 0.260
57.0015 12.166 0.263
57.0171 12.046 0.262
57.0327 11.841 0.260
57.0483 11.909 0.260
57.0639 11.664 0.258
57.0795 11.755 0.259
57.0951 11.151 0.252
57.1108 11.533 0.256
57.1264 12.268 0.264
57.1420 12.348 0.265
57.1576 11.715 0.258
57.1732 11.920 0.261
57.1888 11.322 0.254
57.2044 11.812 0.259
57.2201 12.069 0.262
57.2357 11.989 0.261
57.2513 12.023 0.262
57.2669 11.778 0.259
57.2825 11.750 0.259
57.2981 12.069 0.262
57.3138 12.268 0.264
57.3294 11.596 0.257
57.3450 12.468 0.267
57.3606 12.314 0.265
57.3762 12.063 0.262
57.3918 12.029 0.262
57.4074 11.693 0.258
57.4231 11.413 0.255
57.4387 11.465 0.256
57.4543 11.630 0.257
57.4699 12.217 0.264
57.4855 11.966 0.261
57.5011 11.715 0.258
57.5167 12.251 0.264
57.5324 11.960 0.261
57.5480 11.875 0.260
57.5636 11.926 0.261
57.5792 12.371 0.265
57.5948 11.539 0.256
57.6104 12.069 0.262
57.6261 11.653 0.258
57.6417 12.319 0.265
57.6573 11.972 0.261
57.6729 12.223 0.264
57.6885 11.960 0.261
57.7041 12.507 0.267
57.7197 11.983 0.261
57.7354 12.735 0.269
57.7510 12.741 0.269
57.7666 11.864 0.260
57.7822 12.154 0.263
57.7978 12.462 0.266
57.8134 12.564 0.268
57.8291 12.496 0.267
57.8447 12.490 0.267
57.8603 12.542 0.267
57.8759 12.348 0.265
57.8915 12.621 0.268
57.9071 12.889 0.271
57.9227 12.690 0.269
57.9384 12.342 0.265
57.9540 13.026 0.272
57.9696 12.878 0.271
57.9852 13.026 0.272
58.0008 12.730 0.269
58.0164 12.411 0.266
58.0320 13.066 0.273
58.0477 12.752 0.270
58.0633 12.342 0.265
58.0789 12.593 0.268
58.0945 12.935 0.271
58.1101 13.151 0.274
58.1257 12.399 0.266
58.1414 12.747 0.270
58.1570 12.809 0.270
58.1726 12.485 0.267
58.1882 12.792 0.270
58.2038 12.684 0.269
58.2194 13.436 0.277
58.2350 13.482 0.277
58.2507 13.072 0.273
58.2663 12.963 0.272
58.2819 13.516 0.278
58.2975 13.596 0.278
58.3131 13.322 0.276
58.3287 13.385 0.276
58.3443 13.727 0.280
58.3600 13.448 0.277
58.3756 14.314 0.286
58.3912 14.946 0.292
58.4068 14.473 0.287
58.4224 15.328 0.296
58.4380 15.111 0.293
58.4537 14.861 0.291
58.4693 15.704 0.299
58.4849 16.217 0.304
58.5005 15.676 0.299
58.5161 16.160 0.303
58.5317 16.713 0.309
58.5473 16.941 0.311
58.5630 17.613 0.317
58.5786 16.975 0.311
58.5942 17.772 0.318
58.6098 18.137 0.321
58.6254 18.097 0.321
58.6410 17.368 0.315
58.6567 17.288 0.314
58.6723 18.137 0.321
58.6879 17.841 0.319
58.7035 18.063 0.321
58.7191 17.453 0.315
58.7347 17.698 0.318
58.7503 17.357 0.314
58.7660 17.117 0.312
58.7816 16.730 0.309
58.7972 17.220 0.313
58.8128 17.106 0.312
58.8284 16.166 0.304
58.8440 15.670 0.299
58.8596 16.268 0.304
58.8753 15.516 0.297
58.8909 15.607 0.298
58.9065 15.493 0.297
58.9221 15.191 0.294
58.9377 15.328 0.296
58.9533 14.901 0.291
58.9690 14.832 0.291
58.9846 15.186 0.294
59.0002 14.935 0.292
59.0158 15.208 0.294
59.0314 14.490 0.287
59.0470 14.274 0.285
59.0626 14.701 0.289
59.0783 14.302 0.285
59.0939 14.621 0.289
59.1095 14.855 0.291
59.1251 14.650 0.289
59.1407 14.331 0.286
59.1563 14.866 0.291
59.1720 15.186 0.294
59.1876 15.123 0.294
59.2032 15.214 0.294
59.2188 14.912 0.291
59.2344 14.525 0.288
59.2500 14.986 0.292
59.2656 15.032 0.293
59.2813 14.963 0.292
59.2969 14.946 0.292
59.3125 15.658 0.299
59.3281 15.032 0.293
59.3437 15.282 0.295
59.3593 14.741 0.290
59.3749 14.764 0.290
59.3906 15.277 0.295
59.4062 14.832 0.291
59.4218 14.382 0.286
59.4374 14.798 0.290
59.4530 14.200 0.284
59.4686 14.513 0.288
59.4843 14.450 0.287
59.4999 14.633 0.289
59.5155 14.359 0.286
59.5311 14.450 0.287
59.5467 14.428 0.287
59.5623 14.314 0.286
59.5779 14.029 0.283
59.5936 14.063 0.283
59.6092 13.772 0.280
59.6248 13.710 0.279
59.6404 14.245 0.285
59.6560 13.818 0.281
59.6716 13.972 0.282
59.6872 13.630 0.279
59.7029 14.490 0.287
59.7185 13.915 0.282
59.7341 13.926 0.282
59.7497 14.023 0.283
59.7653 13.915 0.282
59.7809 13.453 0.277
59.7966 14.519 0.288
59.8122 14.291 0.285
59.8278 14.086 0.283
59.8434 14.519 0.288
59.8590 14.411 0.287
59.8746 14.433 0.287
59.8902 14.695 0.289
59.9059 15.117 0.293
59.9215 14.730 0.290
59.9371 14.958 0.292
59.9527 14.878 0.291
59.9683 15.470 0.297
59.9839 15.613 0.298
59.9996 15.898 0.301
60.0152 15.744 0.300
60.0308 15.892 0.301
60.0464 15.704 0.299
60.0620 16.582 0.307
60.0776 15.693 0.299
60.0932 16.069 0.303
60.1089 16.388 0.306
60.1245 16.040 0.302
60.1401 16.194 0.304
60.1557 16.057 0.302
60.1713 16.371 0.305
60.1869 16.331 0.305
60.2025 15.790 0.300
60.2182 16.331 0.305
60.2338 16.382 0.306
60.2494 15.864 0.301
60.2650 15.978 0.302
60.2806 15.687 0.299
60.2962 16.314 0.305
60.3119 16.029 0.302
60.3275 15.425 0.296
60.3431 16.314 0.305
60.3587 15.767 0.300
60.3743 16.673 0.308
60.3899 16.035 0.302
60.4055 15.647 0.299
60.4212 15.807 0.300
60.4368 15.681 0.299
60.4524 15.231 0.295
60.4680 15.744 0.300
60.4836 15.225 0.295
60.4992 14.929 0.292
60.5148 14.958 0.292
60.5305 14.844 0.291
60.5461 15.710 0.299
60.5617 15.299 0.295
60.5773 14.935 0.292
60.5929 14.929 0.292
60.6085 14.855 0.291
60.6242 14.889 0.291
60.6398 14.325 0.286
60.6554 14.621 0.289
60.6710 14.006 0.283
60.6866 14.382 0.286
60.7022 14.428 0.287
60.7178 14.433 0.287
60.7335 13.755 0.280
60.7491 13.949 0.282
60.7647 14.297 0.285
60.7803 14.251 0.285
60.7959 14.325 0.286
60.8115 14.468 0.287
60.8272 13.596 0.278
60.8428 13.915 0.282
60.8584 14.086 0.283
60.8740 14.109 0.284
60.8896 13.539 0.278
60.9052 14.234 0.285
60.9208 14.450 0.287
60.9365 13.710 0.279
60.9521 14.029 0.283
60.9677 13.807 0.280
60.9833 13.892 0.281
60.9989 14.006 0.283
61.0145 13.715 0.280
61.0301 13.402 0.276
61.0458 13.875 0.281
61.0614 14.302 0.285
61.0770 13.425 0.277
61.0926 13.231 0.275
61.1082 13.185 0.274
61.1238 13.681 0.279
61.1395 13.111 0.273
61.1551 13.482 0.277
61.1707 13.140 0.274
61.1863 12.963 0.272
61.2019 13.550 0.278
61.2175 13.750 0.280
61.2331 13.163 0.274
61.2488 12.713 0.269
61.2644 13.180 0.274
61.2800 13.567 0.278
61.2956 13.510 0.277
61.3112 13.487 0.277
61.3268 13.630 0.279
61.3424 13.066 0.273
61.3581 13.493 0.277
61.3737 13.772 0.280
61.3893 13.294 0.275
61.4049 13.527 0.278
61.4205 13.527 0.278
61.4361 14.091 0.283
61.4518 13.869 0.281
61.4674 13.869 0.281
61.4830 13.681 0.279
61.4986 13.658 0.279
61.5142 13.584 0.278
61.5298 14.342 0.286
61.5454 13.915 0.282
61.5611 14.405 0.286
61.5767 14.012 0.283
61.5923 13.772 0.280
61.6079 13.579 0.278
61.6235 13.898 0.281
61.6391 14.963 0.292
61.6548 14.234 0.285
61.6704 14.074 0.283
61.6860 14.012 0.283
61.7016 13.915 0.282
61.7172 14.126 0.284
61.7328 14.166 0.284
61.7484 13.903 0.281
61.7641 13.960 0.282
61.7797 13.921 0.282
61.7953 13.584 0.278
61.8109 13.254 0.275
61.8265 14.143 0.284
61.8421 13.898 0.281
61.8577 13.710 0.279
61.8734 13.391 0.276
61.8890 13.943 0.282
61.9046 13.807 0.280
61.9202 13.630 0.279
61.9358 14.183 0.284
61.9514 13.174 0.274
61.9671 13.875 0.281
61.9827 13.562 0.278
61.9983 13.527 0.278
62.0139 13.317 0.275
62.0295 13.317 0.275
62.0451 13.738 0.280
62.0607 13.641 0.279
62.0764 14.188 0.284
62.0920 13.436 0.277
62.1076 13.539 0.278
62.1232 13.727 0.280
62.1388 13.641 0.279
62.1544 14.393 0.286
62.1700 14.354 0.286
62.1857 14.758 0.290
62.2013 15.807 0.300
62.2169 15.841 0.300
62.2325 17.129 0.312
62.2481 19.271 0.331
62.2637 22.969 0.362
62.2794 25.773 0.383
62.2950 31.858 0.426
62.3106 34.582 0.444
62.3262 36.252 0.454
62.3418 33.864 0.439
62.3574 30.120 0.414
62.3730 25.203 0.379
62.3887 21.562 0.351
62.4043 20.456 0.341
62.4199 19.619 0.334
62.4355 20.137 0.339
62.4511 21.681 0.351
62.4667 23.100 0.363
62.4824 24.263 0.372
62.4980 24.565 0.374
62.5136 23.516 0.366
62.5292 21.248 0.348
62.5448 18.724 0.327
62.5604 17.379 0.315
62.5760 15.391 0.296
62.5917 14.827 0.291
62.6073 13.858 0.281
62.6229 13.995 0.282
62.6385 13.778 0.280
62.6541 13.106 0.273
62.6697 13.271 0.275
62.6853 13.037 0.273
62.7010 12.963 0.272
62.7166 12.621 0.268
62.7322 12.513 0.267
62.7478 12.741 0.269
62.7634 12.416 0.266
62.7790 12.507 0.267
62.7947 12.188 0.264
62.8103 12.445 0.266
62.8259 12.080 0.262
62.8415 12.576 0.268
62.8571 12.815 0.270
62.8727 11.824 0.260
62.8883 12.348 0.265
62.9040 12.450 0.266
62.9196 12.336 0.265
62.9352 11.864 0.260
62.9508 11.858 0.260
62.9664 12.285 0.265
62.9820 12.012 0.262
62.9976 12.399 0.266
63.0133 12.342 0.265
63.0289 11.613 0.257
63.0445 12.223 0.264
63.0601 12.393 0.266
63.0757 12.342 0.265
63.0913 11.995 0.261
63.1070 12.314 0.265
63.1226 11.681 0.258
63.1382 12.479 0.267
63.1538 11.841 0.260
63.1694 12.086 0.262
63.1850 12.468 0.267
63.2006 11.886 0.260
63.2163 12.183 0.263
63.2319 12.319 0.265
63.2475 11.681 0.258
63.2631 11.875 0.260
63.2787 12.365 0.265
63.2943 12.069 0.262
63.3100 12.473 0.267
63.3256 12.336 0.265
63.3412 12.171 0.263
63.3568 11.960 0.261
63.3724 11.755 0.259
63.3880 11.670 0.258
63.4036 12.057 0.262
63.4193 12.342 0.265
63.4349 12.205 0.264
63.4505 12.126 0.263
63.4661 11.983 0.261
63.4817 11.590 0.257
63.4973 12.057 0.262
63.5129 11.881 0.260
63.5286 11.966 0.261
63.5442 12.023 0.262
63.5598 12.228 0.264
63.5754 11.881 0.260
63.5910 12.302 0.265
63.6066 12.183 0.263
63.6223 12.160 0.263
63.6379 12.388 0.266
63.6535 11.385 0.255
63.6691 12.228 0.264
63.6847 12.428 0.266
63.7003 11.693 0.258
63.7159 12.268 0.264
63.7316 12.069 0.262
63.7472 12.194 0.264
63.7628 12.223 0.264
63.7784 11.755 0.259
63.7940 12.029 0.262
63.8096 12.211 0.264
63.8252 12.103 0.263
63.8409 12.695 0.269
63.8565 12.348 0.265
63.8721 12.627 0.268
63.8877 12.564 0.268
63.9033 12.371 0.265
63.9189 11.704 0.258
63.9346 12.735 0.269
63.9502 11.846 0.260
63.9658 12.559 0.268
63.9814 12.302 0.265
63.9970 12.388 0.266
64.0126 12.479 0.267
64.0282 12.234 0.264
64.0439 11.784 0.259
64.0595 12.017 0.262
64.0751 13.026 0.272
64.0907 13.111 0.273
64.1063 12.564 0.268
64.1219 12.616 0.268
64.1376 12.593 0.268
64.1532 13.317 0.275
64.1688 13.032 0.272
64.1844 12.770 0.270
64.2000 12.935 0.271
64.2156 13.032 0.272
64.2312 12.997 0.272
64.2469 12.804 0.270
64.2625 13.026 0.272
64.2781 13.009 0.272
64.2937 12.764 0.270
64.3093 13.146 0.274
64.3249 12.872 0.271
64.3405 12.450 0.266
64.3562 13.163 0.274
64.3718 12.405 0.266
64.3874 12.604 0.268
64.4030 12.114 0.263
64.4186 12.331 0.265
64.4342 12.456 0.266
64.4499 12.644 0.268
64.4655 12.416 0.266
64.4811 12.673 0.269
64.4967 12.205 0.264
64.5123 12.120 0.263
64.5279 12.570 0.268
64.5435 12.331 0.265
64.5592 12.656 0.269
64.5748 12.684 0.269
64.5904 12.166 0.263
64.6060 11.624 0.257
64.6216 12.012 0.262
64.6372 12.297 0.265
64.6529 12.200 0.264
64.6685 12.638 0.268
64.6841 11.977 0.261
64.6997 11.960 0.261
64.7153 12.411 0.266
64.7309 11.989 0.261
64.7465 11.664 0.258
64.7622 11.789 0.259
64.7778 11.750 0.259
64.7934 11.903 0.260
64.8090 11.864 0.260
64.8246 11.807 0.259
64.8402 11.909 0.260
64.8558 12.091 0.262
64.8715 11.664 0.258
64.8871 11.727 0.258
64.9027 11.807 0.259
64.9183 12.137 0.263
64.9339 11.750 0.259
64.9495 12.131 0.263
64.9652 11.487 0.256
64.9808 11.932 0.261
64.9964 11.955 0.261
65.0120 12.205 0.264
65.0276 11.630 0.257
65.0432 11.550 0.257
65.0588 11.744 0.259
65.0745 11.886 0.260
65.0901 12.177 0.263
65.1057 11.892 0.260
65.1213 11.573 0.257
65.1369 11.960 0.261
65.1525 11.761 0.259
65.1681 12.228 0.264
65.1838 11.755 0.259
65.1994 11.693 0.258
65.2150 11.966 0.261
65.2306 11.960 0.261
65.2462 11.932 0.261
65.2618 11.510 0.256
65.2775 11.408 0.255
65.2931 11.288 0.254
65.3087 12.223 0.264
65.3243 11.744 0.259
65.3399 12.012 0.262
65.3555 11.966 0.261
65.3711 12.046 0.262
65.3868 12.000 0.261
65.4024 11.761 0.259
65.4180 12.148 0.263
65.4336 12.012 0.262
65.4492 12.086 0.262
65.4648 12.023 0.262
65.4805 11.693 0.258
65.4961 11.710 0.258
65.5117 12.103 0.263
65.5273 11.960 0.261
65.5429 12.114 0.263
65.5585 12.166 0.263
65.5741 12.000 0.261
65.5898 11.915 0.261
65.6054 12.285 0.265
65.6210 12.234 0.264
65.6366 13.185 0.274
65.6522 12.798 0.270
65.6678 12.587 0.268
65.6834 12.770 0.270
65.6991 12.599 0.268
65.7147 12.661 0.269
65.7303 12.815 0.270
65.7459 12.599 0.268
65.7615 13.134 0.274
65.7771 12.599 0.268
65.7928 13.385 0.276
65.8084 13.271 0.275
65.8240 12.986 0.272
65.8396 12.935 0.271
65.8552 13.163 0.274
65.8708 13.260 0.275
65.8864 13.146 0.274
65.9021 13.385 0.276
65.9177 12.997 0.272
65.9333 13.356 0.276
65.9489 12.969 0.272
65.9645 13.282 0.275
65.9801 13.379 0.276
65.9957 13.522 0.278
66.0114 12.923 0.271
66.0270 13.277 0.275
66.0426 12.815 0.270
66.0582 13.151 0.274
66.0738 12.878 0.271
66.0894 13.060 0.273
66.1051 12.713 0.269
66.1207 12.570 0.268
66.1363 12.940 0.272
66.1519 12.621 0.268
66.1675 12.376 0.266
66.1831 11.721 0.258
66.1987 12.502 0.267
66.2144 12.069 0.262
66.2300 12.052 0.262
66.2456 12.496 0.267
66.2612 12.097 0.263
66.2768 12.177 0.263
66.2924 12.057 0.262
66.3081 12.200 0.264
66.3237 12.285 0.265
66.3393 12.097 0.263
66.3549 11.875 0.260
66.3705 11.915 0.261
66.3861 12.376 0.266
66.4017 11.829 0.260
66.4174 12.485 0.267
66.4330 12.137 0.263
66.4486 12.120 0.263
66.4642 12.034 0.262
66.4798 11.339 0.254
66.4954 12.234 0.264
66.5110 11.841 0.260
66.5267 12.171 0.263
66.5423 11.487 0.256
66.5579 11.898 0.260
66.5735 11.795 0.259
66.5891 12.160 0.263
66.6047 11.744 0.259
66.6204 11.824 0.260
66.6360 11.892 0.260
66.6516 12.137 0.263
66.6672 12.262 0.264
66.6828 11.601 0.257
66.6984 11.704 0.258
66.7140 11.721 0.258
66.7297 11.966 0.261
66.7453 11.966 0.261
66.7609 11.960 0.261
66.7765 11.818 0.259
66.7921 12.205 0.264
66.8077 11.761 0.259
66.8233 11.618 0.257
66.8390 11.402 0.255
66.8546 12.166 0.263
66.8702 11.938 0.261
66.8858 12.006 0.262
66.9014 11.738 0.259
66.9170 11.938 0.261
66.9327 12.126 0.263
66.9483 11.664 0.258
66.9639 12.371 0.265
66.9795 12.251 0.264
66.9951 12.986 0.272
67.0107 12.393 0.266
67.0263 11.824 0.260
67.0420 12.507 0.267
67.0576 12.701 0.269
67.0732 12.177 0.263
67.0888 12.257 0.264
67.1044 11.977 0.261
67.1200 12.490 0.267
67.1357 12.393 0.266
67.1513 12.621 0.268
67.1669 12.137 0.263
67.1825 12.536 0.267
67.1981 12.359 0.265
67.2137 12.262 0.264
67.2293 13.248 0.275
67.2450 12.137 0.263
67.2606 12.496 0.267
67.2762 13.191 0.274
67.2918 12.975 0.272
67.3074 12.975 0.272
67.3230 12.832 0.270
67.3386 13.391 0.276
67.3543 12.929 0.271
67.3699 12.963 0.272
67.3855 13.527 0.278
67.4011 12.730 0.269
67.4167 12.650 0.268
67.4323 13.066 0.273
67.4480 13.214 0.274
67.4636 13.493 0.277
67.4792 12.872 0.271
67.4948 12.770 0.270
67.5104 13.203 0.274
67.5260 12.695 0.269
67.5416 13.413 0.276
67.5573 12.912 0.271
67.5729 13.106 0.273
67.5885 13.208 0.274
67.6041 13.020 0.272
67.6197 12.809 0.270
67.6353 13.026 0.272
67.6509 12.975 0.272
67.6666 13.254 0.275
67.6822 13.487 0.277
67.6978 12.992 0.272
67.7134 12.764 0.270
67.7290 13.271 0.275
67.7446 13.117 0.273
67.7603 12.422 0.266
67.7759 12.866 0.271
67.7915 12.342 0.265
67.8071 12.650 0.268
67.8227 12.519 0.267
67.8383 12.809 0.270
67.8539 12.468 0.267
67.8696 12.633 0.268
67.8852 12.080 0.262
67.9008 12.587 0.268
67.9164 12.297 0.265
67.9320 12.114 0.263
67.9476 12.109 0.263
67.9633 11.425 0.255
67.9789 12.217 0.264
67.9945 12.650 0.268
68.0101 12.012 0.262
68.0257 11.658 0.258
68.0413 12.399 0.266
68.0569 11.710 0.258
68.0726 12.120 0.263
68.0882 12.154 0.263
68.1038 11.807 0.259
68.1194 11.886 0.260
68.1350 12.450 0.266
68.1506 11.938 0.261
68.1662 11.789 0.259
68.1819 11.903 0.260
68.1975 11.989 0.261
68.2131 11.784 0.259
68.2287 11.801 0.259
68.2443 12.080 0.262
68.2599 11.675 0.258
68.2756 11.710 0.258
68.2912 12.091 0.262
68.3068 11.556 0.257
68.3224 11.824 0.260
68.3380 11.624 0.257
68.3536 12.120 0.263
68.3692 12.137 0.263
68.3849 11.829 0.260
68.4005 12.029 0.262
68.4161 11.789 0.259
68.4317 11.812 0.259
68.4473 12.507 0.267
68.4629 12.279 0.265
68.4785 12.279 0.265
68.4942 12.109 0.263
68.5098 11.624 0.257
68.5254 12.291 0.265
68.5410 12.166 0.263
68.5566 12.069 0.262
68.5722 12.200 0.264
68.5879 12.245 0.264
68.6035 12.405 0.266
68.6191 12.644 0.268
68.6347 12.958 0.272
68.6503 12.747 0.270
68.6659 12.787 0.270
68.6815 12.752 0.270
68.6972 12.718 0.269
68.7128 12.929 0.271
68.7284 12.997 0.272
68.7440 12.969 0.272
68.7596 12.513 0.267
68.7752 13.476 0.277
68.7909 13.123 0.273
68.8065 13.242 0.275
68.8221 13.624 0.279
68.8377 13.647 0.279
68.8533 13.282 0.275
68.8689 13.146 0.274
68.8845 13.345 0.276
68.9002 12.718 0.269
68.9158 13.487 0.277
68.9314 13.704 0.279
68.9470 13.134 0.274
68.9626 13.185 0.274
68.9782 13.772 0.280
68.9938 13.544 0.278
69.0095 13.453 0.277
69.0251 13.294 0.275
69.0407 13.476 0.277
69.0563 13.721 0.280
69.0719 13.374 0.276
69.0875 13.379 0.276
69.1032 13.442 0.277
69.1188 13.362 0.276
69.1344 13.311 0.275
69.1500 13.356 0.276
69.1656 13.254 0.275
69.1812 13.641 0.279
69.1968 13.448 0.277
69.2125 13.715 0.280
69.2281 13.334 0.276
69.2437 13.129 0.274
69.2593 13.157 0.274
69.2749 13.288 0.275
69.2905 12.616 0.268
69.3061 13.402 0.276
69.3218 13.072 0.273
69.3374 12.695 0.269
69.3530 12.570 0.268
69.3686 13.305 0.275
69.3842 12.718 0.269
69.3998 13.129 0.274
69.4155 12.564 0.268
69.4311 12.758 0.270
69.4467 12.536 0.267
69.4623 12.678 0.269
69.4779 13.334 0.276
69.4935 12.798 0.270
69.5091 13.089 0.273
69.5248 12.502 0.267
69.5404 12.798 0.270
69.5560 12.690 0.269
69.5716 12.530 0.267
69.5872 13.015 0.272
69.6028 12.496 0.267
69.6185 12.661 0.269
69.6341 12.547 0.267
69.6497 13.003 0.272
69.6653 12.849 0.271
69.6809 13.385 0.276
69.6965 12.975 0.272
69.7121 13.413 0.276
69.7278 12.604 0.268
69.7434 13.499 0.277
69.7590 13.869 0.281
69.7746 13.151 0.274
69.7902 13.009 0.272
69.8058 13.419 0.277
69.8214 13.374 0.276
69.8371 13.260 0.275
69.8527 13.493 0.277
69.8683 13.567 0.278
69.8839 13.544 0.278
69.8995 13.362 0.276
69.9151 13.328 0.276
69.9308 13.391 0.276
69.9464 13.693 0.279
69.9620 13.818 0.281
69.9776 13.470 0.277
69.9932 13.140 0.274
70.0088 13.465 0.277
70.0244 13.636 0.279
70.0401 13.214 0.274
70.0557 13.020 0.272
70.0713 13.374 0.276
70.0869 12.963 0.272
70.1025 13.123 0.273
70.1181 13.374 0.276
70.1338 13.220 0.274
70.1494 13.208 0.274
70.1650 13.573 0.278
70.1806 12.678 0.269
70.1962 13.151 0.274
70.2118 13.265 0.275
70.2274 12.997 0.272
70.2431 12.809 0.270
70.2587 12.815 0.270
70.2743 13.425 0.277
70.2899 12.975 0.272
70.3055 12.832 0.270
70.3211 13.425 0.277
70.3367 12.547 0.267
70.3524 13.208 0.274
70.3680 13.425 0.277
70.3836 13.733 0.280
70.3992 13.054 0.273
70.4148 13.750 0.280
70.4304 13.049 0.273
70.4461 13.208 0.274
70.4617 13.328 0.276
70.4773 13.242 0.275
70.4929 12.690 0.269
70.5085 13.265 0.275
70.5241 13.299 0.275
70.5397 13.385 0.276
70.5554 12.627 0.268
70.5710 13.049 0.273
70.5866 13.761 0.280
70.6022 13.419 0.277
70.6178 13.750 0.280
70.6334 12.963 0.272
70.6490 13.322 0.276
70.6647 13.015 0.272
70.6803 13.043 0.273
70.6959 13.527 0.278
70.7115 12.490 0.267
70.7271 13.140 0.274
70.7427 13.026 0.272
70.7584 13.157 0.274
70.7740 13.829 0.281
70.7896 12.804 0.270
70.8052 13.191 0.274
70.8208 13.556 0.278
70.8364 13.214 0.274
70.8520 13.334 0.276
70.8677 13.704 0.279
70.8833 13.208 0.274
70.8989 13.744 0.280
70.9145 13.129 0.274
70.9301 13.573 0.278
70.9457 13.317 0.275
70.9614 14.052 0.283
70.9770 13.949 0.282
70.9926 14.143 0.284
71.0082 14.359 0.286
71.0238 13.915 0.282
71.0394 14.268 0.285
71.0550 14.388 0.286
71.0707 14.120 0.284
71.0863 14.735 0.290
71.1019 14.621 0.289
71.1175 14.257 0.285
71.1331 14.530 0.288
71.1487 14.183 0.284
71.1643 14.633 0.289
71.1800 13.978 0.282
71.1956 15.106 0.293
71.2112 14.678 0.289
71.2268 14.929 0.292
71.2424 14.809 0.290
71.2580 14.576 0.288
71.2737 14.530 0.288
71.2893 14.969 0.292
71.3049 14.935 0.292
71.3205 14.507 0.288
71.3361 14.245 0.285
71.3517 14.804 0.290
71.3673 14.667 0.289
71.3830 14.707 0.289
71.3986 14.359 0.286
71.4142 14.815 0.291
71.4298 14.291 0.285
71.4454 14.411 0.287
71.4610 14.530 0.288
71.4766 14.046 0.283
71.4923 14.456 0.287
71.5079 14.228 0.285
71.5235 14.006 0.283
71.5391 14.610 0.289
71.5547 14.542 0.288
71.5703 13.619 0.279
71.5860 14.052 0.283
71.6016 14.000 0.282
71.6172 14.251 0.285
71.6328 14.012 0.283
71.6484 13.539 0.278
71.6640 13.431 0.277
71.6796 13.425 0.277
71.6953 13.698 0.279
71.7109 13.510 0.277
71.7265 13.043 0.273
71.7421 12.809 0.270
71.7577 12.883 0.271
71.7733 12.690 0.269
71.7890 13.060 0.273
71.8046 12.599 0.268
71.8202 12.542 0.267
71.8358 12.958 0.272
71.8514 12.809 0.270
71.8670 12.963 0.272
71.8826 12.599 0.268
71.8983 12.718 0.269
71.9139 12.411 0.266
71.9295 12.581 0.268
71.9451 11.858 0.260
71.9607 12.160 0.263
71.9763 11.807 0.259
71.9919 12.479 0.267
72.0076 11.995 0.261
72.0232 11.920 0.261
72.0388 12.137 0.263
72.0544 12.126 0.263
72.0700 12.000 0.261
72.0856 12.052 0.262
72.1013 12.205 0.264
72.1169 12.348 0.265
72.1325 11.510 0.256
72.1481 11.744 0.259
72.1637 11.630 0.257
72.1793 12.314 0.265
72.1949 12.291 0.265
72.2106 11.533 0.256
72.2262 11.732 0.259
72.2418 11.858 0.260
72.2574 11.590 0.257
72.2730 12.171 0.263
72.2886 11.864 0.260
72.3042 11.715 0.258
72.3199 11.738 0.259
72.3355 11.898 0.260
72.3511 12.376 0.266
72.3667 11.630 0.257
72.3823 12.057 0.262
72.3979 11.248 0.253
72.4136 12.000 0.261
72.4292 11.442 0.255
72.4448 11.698 0.258
72.4604 12.091 0.262
72.4760 11.886 0.260
72.4916 11.459 0.256
72.5072 12.279 0.265
72.5229 11.744 0.259
72.5385 11.721 0.258
72.5541 11.584 0.257
72.5697 11.533 0.256
72.5853 11.539 0.256
72.6009 11.618 0.257
72.6166 11.972 0.261
72.6322 11.408 0.255
72.6478 11.909 0.260
72.6634 11.596 0.257
72.6790 11.613 0.257
72.6946 11.402 0.255
72.7102 11.829 0.260
72.7259 11.658 0.258
72.7415 11.590 0.257
72.7571 11.539 0.256
72.7727 11.647 0.258
72.7883 12.063 0.262
72.8039 11.653 0.258
72.8195 11.767 0.259
72.8352 11.544 0.256
72.8508 11.641 0.258
72.8664 11.698 0.258
72.8820 12.086 0.262
72.8976 12.097 0.263
72.9132 11.442 0.255
72.9289 11.732 0.259
72.9445 11.282 0.254
72.9601 11.066 0.251
72.9757 11.738 0.259
72.9913 11.721 0.258
73.0069 11.493 0.256
73.0225 11.903 0.260
73.0382 11.618 0.257
73.0538 11.744 0.259
73.0694 11.761 0.259
73.0850 11.413 0.255
73.1006 11.915 0.261
73.1162 11.385 0.255
73.1318 11.601 0.257
73.1475 11.864 0.260
73.1631 12.314 0.265
73.1787 11.425 0.255
73.1943 11.858 0.260
73.2099 11.846 0.260
73.2255 11.687 0.258
73.2412 11.795 0.259
73.2568 11.698 0.258
73.2724 11.727 0.258
73.2880 11.875 0.260
73.3036 11.567 0.257
73.3192 12.029 0.262
73.3348 11.254 0.253
73.3505 11.687 0.258
73.3661 11.539 0.256
73.3817 11.915 0.261
73.3973 11.618 0.257
73.4129 11.932 0.261
73.4285 11.960 0.261
73.4442 11.789 0.259
73.4598 12.262 0.264
73.4754 11.664 0.258
73.4910 11.738 0.259
73.5066 12.126 0.263
73.5222 12.126 0.263
73.5378 11.852 0.260
73.5535 12.160 0.263
73.5691 11.345 0.254
73.5847 11.533 0.256
73.6003 11.960 0.261
73.6159 11.693 0.258
73.6315 11.812 0.259
73.6471 11.989 0.261
73.6628 11.482 0.256
73.6784 12.091 0.262
73.6940 11.408 0.255
73.7096 11.522 0.256
73.7252 11.470 0.256
73.7408 11.527 0.256
73.7565 11.784 0.259
73.7721 11.499 0.256
73.7877 11.898 0.260
73.8033 11.829 0.260
73.8189 11.932 0.261
73.8345 11.989 0.261
73.8501 11.544 0.256
73.8658 11.334 0.254
73.8814 11.505 0.256
73.8970 11.784 0.259
73.9126 12.017 0.262
73.9282 11.624 0.257
73.9438 12.137 0.263
73.9594 12.137 0.263
73.9751 11.442 0.255
73.9907 11.328 0.254
74.0063 11.852 0.260
74.0219 11.898 0.260
74.0375 11.630 0.257
74.0531 11.630 0.257
74.0688 11.459 0.256
74.0844 11.334 0.254
74.1000 11.476 0.256
74.1156 11.590 0.257
74.1312 11.955 0.261
74.1468 11.670 0.258
74.1624 12.029 0.262
74.1781 12.205 0.264
74.1937 12.097 0.263
74.2093 11.858 0.260
74.2249 11.938 0.261
74.2405 12.183 0.263
74.2561 11.750 0.259
74.2718 11.448 0.255
74.2874 11.442 0.255
74.3030 11.693 0.258
74.3186 11.607 0.257
74.3342 12.257 0.264
74.3498 11.915 0.261
74.3654 11.761 0.259
74.3811 11.789 0.259
74.3967 11.607 0.257
74.4123 11.316 0.254
74.4279 11.550 0.257
74.4435 11.761 0.259
74.4591 11.932 0.261
74.4747 11.841 0.260
74.4904 11.938 0.261
74.5060 11.966 0.261
74.5216 12.091 0.262
74.5372 11.915 0.261
74.5528 11.442 0.255
74.5684 11.618 0.257
74.5841 11.562 0.257
74.5997 12.148 0.263
74.6153 12.120 0.263
74.6309 12.889 0.271
74.6465 12.376 0.266
74.6621 13.658 0.279
74.6777 13.886 0.281
74.6934 14.439 0.287
74.7090 14.354 0.286
74.7246 14.342 0.286
74.7402 13.641 0.279
74.7558 12.525 0.267
74.7714 12.342 0.265
74.7871 12.456 0.266
74.8027 12.046 0.262
74.8183 12.057 0.262
74.8339 12.342 0.265
74.8495 12.080 0.262
74.8651 12.365 0.265
74.8807 12.143 0.263
74.8964 12.542 0.267
74.9120 12.678 0.269
74.9276 12.969 0.272
74.9432 12.912 0.271
74.9588 12.450 0.266
74.9744 12.747 0.270
74.9900 11.698 0.258
75.0057 11.977 0.261
75.0213 12.166 0.263
75.0369 12.017 0.262
75.0525 12.245 0.264
75.0681 11.864 0.260
75.0837 11.550 0.257
75.0994 11.801 0.259
75.1150 12.006 0.262
75.1306 11.795 0.259
75.1462 11.664 0.258
75.1618 11.687 0.258
75.1774 11.596 0.257
75.1930 11.573 0.257
75.2087 11.960 0.261
75.2243 11.795 0.259
75.2399 11.698 0.258
75.2555 11.550 0.257
75.2711 11.516 0.256
75.2867 11.157 0.252
75.3023 11.277 0.253
75.3180 11.789 0.259
75.3336 11.277 0.253
75.3492 11.539 0.256
75.3648 11.442 0.255
75.3804 11.214 0.253
75.3960 11.191 0.253
75.4117 11.767 0.259
75.4273 11.487 0.256
75.4429 11.567 0.257
75.4585 11.151 0.252
75.4741 11.846 0.260
75.4897 12.046 0.262
75.5053 11.220 0.253
75.5210 11.299 0.254
75.5366 11.670 0.258
75.5522 12.171 0.263
75.5678 11.123 0.252
75.5834 11.755 0.259
75.5990 11.858 0.260
75.6147 11.111 0.252
75.6303 11.584 0.257
75.6459 11.943 0.261
75.6615 11.539 0.256
75.6771 11.875 0.260
75.6927 11.522 0.256
75.7083 11.869 0.260
75.7240 11.584 0.257
75.7396 11.271 0.253
75.7552 11.658 0.258
75.7708 11.533 0.256
75.7864 11.334 0.254
75.8020 11.750 0.259
75.8176 11.653 0.258
75.8333 11.465 0.256
75.8489 11.379 0.255
75.8645 11.607 0.257
75.8801 11.362 0.254
75.8957 11.368 0.255
75.9113 11.556 0.257
75.9270 11.630 0.257
75.9426 11.316 0.254
75.9582 11.242 0.253
75.9738 10.952 0.250
75.9894 11.493 0.256
76.0050 11.282 0.254
76.0206 11.505 0.256
76.0363 11.505 0.256
76.0519 11.584 0.257
76.0675 11.242 0.253
76.0831 11.562 0.257
76.0987 11.613 0.257
76.1143 11.191 0.253
76.1299 11.248 0.253
76.1456 11.556 0.257
76.1612 11.499 0.256
76.1768 11.675 0.258
76.1924 11.345 0.254
76.2080 11.345 0.254
76.2236 11.402 0.255
76.2393 11.157 0.252
76.2549 11.419 0.255
76.2705 11.448 0.255
76.2861 11.801 0.259
76.3017 11.852 0.260
76.3173 11.265 0.253
76.3329 11.767 0.259
76.3486 11.767 0.259
76.3642 11.636 0.257
76.3798 11.943 0.261
76.3954 11.812 0.259
76.4110 11.527 0.256
76.4266 11.755 0.259
76.4423 11.596 0.257
76.4579 11.886 0.260
76.4735 11.203 0.253
76.4891 11.328 0.254
76.5047 11.664 0.258
76.5203 11.562 0.257
76.5359 11.032 0.251
76.5516 11.265 0.253
76.5672 11.442 0.255
76.5828 11.590 0.257
76.5984 11.886 0.260
76.6140 11.134 0.252
76.6296 11.579 0.257
76.6452 11.448 0.255
76.6609 12.017 0.262
76.6765 11.732 0.259
76.6921 11.522 0.256
76.7077 12.177 0.263
76.7233 11.003 0.250
76.7389 11.237 0.253
76.7546 11.670 0.258
76.7702 11.305 0.254
76.7858 11.089 0.251
76.8014 11.795 0.259
76.8170 11.180 0.252
76.8326 12.063 0.262
76.8482 11.886 0.260
76.8639 12.114 0.263
76.8795 11.334 0.254
76.8951 11.351 0.254
76.9107 11.755 0.259
76.9263 11.613 0.257
76.9419 11.721 0.258
76.9575 11.305 0.254
76.9732 11.014 0.251
76.9888 11.841 0.260
77.0044 12.211 0.264
