'Id: "" Comment: "Single 30 min qual/quant raw material scan" Operator: "Paul  Stutzman" Anode: "Cu" Scantype: "Locked Coupled" TimePerStep: "175.496" X: "0" Y: "0" Z: "0" 
10.0000 7.066 0.201
10.0156 7.846 0.211
10.0312 7.584 0.208
10.0468 7.396 0.205
10.0625 7.294 0.204
10.0781 7.436 0.206
10.0937 7.482 0.206
10.1093 7.624 0.208
10.1249 7.607 0.208
10.1405 7.584 0.208
10.1562 7.066 0.201
10.1718 7.373 0.205
10.1874 7.037 0.200
10.2030 7.556 0.207
10.2186 7.732 0.210
10.2342 7.476 0.206
10.2498 7.447 0.206
10.2655 7.539 0.207
10.2811 7.465 0.206
10.2967 7.254 0.203
10.3123 7.670 0.209
10.3279 7.373 0.205
10.3435 7.539 0.207
10.3591 7.288 0.204
10.3748 7.527 0.207
10.3904 7.493 0.207
10.4060 7.453 0.206
10.4216 7.294 0.204
10.4372 7.442 0.206
10.4528 7.311 0.204
10.4685 7.214 0.203
10.4841 7.356 0.205
10.4997 7.157 0.202
10.5153 7.544 0.207
10.5309 7.242 0.203
10.5465 7.208 0.203
10.5621 7.277 0.204
10.5778 7.453 0.206
10.5934 7.413 0.206
10.6090 7.453 0.206
10.6246 7.670 0.209
10.6402 7.316 0.204
10.6558 7.191 0.202
10.6714 7.208 0.203
10.6871 7.037 0.200
10.7027 7.003 0.200
10.7183 7.487 0.207
10.7339 7.322 0.204
10.7495 7.556 0.207
10.7651 7.550 0.207
10.7808 6.729 0.196
10.7964 7.237 0.203
10.8120 7.214 0.203
10.8276 7.174 0.202
10.8432 6.940 0.199
10.8588 6.610 0.194
10.8744 6.838 0.197
10.8901 7.128 0.202
10.9057 7.117 0.201
10.9213 7.128 0.202
10.9369 7.368 0.205
10.9525 7.265 0.203
10.9681 7.157 0.202
10.9838 7.322 0.204
10.9994 6.940 0.199
11.0150 6.992 0.200
11.0306 7.539 0.207
11.0462 7.197 0.203
11.0618 7.470 0.206
11.0774 7.163 0.202
11.0931 7.522 0.207
11.1087 7.174 0.202
11.1243 7.088 0.201
11.1399 7.294 0.204
11.1555 7.419 0.206
11.1711 7.168 0.202
11.1867 7.185 0.202
11.2024 7.453 0.206
11.2180 7.254 0.203
11.2336 7.214 0.203
11.2492 7.419 0.206
11.2648 7.322 0.204
11.2804 7.624 0.208
11.2961 7.077 0.201
11.3117 7.282 0.204
11.3273 7.601 0.208
11.3429 7.419 0.206
11.3585 7.567 0.208
11.3741 7.163 0.202
11.3897 6.969 0.199
11.4054 7.402 0.205
11.4210 7.430 0.206
11.4366 7.157 0.202
11.4522 7.003 0.200
11.4678 7.465 0.206
11.4834 7.396 0.205
11.4990 7.550 0.207
11.5147 7.311 0.204
11.5303 7.499 0.207
11.5459 7.088 0.201
11.5615 7.140 0.202
11.5771 7.328 0.204
11.5927 7.009 0.200
11.6084 6.587 0.194
11.6240 6.792 0.197
11.6396 6.889 0.198
11.6552 7.248 0.203
11.6708 7.596 0.208
11.6864 6.883 0.198
11.7020 7.447 0.206
11.7177 6.895 0.198
11.7333 7.088 0.201
11.7489 7.556 0.207
11.7645 7.208 0.203
11.7801 7.368 0.205
11.7957 7.157 0.202
11.8114 7.157 0.202
11.8270 7.054 0.200
11.8426 7.231 0.203
11.8582 6.969 0.199
11.8738 7.373 0.205
11.8894 7.641 0.209
11.9050 7.277 0.204
11.9207 7.453 0.206
11.9363 7.088 0.201
11.9519 7.277 0.204
11.9675 7.254 0.203
11.9831 7.692 0.209
11.9987 7.687 0.209
12.0143 7.522 0.207
12.0300 7.761 0.210
12.0456 8.308 0.218
12.0612 8.268 0.217
12.0768 8.490 0.220
12.0924 8.826 0.224
12.1080 9.687 0.235
12.1237 10.017 0.239
12.1393 10.667 0.247
12.1549 11.054 0.251
12.1705 11.579 0.257
12.1861 11.784 0.259
12.2017 12.080 0.262
12.2173 12.034 0.262
12.2330 11.231 0.253
12.2486 10.889 0.249
12.2642 9.898 0.237
12.2798 9.459 0.232
12.2954 9.060 0.227
12.3110 8.143 0.215
12.3266 8.091 0.215
12.3423 7.579 0.208
12.3579 7.943 0.213
12.3735 7.220 0.203
12.3891 7.430 0.206
12.4047 7.259 0.203
12.4203 7.613 0.208
12.4360 6.707 0.195
12.4516 7.163 0.202
12.4672 7.151 0.202
12.4828 7.031 0.200
12.4984 7.185 0.202
12.5140 6.963 0.199
12.5296 6.861 0.198
12.5453 6.912 0.198
12.5609 6.541 0.193
12.5765 7.060 0.201
12.5921 6.667 0.195
12.6077 6.690 0.195
12.6233 7.242 0.203
12.6390 6.946 0.199
12.6546 6.661 0.195
12.6702 7.054 0.200
12.6858 6.838 0.197
12.7014 6.861 0.198
12.7170 6.724 0.196
12.7326 7.248 0.203
12.7483 6.804 0.197
12.7639 6.598 0.194
12.7795 6.918 0.199
12.7951 6.843 0.197
12.8107 7.088 0.201
12.8263 6.786 0.197
12.8419 7.060 0.201
12.8576 7.003 0.200
12.8732 7.231 0.203
12.8888 6.524 0.193
12.9044 6.439 0.192
12.9200 6.564 0.193
12.9356 6.593 0.194
12.9513 6.866 0.198
12.9669 6.507 0.193
12.9825 6.513 0.193
12.9981 6.752 0.196
13.0137 7.060 0.201
13.0293 6.690 0.195
13.0449 6.906 0.198
13.0606 6.764 0.196
13.0762 6.815 0.197
13.0918 6.849 0.198
13.1074 6.513 0.193
13.1230 6.638 0.194
13.1386 6.912 0.198
13.1543 6.456 0.192
13.1699 6.729 0.196
13.1855 6.701 0.195
13.2011 6.621 0.194
13.2167 6.593 0.194
13.2323 6.758 0.196
13.2479 6.997 0.200
13.2636 6.604 0.194
13.2792 6.758 0.196
13.2948 6.940 0.199
13.3104 6.883 0.198
13.3260 6.678 0.195
13.3416 6.484 0.192
13.3572 6.570 0.193
13.3729 6.593 0.194
13.3885 6.547 0.193
13.4041 6.519 0.193
13.4197 6.530 0.193
13.4353 6.598 0.194
13.4509 6.131 0.187
13.4666 6.507 0.193
13.4822 6.604 0.194
13.4978 6.314 0.190
13.5134 6.502 0.192
13.5290 6.798 0.197
13.5446 6.667 0.195
13.5602 6.564 0.193
13.5759 6.616 0.194
13.5915 6.821 0.197
13.6071 6.353 0.190
13.6227 6.667 0.195
13.6383 6.467 0.192
13.6539 6.587 0.194
13.6695 6.519 0.193
13.6852 6.353 0.190
13.7008 6.604 0.194
13.7164 6.365 0.190
13.7320 6.268 0.189
13.7476 6.137 0.187
13.7632 6.445 0.192
13.7789 6.502 0.192
13.7945 6.336 0.190
13.8101 6.371 0.191
13.8257 6.410 0.191
13.8413 5.989 0.185
13.8569 6.143 0.187
13.8725 6.245 0.189
13.8882 6.029 0.185
13.9038 6.029 0.185
13.9194 6.131 0.187
13.9350 6.165 0.187
13.9506 5.943 0.184
13.9662 6.040 0.186
13.9819 5.846 0.183
13.9975 5.943 0.184
14.0131 6.200 0.188
14.0287 5.937 0.184
14.0443 6.046 0.186
14.0599 6.114 0.187
14.0755 6.314 0.190
14.0912 5.863 0.183
14.1068 5.915 0.184
14.1224 5.920 0.184
14.1380 6.251 0.189
14.1536 6.057 0.186
14.1692 6.120 0.187
14.1848 6.211 0.188
14.2005 5.801 0.182
14.2161 6.091 0.186
14.2317 5.806 0.182
14.2473 5.909 0.183
14.2629 6.051 0.186
14.2785 5.949 0.184
14.2942 5.915 0.184
14.3098 5.880 0.183
14.3254 5.749 0.181
14.3410 5.960 0.184
14.3566 5.607 0.179
14.3722 5.966 0.184
14.3878 6.034 0.185
14.4035 5.772 0.181
14.4191 5.818 0.182
14.4347 5.641 0.179
14.4503 5.823 0.182
14.4659 5.869 0.183
14.4815 6.069 0.186
14.4971 5.607 0.179
14.5128 5.647 0.179
14.5284 5.949 0.184
14.5440 6.069 0.186
14.5596 5.898 0.183
14.5752 5.755 0.181
14.5908 5.818 0.182
14.6065 5.846 0.183
14.6221 6.410 0.191
14.6377 5.892 0.183
14.6533 5.630 0.179
14.6689 5.863 0.183
14.6845 5.772 0.181
14.7001 5.670 0.180
14.7158 5.704 0.180
14.7314 5.533 0.178
14.7470 5.880 0.183
14.7626 5.943 0.184
14.7782 6.188 0.188
14.7938 5.955 0.184
14.8095 6.069 0.186
14.8251 5.858 0.183
14.8407 6.234 0.188
14.8563 6.701 0.195
14.8719 6.388 0.191
14.8875 6.479 0.192
14.9031 6.786 0.197
14.9188 7.311 0.204
14.9344 7.220 0.203
14.9500 8.240 0.217
14.9656 8.844 0.224
14.9812 9.288 0.230
14.9968 9.618 0.234
15.0124 10.080 0.240
15.0281 9.071 0.227
15.0437 8.245 0.217
15.0593 7.806 0.211
15.0749 7.231 0.203
15.0905 6.684 0.195
15.1061 5.869 0.183
15.1218 5.806 0.182
15.1374 6.023 0.185
15.1530 5.482 0.177
15.1686 5.898 0.183
15.1842 5.698 0.180
15.1998 6.017 0.185
15.2154 5.749 0.181
15.2311 5.379 0.175
15.2467 5.607 0.179
15.2623 5.294 0.174
15.2779 5.544 0.178
15.2935 5.567 0.178
15.3091 5.499 0.177
15.3247 5.499 0.177
15.3404 5.333 0.174
15.3560 5.459 0.176
15.3716 5.390 0.175
15.3872 5.704 0.180
15.4028 5.482 0.177
15.4184 5.476 0.177
15.4341 5.345 0.175
15.4497 5.208 0.172
15.4653 5.482 0.177
15.4809 5.322 0.174
15.4965 5.419 0.176
15.5121 5.219 0.172
15.5277 5.299 0.174
15.5434 5.368 0.175
15.5590 5.442 0.176
15.5746 5.316 0.174
15.5902 5.316 0.174
15.6058 5.539 0.178
15.6214 5.493 0.177
15.6371 5.510 0.177
15.6527 5.573 0.178
15.6683 5.242 0.173
15.6839 5.430 0.176
15.6995 5.465 0.176
15.7151 5.020 0.169
15.7307 5.231 0.173
15.7464 5.356 0.175
15.7620 5.106 0.171
15.7776 5.259 0.173
15.7932 5.208 0.172
15.8088 5.362 0.175
15.8244 5.493 0.177
15.8400 5.271 0.173
15.8557 5.527 0.177
15.8713 5.083 0.170
15.8869 5.305 0.174
15.9025 5.402 0.175
15.9181 5.225 0.173
15.9337 5.613 0.179
15.9494 5.237 0.173
15.9650 5.219 0.172
15.9806 5.550 0.178
15.9962 5.311 0.174
16.0118 5.294 0.174
16.0274 5.271 0.173
16.0430 5.539 0.178
16.0587 5.140 0.171
16.0743 5.351 0.175
16.0899 5.476 0.177
16.1055 5.596 0.179
16.1211 5.590 0.178
16.1367 5.778 0.181
16.1523 5.710 0.180
16.1680 5.584 0.178
16.1836 5.749 0.181
16.1992 6.125 0.187
16.2148 6.205 0.188
16.2304 6.462 0.192
16.2460 6.228 0.188
16.2617 6.456 0.192
16.2773 5.784 0.182
16.2929 5.647 0.179
16.3085 5.368 0.175
16.3241 5.504 0.177
16.3397 5.305 0.174
16.3553 5.265 0.173
16.3710 5.197 0.172
16.3866 5.436 0.176
16.4022 5.459 0.176
16.4178 5.197 0.172
16.4334 5.254 0.173
16.4490 5.088 0.170
16.4647 5.373 0.175
16.4803 4.957 0.168
16.4959 5.288 0.174
16.5115 5.254 0.173
16.5271 5.225 0.173
16.5427 5.117 0.171
16.5583 5.060 0.170
16.5740 5.009 0.169
16.5896 5.265 0.173
16.6052 5.385 0.175
16.6208 5.294 0.174
16.6364 5.151 0.171
16.6520 5.009 0.169
16.6676 5.020 0.169
16.6833 4.906 0.167
16.6989 4.992 0.169
16.7145 5.328 0.174
16.7301 5.054 0.170
16.7457 5.282 0.173
16.7613 5.197 0.172
16.7770 4.900 0.167
16.7926 4.878 0.167
16.8082 5.362 0.175
16.8238 5.066 0.170
16.8394 5.163 0.172
16.8550 4.895 0.167
16.8706 5.180 0.172
16.8863 4.917 0.167
16.9019 4.878 0.167
16.9175 4.741 0.164
16.9331 5.288 0.174
16.9487 4.815 0.166
16.9643 5.060 0.170
16.9799 5.100 0.170
16.9956 5.208 0.172
17.0112 4.980 0.168
17.0268 5.128 0.171
17.0424 5.037 0.169
17.0580 4.889 0.167
17.0736 5.088 0.170
17.0893 5.083 0.170
17.1049 5.014 0.169
17.1205 5.322 0.174
17.1361 5.402 0.175
17.1517 5.482 0.177
17.1673 5.470 0.177
17.1829 5.254 0.173
17.1986 5.088 0.170
17.2142 5.601 0.179
17.2298 4.997 0.169
17.2454 5.026 0.169
17.2610 5.305 0.174
17.2766 5.003 0.169
17.2923 5.214 0.172
17.3079 5.060 0.170
17.3235 5.088 0.170
17.3391 5.282 0.173
17.3547 4.980 0.168
17.3703 5.128 0.171
17.3859 4.969 0.168
17.4016 4.729 0.164
17.4172 5.054 0.170
17.4328 4.935 0.168
17.4484 5.276 0.173
17.4640 4.935 0.168
17.4796 5.145 0.171
17.4952 5.225 0.173
17.5109 5.231 0.173
17.5265 4.764 0.165
17.5421 4.997 0.169
17.5577 5.225 0.173
17.5733 4.929 0.168
17.5889 5.111 0.171
17.6046 4.832 0.166
17.6202 4.855 0.166
17.6358 4.667 0.163
17.6514 4.992 0.169
17.6670 5.180 0.172
17.6826 4.889 0.167
17.6982 5.043 0.170
17.7139 5.037 0.169
17.7295 4.792 0.165
17.7451 5.180 0.172
17.7607 5.259 0.173
17.7763 4.929 0.168
17.7919 4.980 0.168
17.8076 5.299 0.174
17.8232 5.117 0.171
17.8388 5.071 0.170
17.8544 4.855 0.166
17.8700 5.026 0.169
17.8856 4.764 0.165
17.9012 5.003 0.169
17.9169 4.821 0.166
17.9325 5.083 0.170
17.9481 5.168 0.172
17.9637 4.940 0.168
17.9793 5.208 0.172
17.9949 4.895 0.167
18.0105 4.929 0.168
18.0262 5.020 0.169
18.0418 4.712 0.164
18.0574 5.066 0.170
18.0730 5.442 0.176
18.0886 5.191 0.172
18.1042 5.031 0.169
18.1199 5.094 0.170
18.1355 4.866 0.167
18.1511 5.066 0.170
18.1667 5.014 0.169
18.1823 5.248 0.173
18.1979 5.214 0.172
18.2135 4.923 0.167
18.2292 5.180 0.172
18.2448 4.935 0.168
18.2604 4.895 0.167
18.2760 4.838 0.166
18.2916 4.997 0.169
18.3072 5.117 0.171
18.3228 5.117 0.171
18.3385 5.043 0.170
18.3541 4.963 0.168
18.3697 4.718 0.164
18.3853 5.225 0.173
18.4009 4.712 0.164
18.4165 5.009 0.169
18.4322 4.576 0.161
18.4478 4.872 0.167
18.4634 4.581 0.162
18.4790 4.792 0.165
18.4946 4.940 0.168
18.5102 4.729 0.164
18.5258 5.060 0.170
18.5415 5.111 0.171
18.5571 5.237 0.173
18.5727 4.980 0.168
18.5883 4.912 0.167
18.6039 4.861 0.166
18.6195 4.650 0.163
18.6352 4.878 0.167
18.6508 4.804 0.165
18.6664 5.049 0.170
18.6820 4.747 0.164
18.6976 4.667 0.163
18.7132 4.729 0.164
18.7288 4.992 0.169
18.7445 4.672 0.163
18.7601 5.020 0.169
18.7757 5.111 0.171
18.7913 4.986 0.169
18.8069 4.678 0.163
18.8225 4.855 0.166
18.8381 4.872 0.167
18.8538 5.003 0.169
18.8694 4.906 0.167
18.8850 4.838 0.166
18.9006 4.672 0.163
18.9162 4.786 0.165
18.9318 4.895 0.167
18.9475 4.866 0.167
18.9631 4.672 0.163
18.9787 4.615 0.162
18.9943 4.729 0.164
19.0099 4.912 0.167
19.0255 4.900 0.167
19.0411 4.912 0.167
19.0568 5.066 0.170
19.0724 4.946 0.168
19.0880 5.185 0.172
19.1036 5.265 0.173
19.1192 4.929 0.168
19.1348 4.906 0.167
19.1504 5.248 0.173
19.1661 4.861 0.166
19.1817 4.906 0.167
19.1973 4.980 0.168
19.2129 4.479 0.160
19.2285 4.433 0.159
19.2441 5.157 0.171
19.2598 4.843 0.166
19.2754 5.054 0.170
19.2910 4.878 0.167
19.3066 4.633 0.162
19.3222 4.581 0.162
19.3378 4.655 0.163
19.3534 4.576 0.161
19.3691 4.593 0.162
19.3847 4.775 0.165
19.4003 4.781 0.165
19.4159 4.963 0.168
19.4315 4.655 0.163
19.4471 4.878 0.167
19.4628 4.992 0.169
19.4784 4.593 0.162
19.4940 4.650 0.163
19.5096 4.581 0.162
19.5252 4.576 0.161
19.5408 4.524 0.161
19.5564 4.593 0.162
19.5721 4.678 0.163
19.5877 4.581 0.162
19.6033 4.718 0.164
19.6189 4.695 0.164
19.6345 4.541 0.161
19.6501 4.866 0.167
19.6657 4.559 0.161
19.6814 4.388 0.158
19.6970 4.684 0.163
19.7126 4.621 0.162
19.7282 4.849 0.166
19.7438 4.257 0.156
19.7594 4.724 0.164
19.7751 4.667 0.163
19.7907 4.678 0.163
19.8063 4.462 0.159
19.8219 4.667 0.163
19.8375 4.615 0.162
19.8531 4.861 0.166
19.8687 4.581 0.162
19.8844 4.541 0.161
19.9000 4.399 0.158
19.9156 4.701 0.164
19.9312 4.627 0.162
19.9468 4.747 0.164
19.9624 4.416 0.159
19.9780 4.701 0.164
19.9937 4.650 0.163
20.0093 4.798 0.165
20.0249 4.815 0.166
20.0405 4.798 0.165
20.0561 4.735 0.164
20.0717 4.621 0.162
20.0874 4.547 0.161
20.1030 4.672 0.163
20.1186 4.627 0.162
20.1342 4.484 0.160
20.1498 4.564 0.161
20.1654 4.502 0.160
20.1810 4.559 0.161
20.1967 4.735 0.164
20.2123 4.547 0.161
20.2279 4.724 0.164
20.2435 4.359 0.158
20.2591 4.667 0.163
20.2747 4.650 0.163
20.2904 4.729 0.164
20.3060 4.718 0.164
20.3216 4.513 0.160
20.3372 4.781 0.165
20.3528 4.502 0.160
20.3684 4.507 0.160
20.3840 4.627 0.162
20.3997 4.764 0.165
20.4153 4.855 0.166
20.4309 4.815 0.166
20.4465 4.872 0.167
20.4621 4.815 0.166
20.4777 4.712 0.164
20.4933 4.610 0.162
20.5090 4.541 0.161
20.5246 4.433 0.159
20.5402 4.615 0.162
20.5558 4.655 0.163
20.5714 4.667 0.163
20.5870 4.781 0.165
20.6027 4.530 0.161
20.6183 4.667 0.163
20.6339 4.661 0.163
20.6495 4.741 0.164
20.6651 4.433 0.159
20.6807 4.519 0.160
20.6963 4.718 0.164
20.7120 4.353 0.157
20.7276 4.388 0.158
20.7432 4.490 0.160
20.7588 4.667 0.163
20.7744 4.382 0.158
20.7900 4.388 0.158
20.8056 4.222 0.155
20.8213 4.507 0.160
20.8369 4.496 0.160
20.8525 4.724 0.164
20.8681 4.507 0.160
20.8837 4.627 0.162
20.8993 4.963 0.168
20.9150 4.553 0.161
20.9306 4.729 0.164
20.9462 4.729 0.164
20.9618 4.439 0.159
20.9774 4.559 0.161
20.9930 4.781 0.165
21.0086 4.638 0.163
21.0243 4.883 0.167
21.0399 4.450 0.159
21.0555 4.849 0.166
21.0711 4.570 0.161
21.0867 4.798 0.165
21.1023 4.370 0.158
21.1180 4.576 0.161
21.1336 4.661 0.163
21.1492 4.690 0.163
21.1648 4.422 0.159
21.1804 4.638 0.163
21.1960 4.718 0.164
21.2116 4.798 0.165
21.2273 4.747 0.164
21.2429 4.729 0.164
21.2585 4.667 0.163
21.2741 4.456 0.159
21.2897 4.524 0.161
21.3053 4.758 0.165
21.3209 4.815 0.166
21.3366 4.872 0.167
21.3522 4.570 0.161
21.3678 4.615 0.162
21.3834 4.684 0.163
21.3990 4.798 0.165
21.4146 4.393 0.158
21.4303 4.655 0.163
21.4459 4.564 0.161
21.4615 4.456 0.159
21.4771 4.587 0.162
21.4927 4.462 0.159
21.5083 4.923 0.167
21.5239 4.701 0.164
21.5396 4.667 0.163
21.5552 4.553 0.161
21.5708 4.336 0.157
21.5864 4.313 0.157
21.6020 4.513 0.160
21.6176 4.467 0.160
21.6332 4.701 0.164
21.6489 4.507 0.160
21.6645 4.576 0.161
21.6801 4.678 0.163
21.6957 4.473 0.160
21.7113 4.479 0.160
21.7269 4.405 0.158
21.7426 4.735 0.164
21.7582 4.547 0.161
21.7738 4.496 0.160
21.7894 4.313 0.157
21.8050 4.336 0.157
21.8206 4.718 0.164
21.8362 4.473 0.160
21.8519 5.066 0.170
21.8675 4.809 0.166
21.8831 4.849 0.166
21.8987 4.604 0.162
21.9143 4.422 0.159
21.9299 4.604 0.162
21.9456 4.376 0.158
21.9612 4.359 0.158
21.9768 4.593 0.162
21.9924 4.450 0.159
22.0080 4.473 0.160
22.0236 4.433 0.159
22.0392 4.587 0.162
22.0549 4.467 0.160
22.0705 4.376 0.158
22.0861 4.257 0.156
22.1017 4.416 0.159
22.1173 4.410 0.159
22.1329 4.188 0.154
22.1485 4.496 0.160
22.1642 4.445 0.159
22.1798 4.319 0.157
22.1954 4.536 0.161
22.2110 4.234 0.155
22.2266 4.211 0.155
22.2422 4.678 0.163
22.2579 4.633 0.162
22.2735 4.473 0.160
22.2891 4.291 0.156
22.3047 4.302 0.157
22.3203 4.524 0.161
22.3359 4.450 0.159
22.3515 4.615 0.162
22.3672 4.615 0.162
22.3828 4.171 0.154
22.3984 4.251 0.156
22.4140 4.319 0.157
22.4296 4.627 0.162
22.4452 4.450 0.159
22.4608 4.519 0.160
22.4765 4.644 0.163
22.4921 4.416 0.159
22.5077 4.120 0.153
22.5233 4.370 0.158
22.5389 4.547 0.161
22.5545 4.775 0.165
22.5702 4.348 0.157
22.5858 4.319 0.157
22.6014 4.473 0.160
22.6170 4.399 0.158
22.6326 4.604 0.162
22.6482 4.382 0.158
22.6638 4.165 0.154
22.6795 4.838 0.166
22.6951 4.861 0.166
22.7107 4.211 0.155
22.7263 4.707 0.164
22.7419 4.519 0.160
22.7575 4.450 0.159
22.7732 4.353 0.157
22.7888 4.764 0.165
22.8044 4.729 0.164
22.8200 4.690 0.163
22.8356 4.786 0.165
22.8512 4.786 0.165
22.8668 4.359 0.158
22.8825 4.655 0.163
22.8981 4.815 0.166
22.9137 5.003 0.169
22.9293 5.305 0.174
22.9449 5.225 0.173
22.9605 5.356 0.175
22.9761 5.470 0.177
22.9918 6.177 0.188
23.0074 6.473 0.192
23.0230 6.747 0.196
23.0386 7.596 0.208
23.0542 7.681 0.209
23.0698 7.573 0.208
23.0855 7.459 0.206
23.1011 7.670 0.209
23.1167 7.185 0.202
23.1323 6.393 0.191
23.1479 6.029 0.185
23.1635 5.909 0.183
23.1791 5.635 0.179
23.1948 5.487 0.177
23.2104 5.111 0.171
23.2260 4.906 0.167
23.2416 4.992 0.169
23.2572 4.912 0.167
23.2728 4.997 0.169
23.2885 4.678 0.163
23.3041 4.935 0.168
23.3197 4.729 0.164
23.3353 4.678 0.163
23.3509 4.735 0.164
23.3665 4.581 0.162
23.3821 4.712 0.164
23.3978 4.832 0.166
23.4134 4.775 0.165
23.4290 4.564 0.161
23.4446 4.843 0.166
23.4602 4.690 0.163
23.4758 4.650 0.163
23.4914 4.804 0.165
23.5071 4.359 0.158
23.5227 4.405 0.158
23.5383 4.712 0.164
23.5539 4.627 0.162
23.5695 4.957 0.168
23.5851 4.422 0.159
23.6008 4.427 0.159
23.6164 4.690 0.163
23.6320 4.427 0.159
23.6476 4.462 0.159
23.6632 4.473 0.160
23.6788 4.274 0.156
23.6944 4.593 0.162
23.7101 4.433 0.159
23.7257 4.587 0.162
23.7413 4.479 0.160
23.7569 4.570 0.161
23.7725 4.621 0.162
23.7881 4.570 0.161
23.8037 4.695 0.164
23.8194 4.667 0.163
23.8350 4.405 0.158
23.8506 4.570 0.161
23.8662 4.313 0.157
23.8818 4.125 0.153
23.8974 4.826 0.166
23.9131 4.576 0.161
23.9287 4.194 0.155
23.9443 4.473 0.160
23.9599 4.496 0.160
23.9755 4.644 0.163
23.9911 4.479 0.160
24.0067 4.370 0.158
24.0224 4.741 0.164
24.0380 4.217 0.155
24.0536 4.655 0.163
24.0692 4.598 0.162
24.0848 4.644 0.163
24.1004 4.781 0.165
24.1161 4.547 0.161
24.1317 4.541 0.161
24.1473 4.655 0.163
24.1629 4.564 0.161
24.1785 4.843 0.166
24.1941 4.564 0.161
24.2097 4.570 0.161
24.2254 4.832 0.166
24.2410 4.883 0.167
24.2566 4.826 0.166
24.2722 4.604 0.162
24.2878 4.923 0.167
24.3034 5.088 0.170
24.3190 5.516 0.177
24.3347 5.601 0.179
24.3503 5.681 0.180
24.3659 5.670 0.180
24.3815 5.932 0.184
24.3971 5.926 0.184
24.4127 6.194 0.188
24.4284 6.171 0.188
24.4440 6.314 0.190
24.4596 5.778 0.181
24.4752 5.994 0.185
24.4908 5.521 0.177
24.5064 5.521 0.177
24.5220 5.425 0.176
24.5377 5.390 0.175
24.5533 4.826 0.166
24.5689 5.208 0.172
24.5845 4.775 0.165
24.6001 4.775 0.165
24.6157 4.456 0.159
24.6313 4.211 0.155
24.6470 4.239 0.155
24.6626 4.222 0.155
24.6782 4.593 0.162
24.6938 4.496 0.160
24.7094 4.154 0.154
24.7250 4.536 0.161
24.7407 4.182 0.154
24.7563 4.598 0.162
24.7719 4.114 0.153
24.7875 4.541 0.161
24.8031 4.388 0.158
24.8187 4.467 0.160
24.8343 4.479 0.160
24.8500 4.581 0.162
24.8656 4.370 0.158
24.8812 4.245 0.156
24.8968 4.331 0.157
24.9124 4.621 0.162
24.9280 4.393 0.158
24.9437 4.502 0.160
24.9593 4.467 0.160
24.9749 4.450 0.159
24.9905 4.450 0.159
25.0061 4.462 0.159
25.0217 4.467 0.160
25.0373 4.370 0.158
25.0530 4.405 0.158
25.0686 4.507 0.160
25.0842 4.456 0.159
25.0998 4.410 0.159
25.1154 4.564 0.161
25.1310 4.627 0.162
25.1466 4.587 0.162
25.1623 4.781 0.165
25.1779 4.712 0.164
25.1935 5.071 0.170
25.2091 5.037 0.169
25.2247 5.066 0.170
25.2403 5.590 0.178
25.2560 5.898 0.183
25.2716 6.279 0.189
25.2872 6.359 0.190
25.3028 6.445 0.192
25.3184 6.399 0.191
25.3340 6.103 0.186
25.3496 5.875 0.183
25.3653 5.772 0.181
25.3809 5.539 0.178
25.3965 5.083 0.170
25.4121 5.140 0.171
25.4277 5.066 0.170
25.4433 4.895 0.167
25.4589 4.684 0.163
25.4746 4.667 0.163
25.4902 4.427 0.159
25.5058 4.490 0.160
25.5214 4.336 0.157
25.5370 4.752 0.165
25.5526 4.536 0.161
25.5683 4.439 0.159
25.5839 4.257 0.156
25.5995 4.393 0.158
25.6151 4.570 0.161
25.6307 4.541 0.161
25.6463 4.496 0.160
25.6619 4.633 0.162
25.6776 4.479 0.160
25.6932 4.427 0.159
25.7088 4.707 0.164
25.7244 4.217 0.155
25.7400 4.439 0.159
25.7556 4.547 0.161
25.7713 4.376 0.158
25.7869 4.479 0.160
25.8025 4.450 0.159
25.8181 4.570 0.161
25.8337 4.445 0.159
25.8493 4.462 0.159
25.8649 4.456 0.159
25.8806 4.553 0.161
25.8962 4.410 0.159
25.9118 4.342 0.157
25.9274 4.382 0.158
25.9430 4.291 0.156
25.9586 4.627 0.162
25.9742 4.370 0.158
25.9899 4.359 0.158
26.0055 4.291 0.156
26.0211 4.399 0.158
26.0367 4.536 0.161
26.0523 4.388 0.158
26.0679 4.473 0.160
26.0836 4.331 0.157
26.0992 4.473 0.160
26.1148 4.889 0.167
26.1304 4.393 0.158
26.1460 4.655 0.163
26.1616 4.587 0.162
26.1772 4.735 0.164
26.1929 4.462 0.159
26.2085 4.502 0.160
26.2241 4.553 0.161
26.2397 4.707 0.164
26.2553 4.496 0.160
26.2709 4.433 0.159
26.2865 4.530 0.161
26.3022 4.861 0.166
26.3178 4.786 0.165
26.3334 4.872 0.167
26.3490 4.769 0.165
26.3646 4.758 0.165
26.3802 4.843 0.166
26.3959 5.265 0.173
26.4115 4.866 0.167
26.4271 4.872 0.167
26.4427 4.946 0.168
26.4583 4.798 0.165
26.4739 4.786 0.165
26.4895 4.593 0.162
26.5052 4.405 0.158
26.5208 4.729 0.164
26.5364 4.137 0.154
26.5520 4.433 0.159
26.5676 4.553 0.161
26.5832 4.530 0.161
26.5989 4.325 0.157
26.6145 4.462 0.159
26.6301 4.604 0.162
26.6457 4.541 0.161
26.6613 4.541 0.161
26.6769 4.399 0.158
26.6925 4.410 0.159
26.7082 4.496 0.160
26.7238 4.690 0.163
26.7394 4.388 0.158
26.7550 4.530 0.161
26.7706 4.376 0.158
26.7862 4.308 0.157
26.8018 4.695 0.164
26.8175 4.234 0.155
26.8331 4.234 0.155
26.8487 4.507 0.160
26.8643 4.627 0.162
26.8799 4.553 0.161
26.8955 4.479 0.160
26.9112 4.103 0.153
26.9268 4.331 0.157
26.9424 4.074 0.152
26.9580 4.097 0.153
26.9736 4.456 0.159
26.9892 4.097 0.153
27.0048 4.348 0.157
27.0205 4.257 0.156
27.0361 4.559 0.161
27.0517 4.382 0.158
27.0673 4.370 0.158
27.0829 4.234 0.155
27.0985 4.445 0.159
27.1141 4.342 0.157
27.1298 4.313 0.157
27.1454 4.217 0.155
27.1610 4.581 0.162
27.1766 4.348 0.157
27.1922 4.422 0.159
27.2078 4.479 0.160
27.2235 4.484 0.160
27.2391 4.410 0.159
27.2547 4.228 0.155
27.2703 4.701 0.164
27.2859 4.479 0.160
27.3015 4.769 0.165
27.3171 4.382 0.158
27.3328 4.798 0.165
27.3484 4.724 0.164
27.3640 4.576 0.161
27.3796 4.729 0.164
27.3952 4.427 0.159
27.4108 4.815 0.166
27.4265 5.066 0.170
27.4421 4.878 0.167
27.4577 5.066 0.170
27.4733 5.031 0.169
27.4889 4.861 0.166
27.5045 5.584 0.178
27.5201 5.305 0.174
27.5358 5.071 0.170
27.5514 5.784 0.182
27.5670 5.316 0.174
27.5826 5.596 0.179
27.5982 5.465 0.176
27.6138 5.174 0.172
27.6294 5.163 0.172
27.6451 5.362 0.175
27.6607 5.265 0.173
27.6763 5.271 0.173
27.6919 5.003 0.169
27.7075 5.083 0.170
27.7231 4.878 0.167
27.7388 4.900 0.167
27.7544 5.043 0.170
27.7700 4.963 0.168
27.7856 5.248 0.173
27.8012 4.912 0.167
27.8168 4.923 0.167
27.8324 5.436 0.176
27.8481 4.969 0.168
27.8637 5.607 0.179
27.8793 5.459 0.176
27.8949 5.641 0.179
27.9105 5.385 0.175
27.9261 5.282 0.173
27.9417 5.436 0.176
27.9574 5.544 0.178
27.9730 5.499 0.177
27.9886 5.504 0.177
28.0042 5.356 0.175
28.0198 5.858 0.183
28.0354 5.744 0.181
28.0511 6.091 0.186
28.0667 6.222 0.188
28.0823 6.422 0.191
28.0979 6.034 0.185
28.1135 6.268 0.189
28.1291 6.057 0.186
28.1447 6.371 0.191
28.1604 5.738 0.181
28.1760 5.653 0.179
28.1916 5.510 0.177
28.2072 5.596 0.179
28.2228 5.316 0.174
28.2384 4.798 0.165
28.2541 4.786 0.165
28.2697 5.031 0.169
28.2853 4.900 0.167
28.3009 4.786 0.165
28.3165 4.712 0.164
28.3321 4.906 0.167
28.3477 4.690 0.163
28.3634 4.724 0.164
28.3790 4.547 0.161
28.3946 4.644 0.163
28.4102 4.655 0.163
28.4258 4.302 0.157
28.4414 4.513 0.160
28.4570 4.598 0.162
28.4727 4.712 0.164
28.4883 4.479 0.160
28.5039 4.416 0.159
28.5195 4.479 0.160
28.5351 4.524 0.161
28.5507 4.667 0.163
28.5664 4.610 0.162
28.5820 4.638 0.163
28.5976 4.809 0.166
28.6132 4.559 0.161
28.6288 4.496 0.160
28.6444 4.450 0.159
28.6600 4.524 0.161
28.6757 4.923 0.167
28.6913 4.695 0.164
28.7069 4.484 0.160
28.7225 4.621 0.162
28.7381 4.655 0.163
28.7537 5.168 0.172
28.7694 4.712 0.164
28.7850 4.883 0.167
28.8006 4.855 0.166
28.8162 4.268 0.156
28.8318 4.974 0.168
28.8474 5.020 0.169
28.8630 4.889 0.167
28.8787 4.638 0.163
28.8943 4.832 0.166
28.9099 4.986 0.169
28.9255 4.838 0.166
28.9411 5.191 0.172
28.9567 5.083 0.170
28.9723 5.214 0.172
28.9880 5.242 0.173
29.0036 5.356 0.175
29.0192 5.351 0.175
29.0348 5.231 0.173
29.0504 5.624 0.179
29.0660 5.476 0.177
29.0817 5.504 0.177
29.0973 5.687 0.180
29.1129 5.624 0.179
29.1285 5.749 0.181
29.1441 5.909 0.183
29.1597 5.915 0.184
29.1753 5.590 0.178
29.1910 5.755 0.181
29.2066 6.467 0.192
29.2222 6.205 0.188
29.2378 6.148 0.187
29.2534 6.348 0.190
29.2690 6.690 0.195
29.2846 6.992 0.200
29.3003 7.254 0.203
29.3159 7.447 0.206
29.3315 7.972 0.213
29.3471 8.804 0.224
29.3627 9.590 0.234
29.3783 10.616 0.246
29.3940 12.656 0.269
29.4096 15.123 0.294
29.4252 17.938 0.320
29.4408 20.867 0.345
29.4564 23.790 0.368
29.4720 25.323 0.380
29.4876 25.852 0.384
29.5033 28.023 0.400
29.5189 30.286 0.415
29.5345 34.531 0.444
29.5501 36.685 0.457
29.5657 38.309 0.467
29.5813 34.753 0.445
29.5970 30.747 0.419
29.6126 27.026 0.392
29.6282 23.300 0.364
29.6438 20.906 0.345
29.6594 18.542 0.325
29.6750 14.929 0.292
29.6906 12.274 0.264
29.7063 9.094 0.228
29.7219 8.678 0.222
29.7375 7.698 0.209
29.7531 7.282 0.204
29.7687 6.809 0.197
29.7843 6.462 0.192
29.7999 6.325 0.190
29.8156 6.103 0.186
29.8312 6.228 0.188
29.8468 6.177 0.188
29.8624 6.034 0.185
29.8780 6.114 0.187
29.8936 5.943 0.184
29.9093 5.778 0.181
29.9249 6.040 0.186
29.9405 5.710 0.180
29.9561 5.852 0.183
29.9717 6.120 0.187
29.9873 6.051 0.186
30.0029 6.359 0.190
30.0186 5.926 0.184
30.0342 6.912 0.198
30.0498 6.804 0.197
30.0654 7.516 0.207
30.0810 8.382 0.219
30.0966 9.208 0.229
30.1122 10.222 0.241
30.1279 11.316 0.254
30.1435 12.627 0.268
30.1591 12.690 0.269
30.1747 13.915 0.282
30.1903 14.109 0.284
30.2059 14.416 0.287
30.2216 13.772 0.280
30.2372 13.658 0.279
30.2528 12.388 0.266
30.2684 10.234 0.241
30.2840 9.658 0.235
30.2996 9.391 0.231
30.3152 8.416 0.219
30.3309 7.128 0.202
30.3465 6.690 0.195
30.3621 6.165 0.187
30.3777 6.040 0.186
30.3933 5.955 0.184
30.4089 5.801 0.182
30.4246 5.504 0.177
30.4402 5.653 0.179
30.4558 5.920 0.184
30.4714 5.710 0.180
30.4870 5.596 0.179
30.5026 5.493 0.177
30.5182 5.556 0.178
30.5339 5.322 0.174
30.5495 5.288 0.174
30.5651 4.906 0.167
30.5807 5.453 0.176
30.5963 5.533 0.178
30.6119 4.969 0.168
30.6275 5.066 0.170
30.6432 4.997 0.169
30.6588 5.128 0.171
30.6744 5.316 0.174
30.6900 4.917 0.167
30.7056 4.718 0.164
30.7212 5.271 0.173
30.7369 5.168 0.172
30.7525 4.638 0.163
30.7681 4.900 0.167
30.7837 5.151 0.171
30.7993 4.957 0.168
30.8149 4.980 0.168
30.8305 5.134 0.171
30.8462 5.185 0.172
30.8618 5.288 0.174
30.8774 4.883 0.167
30.8930 5.225 0.173
30.9086 5.351 0.175
30.9242 5.083 0.170
30.9398 5.271 0.173
30.9555 5.231 0.173
30.9711 5.049 0.170
30.9867 5.516 0.177
31.0023 5.476 0.177
31.0179 5.578 0.178
31.0335 5.596 0.179
31.0492 5.527 0.177
31.0648 5.801 0.182
31.0804 6.205 0.188
31.0960 6.234 0.188
31.1116 5.846 0.183
31.1272 6.222 0.188
31.1428 5.983 0.185
31.1585 5.886 0.183
31.1741 6.000 0.185
31.1897 5.972 0.184
31.2053 5.687 0.180
31.2209 5.738 0.181
31.2365 5.601 0.179
31.2522 5.328 0.174
31.2678 5.419 0.176
31.2834 5.299 0.174
31.2990 5.294 0.174
31.3146 5.225 0.173
31.3302 5.561 0.178
31.3458 4.969 0.168
31.3615 5.197 0.172
31.3771 5.385 0.175
31.3927 5.214 0.172
31.4083 5.465 0.176
31.4239 5.180 0.172
31.4395 5.442 0.176
31.4551 5.710 0.180
31.4708 5.510 0.177
31.4864 5.613 0.179
31.5020 5.829 0.182
31.5176 5.806 0.182
31.5332 6.000 0.185
31.5488 5.937 0.184
31.5645 6.188 0.188
31.5801 6.257 0.189
31.5957 6.285 0.189
31.6113 6.336 0.190
31.6269 6.507 0.193
31.6425 6.336 0.190
31.6581 6.764 0.196
31.6738 6.547 0.193
31.6894 6.673 0.195
31.7050 6.559 0.193
31.7206 6.690 0.195
31.7362 6.866 0.198
31.7518 6.798 0.197
31.7674 7.060 0.201
31.7831 7.054 0.200
31.7987 6.701 0.195
31.8143 7.168 0.202
31.8299 7.020 0.200
31.8455 7.083 0.201
31.8611 6.883 0.198
31.8768 6.918 0.199
31.8924 7.436 0.206
31.9080 7.088 0.201
31.9236 7.544 0.207
31.9392 7.994 0.213
31.9548 8.245 0.217
31.9704 8.285 0.217
31.9861 8.576 0.221
32.0017 8.861 0.225
32.0173 9.265 0.230
32.0329 9.966 0.238
32.0485 10.154 0.241
32.0641 10.861 0.249
32.0798 11.807 0.259
32.0954 12.251 0.264
32.1110 12.274 0.264
32.1266 13.060 0.273
32.1422 13.995 0.282
32.1578 14.764 0.290
32.1734 16.234 0.304
32.1891 17.869 0.319
32.2047 18.764 0.327
32.2203 21.664 0.351
32.2359 24.462 0.373
32.2515 28.616 0.404
32.2671 33.249 0.435
32.2827 41.169 0.484
32.2984 48.354 0.525
32.3140 57.471 0.572
32.3296 62.577 0.597
32.3452 59.061 0.580
32.3608 52.998 0.550
32.3764 45.374 0.508
32.3921 41.756 0.488
32.4077 40.012 0.477
32.4233 37.089 0.460
32.4389 32.377 0.430
32.4545 25.374 0.380
32.4701 21.676 0.351
32.4857 19.129 0.330
32.5014 18.616 0.326
32.5170 17.904 0.319
32.5326 18.872 0.328
32.5482 20.895 0.345
32.5638 22.456 0.358
32.5794 25.231 0.379
32.5950 28.428 0.402
32.6107 31.767 0.425
32.6263 34.018 0.440
32.6419 34.058 0.441
32.6575 34.394 0.443
32.6731 35.602 0.450
32.6887 38.405 0.468
32.7044 41.699 0.487
32.7200 43.585 0.498
32.7356 45.101 0.507
32.7512 44.679 0.505
32.7668 40.286 0.479
32.7824 35.283 0.448
32.7980 30.770 0.419
32.8137 28.531 0.403
32.8293 25.989 0.385
32.8449 23.676 0.367
32.8605 19.869 0.336
32.8761 16.753 0.309
32.8917 14.143 0.284
32.9074 12.581 0.268
32.9230 11.419 0.255
32.9386 10.975 0.250
32.9542 10.012 0.239
32.9698 10.234 0.241
32.9854 9.459 0.232
33.0010 9.237 0.229
33.0167 9.448 0.232
33.0323 9.294 0.230
33.0479 8.849 0.225
33.0635 9.003 0.226
33.0791 8.997 0.226
33.0947 9.220 0.229
33.1103 8.610 0.221
33.1260 8.667 0.222
33.1416 8.661 0.222
33.1572 8.764 0.223
33.1728 8.587 0.221
33.1884 8.314 0.218
33.2040 8.519 0.220
33.2197 8.268 0.217
33.2353 8.787 0.224
33.2509 9.373 0.231
33.2665 9.459 0.232
33.2821 9.510 0.233
33.2977 10.217 0.241
33.3133 10.382 0.243
33.3290 11.379 0.255
33.3446 11.299 0.254
33.3602 11.277 0.253
33.3758 11.470 0.256
33.3914 11.710 0.258
33.4070 11.442 0.255
33.4227 11.094 0.251
33.4383 10.866 0.249
33.4539 10.348 0.243
33.4695 10.490 0.244
33.4851 10.211 0.241
33.5007 10.644 0.246
33.5163 9.544 0.233
33.5320 9.670 0.235
33.5476 9.846 0.237
33.5632 10.108 0.240
33.5788 10.034 0.239
33.5944 10.376 0.243
33.6100 10.302 0.242
33.6256 10.285 0.242
33.6413 10.336 0.243
33.6569 9.915 0.238
33.6725 10.188 0.241
33.6881 10.587 0.246
33.7037 10.365 0.243
33.7193 10.302 0.242
33.7350 10.376 0.243
33.7506 11.037 0.251
33.7662 11.613 0.257
33.7818 12.741 0.269
33.7974 12.747 0.270
33.8130 12.718 0.269
33.8286 13.015 0.272
33.8443 13.858 0.281
33.8599 13.915 0.282
33.8755 14.690 0.289
33.8911 14.616 0.289
33.9067 14.832 0.291
33.9223 14.644 0.289
33.9379 14.889 0.291
33.9536 14.730 0.290
33.9692 14.120 0.284
33.9848 13.442 0.277
34.0004 14.627 0.289
34.0160 13.191 0.274
34.0316 13.220 0.274
34.0473 12.468 0.267
34.0629 12.513 0.267
34.0785 11.693 0.258
34.0941 11.670 0.258
34.1097 11.026 0.251
34.1253 10.445 0.244
34.1409 10.536 0.245
34.1566 10.519 0.245
34.1722 10.553 0.245
34.1878 10.200 0.241
34.2034 10.183 0.241
34.2190 9.966 0.238
34.2346 10.416 0.244
34.2503 10.131 0.240
34.2659 10.866 0.249
34.2815 10.701 0.247
34.2971 11.339 0.254
34.3127 11.960 0.261
34.3283 12.200 0.264
34.3439 13.419 0.277
34.3596 15.254 0.295
34.3752 17.619 0.317
34.3908 20.679 0.343
34.4064 25.231 0.379
34.4220 30.713 0.418
34.4376 37.579 0.463
34.4532 43.101 0.496
34.4689 47.562 0.521
34.4845 50.651 0.537
34.5001 48.161 0.524
34.5157 47.243 0.519
34.5313 41.591 0.487
34.5469 36.793 0.458
34.5626 33.061 0.434
34.5782 29.858 0.412
34.5938 26.063 0.385
34.6094 21.869 0.353
34.6250 18.348 0.323
34.6406 14.285 0.285
34.6562 11.892 0.260
34.6719 10.467 0.244
34.6875 9.345 0.231
34.7031 8.906 0.225
34.7187 8.712 0.223
34.7343 7.875 0.212
34.7499 8.126 0.215
34.7655 7.949 0.213
34.7812 7.322 0.204
34.7968 6.969 0.199
34.8124 7.544 0.207
34.8280 7.180 0.202
34.8436 6.815 0.197
34.8592 6.843 0.197
34.8749 6.900 0.198
34.8905 6.769 0.196
34.9061 6.786 0.197
34.9217 6.798 0.197
34.9373 6.809 0.197
34.9529 6.268 0.189
34.9685 6.091 0.186
34.9842 5.937 0.184
34.9998 5.681 0.180
35.0154 5.573 0.178
35.0310 5.573 0.178
35.0466 5.835 0.182
35.0622 5.727 0.181
35.0779 5.402 0.175
35.0935 5.727 0.181
35.1091 5.556 0.178
35.1247 5.299 0.174
35.1403 5.351 0.175
35.1559 5.163 0.172
35.1715 5.698 0.180
35.1872 5.858 0.183
35.2028 5.282 0.173
35.2184 5.903 0.183
35.2340 5.767 0.181
35.2496 5.664 0.180
35.2652 5.909 0.183
35.2808 5.892 0.183
35.2965 5.578 0.178
35.3121 5.527 0.177
35.3277 5.465 0.176
35.3433 5.465 0.176
35.3589 5.561 0.178
35.3745 5.351 0.175
35.3902 5.208 0.172
35.4058 4.980 0.168
35.4214 5.402 0.175
35.4370 5.168 0.172
35.4526 5.408 0.176
35.4682 4.969 0.168
35.4838 5.140 0.171
35.4995 5.259 0.173
35.5151 5.151 0.171
35.5307 5.026 0.169
35.5463 4.883 0.167
35.5619 4.758 0.165
35.5775 4.809 0.166
35.5931 4.935 0.168
35.6088 4.667 0.163
35.6244 4.923 0.167
35.6400 4.906 0.167
35.6556 4.849 0.166
35.6712 4.906 0.167
35.6868 4.724 0.164
35.7025 4.701 0.164
35.7181 4.684 0.163
35.7337 4.564 0.161
35.7493 4.815 0.166
35.7649 4.866 0.167
35.7805 4.872 0.167
35.7961 4.809 0.166
35.8118 4.644 0.163
35.8274 4.992 0.169
35.8430 4.707 0.164
35.8586 4.878 0.167
35.8742 4.769 0.165
35.8898 4.957 0.168
35.9055 5.157 0.171
35.9211 4.997 0.169
35.9367 5.231 0.173
35.9523 5.197 0.172
35.9679 5.373 0.175
35.9835 5.219 0.172
35.9991 5.191 0.172
36.0148 5.430 0.176
36.0304 5.271 0.173
36.0460 5.419 0.176
36.0616 5.311 0.174
36.0772 5.276 0.173
36.0928 5.265 0.173
36.1084 5.248 0.173
36.1241 5.379 0.175
36.1397 5.265 0.173
36.1553 5.151 0.171
36.1709 4.661 0.163
36.1865 5.003 0.169
36.2021 4.906 0.167
36.2178 4.735 0.164
36.2334 4.832 0.166
36.2490 4.667 0.163
36.2646 4.598 0.162
36.2802 4.661 0.163
36.2958 4.587 0.162
36.3114 4.821 0.166
36.3271 4.513 0.160
36.3427 5.077 0.170
36.3583 5.014 0.169
36.3739 4.917 0.167
36.3895 4.832 0.166
36.4051 5.145 0.171
36.4207 4.832 0.166
36.4364 5.077 0.170
36.4520 5.003 0.169
36.4676 5.066 0.170
36.4832 4.957 0.168
36.4988 5.333 0.174
36.5144 4.946 0.168
36.5301 5.180 0.172
36.5457 5.288 0.174
36.5613 5.430 0.176
36.5769 5.533 0.178
36.5925 5.088 0.170
36.6081 5.339 0.174
36.6237 5.447 0.176
36.6394 5.299 0.174
36.6550 5.630 0.179
36.6706 5.613 0.179
36.6862 6.023 0.185
36.7018 6.148 0.187
36.7174 6.644 0.195
36.7331 6.684 0.195
36.7487 7.225 0.203
36.7643 7.727 0.210
36.7799 8.251 0.217
36.7955 8.644 0.222
36.8111 9.202 0.229
36.8267 9.835 0.237
36.8424 10.023 0.239
36.8580 9.516 0.233
36.8736 9.180 0.229
36.8892 8.724 0.223
36.9048 7.903 0.212
36.9204 8.000 0.214
36.9360 7.579 0.208
36.9517 7.818 0.211
36.9673 7.003 0.200
36.9829 7.083 0.201
36.9985 6.747 0.196
37.0141 6.302 0.190
37.0297 5.909 0.183
37.0454 6.080 0.186
37.0610 5.710 0.180
37.0766 5.698 0.180
37.0922 5.493 0.177
37.1078 5.698 0.180
37.1234 5.607 0.179
37.1390 5.345 0.175
37.1547 5.390 0.175
37.1703 5.248 0.173
37.1859 5.117 0.171
37.2015 5.214 0.172
37.2171 5.197 0.172
37.2327 4.997 0.169
37.2483 5.191 0.172
37.2640 5.202 0.172
37.2796 5.043 0.170
37.2952 5.191 0.172
37.3108 5.259 0.173
37.3264 5.402 0.175
37.3420 5.128 0.171
37.3577 5.328 0.174
37.3733 5.134 0.171
37.3889 4.889 0.167
37.4045 5.510 0.177
37.4201 5.254 0.173
37.4357 5.333 0.174
37.4513 5.333 0.174
37.4670 5.362 0.175
37.4826 5.231 0.173
37.4982 5.613 0.179
37.5138 5.288 0.174
37.5294 5.345 0.175
37.5450 5.470 0.177
37.5607 5.601 0.179
37.5763 5.174 0.172
37.5919 5.294 0.174
37.6075 4.986 0.169
37.6231 5.009 0.169
37.6387 4.912 0.167
37.6543 5.191 0.172
37.6700 4.969 0.168
37.6856 4.872 0.167
37.7012 4.940 0.168
37.7168 4.633 0.162
37.7324 4.786 0.165
37.7480 5.003 0.169
37.7636 4.883 0.167
37.7793 4.866 0.167
37.7949 4.917 0.167
37.8105 4.678 0.163
37.8261 4.906 0.167
37.8417 5.333 0.174
37.8573 4.821 0.166
37.8730 4.872 0.167
37.8886 4.997 0.169
37.9042 4.935 0.168
37.9198 4.895 0.167
37.9354 4.741 0.164
37.9510 5.174 0.172
37.9666 5.026 0.169
37.9823 4.952 0.168
37.9979 4.667 0.163
38.0135 5.003 0.169
38.0291 5.185 0.172
38.0447 4.957 0.168
38.0603 4.980 0.168
38.0759 5.026 0.169
38.0916 5.276 0.173
38.1072 5.271 0.173
38.1228 4.992 0.169
38.1384 5.088 0.170
38.1540 5.020 0.169
38.1696 4.923 0.167
38.1853 5.259 0.173
38.2009 4.547 0.161
38.2165 4.621 0.162
38.2321 4.792 0.165
38.2477 5.020 0.169
38.2633 4.855 0.166
38.2789 4.804 0.165
38.2946 4.308 0.157
38.3102 4.502 0.160
38.3258 4.838 0.166
38.3414 4.524 0.161
38.3570 4.553 0.161
38.3726 4.695 0.164
38.3883 4.923 0.167
38.4039 4.530 0.161
38.4195 4.747 0.164
38.4351 5.117 0.171
38.4507 4.843 0.166
38.4663 4.513 0.160
38.4819 4.638 0.163
38.4976 4.547 0.161
38.5132 4.855 0.166
38.5288 5.077 0.170
38.5444 4.957 0.168
38.5600 4.724 0.164
38.5756 4.940 0.168
38.5912 4.963 0.168
38.6069 5.094 0.170
38.6225 5.276 0.173
38.6381 4.963 0.168
38.6537 5.265 0.173
38.6693 5.442 0.176
38.6849 5.892 0.183
38.7006 6.034 0.185
38.7162 6.467 0.192
38.7318 6.735 0.196
38.7474 7.356 0.205
38.7630 8.051 0.214
38.7786 8.234 0.217
38.7942 8.775 0.224
38.8099 8.980 0.226
38.8255 9.009 0.227
38.8411 9.328 0.231
38.8567 9.920 0.238
38.8723 10.445 0.244
38.8879 12.006 0.262
38.9036 12.644 0.268
38.9192 12.975 0.272
38.9348 13.049 0.273
38.9504 12.000 0.261
38.9660 10.918 0.249
38.9816 10.524 0.245
38.9972 10.656 0.246
39.0129 10.302 0.242
39.0285 10.034 0.239
39.0441 9.385 0.231
39.0597 8.336 0.218
39.0753 8.148 0.215
39.0909 7.390 0.205
39.1065 6.895 0.198
39.1222 6.371 0.191
39.1378 6.211 0.188
39.1534 6.285 0.189
39.1690 6.046 0.186
39.1846 6.450 0.192
39.2002 6.410 0.191
39.2159 6.234 0.188
39.2315 6.012 0.185
39.2471 6.171 0.188
39.2627 6.211 0.188
39.2783 6.103 0.186
39.2939 6.211 0.188
39.3095 6.627 0.194
39.3252 5.903 0.183
39.3408 6.302 0.190
39.3564 6.353 0.190
39.3720 6.336 0.190
39.3876 6.541 0.193
39.4032 5.943 0.184
39.4188 6.410 0.191
39.4345 6.433 0.191
39.4501 6.439 0.192
39.4657 6.513 0.193
39.4813 6.217 0.188
39.4969 5.841 0.182
39.5125 6.422 0.191
39.5282 6.154 0.187
39.5438 6.120 0.187
39.5594 6.137 0.187
39.5750 5.983 0.185
39.5906 5.863 0.183
39.6062 5.692 0.180
39.6218 5.784 0.182
39.6375 5.630 0.179
39.6531 6.103 0.186
39.6687 5.875 0.183
39.6843 5.607 0.179
39.6999 5.898 0.183
39.7155 5.755 0.181
39.7312 5.653 0.179
39.7468 5.413 0.176
39.7624 5.442 0.176
39.7780 5.504 0.177
39.7936 5.345 0.175
39.8092 5.305 0.174
39.8248 5.237 0.173
39.8405 5.504 0.177
39.8561 5.408 0.176
39.8717 5.356 0.175
39.8873 4.644 0.163
39.9029 4.923 0.167
39.9185 4.957 0.168
39.9341 4.576 0.161
39.9498 4.593 0.162
39.9654 4.843 0.166
39.9810 5.180 0.172
39.9966 4.752 0.165
40.0122 4.900 0.167
40.0278 4.650 0.163
40.0435 4.690 0.163
40.0591 4.992 0.169
40.0747 4.644 0.163
40.0903 4.547 0.161
40.1059 4.524 0.161
40.1215 4.764 0.165
40.1371 4.917 0.167
40.1528 4.804 0.165
40.1684 4.747 0.164
40.1840 4.690 0.163
40.1996 4.610 0.162
40.2152 4.758 0.165
40.2308 4.536 0.161
40.2464 4.564 0.161
40.2621 4.638 0.163
40.2777 4.541 0.161
40.2933 4.433 0.159
40.3089 4.439 0.159
40.3245 4.234 0.155
40.3401 4.331 0.157
40.3558 4.348 0.157
40.3714 4.769 0.165
40.3870 4.467 0.160
40.4026 4.410 0.159
40.4182 4.672 0.163
40.4338 4.439 0.159
40.4494 4.456 0.159
40.4651 4.610 0.162
40.4807 4.804 0.165
40.4963 4.433 0.159
40.5119 4.769 0.165
40.5275 4.427 0.159
40.5431 4.672 0.163
40.5588 4.484 0.160
40.5744 4.781 0.165
40.5900 4.872 0.167
40.6056 4.655 0.163
40.6212 4.695 0.164
40.6368 4.581 0.162
40.6524 4.655 0.163
40.6681 4.855 0.166
40.6837 4.587 0.162
40.6993 4.405 0.158
40.7149 4.667 0.163
40.7305 4.655 0.163
40.7461 4.832 0.166
40.7617 4.969 0.168
40.7774 5.031 0.169
40.7930 4.986 0.169
40.8086 4.997 0.169
40.8242 5.225 0.173
40.8398 5.670 0.180
40.8554 5.590 0.178
40.8711 5.436 0.176
40.8867 5.801 0.182
40.9023 5.698 0.180
40.9179 5.960 0.184
40.9335 6.051 0.186
40.9491 6.154 0.187
40.9647 6.114 0.187
40.9804 6.182 0.188
40.9960 6.541 0.193
41.0116 6.775 0.196
41.0272 6.553 0.193
41.0428 6.673 0.195
41.0584 6.701 0.195
41.0740 7.043 0.200
41.0897 7.356 0.205
41.1053 7.601 0.208
41.1209 7.396 0.205
41.1365 7.527 0.207
41.1521 7.738 0.210
41.1677 8.057 0.214
41.1834 8.285 0.217
41.1990 8.650 0.222
41.2146 8.889 0.225
41.2302 9.271 0.230
41.2458 9.328 0.231
41.2614 9.504 0.233
41.2770 10.302 0.242
41.2927 10.724 0.247
41.3083 11.693 0.258
41.3239 13.322 0.276
41.3395 14.821 0.291
41.3551 16.451 0.306
41.3707 19.579 0.334
41.3864 23.060 0.362
41.4020 25.983 0.385
41.4176 27.471 0.396
41.4332 27.619 0.397
41.4488 26.833 0.391
41.4644 24.445 0.373
41.4800 22.525 0.358
41.4957 21.265 0.348
41.5113 21.248 0.348
41.5269 20.006 0.338
41.5425 18.593 0.325
41.5581 16.804 0.309
41.5737 14.285 0.285
41.5893 13.260 0.275
41.6050 11.618 0.257
41.6206 10.946 0.250
41.6362 9.658 0.235
41.6518 9.482 0.232
41.6674 9.465 0.232
41.6830 9.989 0.239
41.6987 10.707 0.247
41.7143 11.071 0.251
41.7299 10.798 0.248
41.7455 10.901 0.249
41.7611 10.467 0.244
41.7767 10.627 0.246
41.7923 9.579 0.234
41.8080 9.573 0.234
41.8236 9.875 0.237
41.8392 10.171 0.241
41.8548 9.738 0.236
41.8704 9.516 0.233
41.8860 8.638 0.222
41.9016 7.806 0.211
41.9173 7.516 0.207
41.9329 7.470 0.206
41.9485 6.923 0.199
41.9641 7.220 0.203
41.9797 6.957 0.199
41.9953 6.655 0.195
42.0110 6.325 0.190
42.0266 5.983 0.185
42.0422 5.647 0.179
42.0578 5.584 0.178
42.0734 5.351 0.175
42.0890 5.852 0.183
42.1046 5.556 0.178
42.1203 5.396 0.175
42.1359 5.447 0.176
42.1515 5.202 0.172
42.1671 4.929 0.168
42.1827 5.476 0.177
42.1983 5.214 0.172
42.2140 5.202 0.172
42.2296 5.248 0.173
42.2452 5.219 0.172
42.2608 5.299 0.174
42.2764 5.020 0.169
42.2920 5.322 0.174
42.3076 5.060 0.170
42.3233 5.066 0.170
42.3389 5.003 0.169
42.3545 4.912 0.167
42.3701 4.923 0.167
42.3857 5.413 0.176
42.4013 4.997 0.169
42.4169 5.049 0.170
42.4326 4.729 0.164
42.4482 5.208 0.172
42.4638 5.191 0.172
42.4794 4.838 0.166
42.4950 4.872 0.167
42.5106 5.294 0.174
42.5263 5.259 0.173
42.5419 4.917 0.167
42.5575 4.769 0.165
42.5731 4.598 0.162
42.5887 4.900 0.167
42.6043 4.764 0.165
42.6199 4.838 0.166
42.6356 4.809 0.166
42.6512 4.861 0.166
42.6668 4.849 0.166
42.6824 4.974 0.168
42.6980 5.100 0.170
42.7136 4.963 0.168
42.7292 5.259 0.173
42.7449 5.214 0.172
42.7605 5.413 0.176
42.7761 5.527 0.177
42.7917 5.664 0.180
42.8073 5.641 0.179
42.8229 6.279 0.189
42.8386 6.205 0.188
42.8542 6.473 0.192
42.8698 7.265 0.203
42.8854 7.071 0.201
42.9010 8.388 0.219
42.9166 9.014 0.227
42.9322 9.943 0.238
42.9479 10.878 0.249
42.9635 11.544 0.256
42.9791 11.596 0.257
42.9947 11.448 0.255
43.0103 10.695 0.247
43.0259 9.909 0.238
43.0416 9.567 0.233
43.0572 9.579 0.234
43.0728 9.448 0.232
43.0884 9.522 0.233
43.1040 8.952 0.226
43.1196 8.564 0.221
43.1352 8.057 0.214
43.1509 7.254 0.203
43.1665 7.009 0.200
43.1821 6.861 0.198
43.1977 6.997 0.200
43.2133 6.604 0.194
43.2289 6.872 0.198
43.2445 6.410 0.191
43.2602 6.684 0.195
43.2758 6.074 0.186
43.2914 6.291 0.189
43.3070 6.262 0.189
43.3226 6.069 0.186
43.3382 6.388 0.191
43.3539 5.732 0.181
43.3695 5.852 0.183
43.3851 5.772 0.181
43.4007 5.311 0.174
43.4163 5.339 0.174
43.4319 5.727 0.181
43.4475 5.727 0.181
43.4632 5.328 0.174
43.4788 5.504 0.177
43.4944 5.202 0.172
43.5100 5.100 0.170
43.5256 5.049 0.170
43.5412 5.140 0.171
43.5568 5.305 0.174
43.5725 5.014 0.169
43.5881 4.633 0.162
43.6037 4.838 0.166
43.6193 5.014 0.169
43.6349 4.912 0.167
43.6505 4.900 0.167
43.6662 4.929 0.168
43.6818 4.878 0.167
43.6974 5.060 0.170
43.7130 5.066 0.170
43.7286 5.157 0.171
43.7442 5.322 0.174
43.7598 5.584 0.178
43.7755 5.214 0.172
43.7911 5.356 0.175
43.8067 5.123 0.171
43.8223 5.373 0.175
43.8379 5.345 0.175
43.8535 5.653 0.179
43.8692 5.795 0.182
43.8848 5.459 0.176
43.9004 5.937 0.184
43.9160 5.749 0.181
43.9316 5.977 0.185
43.9472 5.937 0.184
43.9628 6.291 0.189
43.9785 6.507 0.193
43.9941 6.069 0.186
44.0097 6.564 0.193
44.0253 6.359 0.190
44.0409 6.541 0.193
44.0565 6.456 0.192
44.0721 6.182 0.188
44.0878 6.553 0.193
44.1034 6.496 0.192
44.1190 6.673 0.195
44.1346 6.393 0.191
44.1502 6.644 0.195
44.1658 6.484 0.192
44.1815 6.296 0.189
44.1971 6.621 0.194
44.2127 6.211 0.188
44.2283 6.918 0.199
44.2439 6.638 0.194
44.2595 6.393 0.191
44.2751 5.915 0.184
44.2908 5.886 0.183
44.3064 5.955 0.184
44.3220 5.937 0.184
44.3376 5.937 0.184
44.3532 5.681 0.180
44.3688 5.356 0.175
44.3845 5.550 0.178
44.4001 5.561 0.178
44.4157 5.550 0.178
44.4313 5.145 0.171
44.4469 5.049 0.170
44.4625 5.812 0.182
44.4781 5.841 0.182
44.4938 5.356 0.175
44.5094 5.083 0.170
44.5250 5.014 0.169
44.5406 5.379 0.175
44.5562 5.333 0.174
44.5718 5.436 0.176
44.5874 5.442 0.176
44.6031 5.077 0.170
44.6187 5.408 0.176
44.6343 5.356 0.175
44.6499 5.225 0.173
44.6655 5.322 0.174
44.6811 4.786 0.165
44.6968 5.254 0.173
44.7124 5.333 0.174
44.7280 5.305 0.174
44.7436 5.510 0.177
44.7592 5.328 0.174
44.7748 5.026 0.169
44.7904 5.031 0.169
44.8061 5.294 0.174
44.8217 4.946 0.168
44.8373 4.883 0.167
44.8529 4.826 0.166
44.8685 4.672 0.163
44.8841 4.781 0.165
44.8997 4.821 0.166
44.9154 4.775 0.165
44.9310 4.650 0.163
44.9466 5.026 0.169
44.9622 4.695 0.164
44.9778 4.388 0.158
44.9934 4.342 0.157
45.0091 4.490 0.160
45.0247 4.325 0.157
45.0403 4.262 0.156
45.0559 4.234 0.155
45.0715 4.291 0.156
45.0871 4.194 0.155
45.1027 4.046 0.152
45.1184 3.829 0.148
45.1340 4.217 0.155
45.1496 4.450 0.159
45.1652 4.388 0.158
45.1808 4.279 0.156
45.1964 4.103 0.153
45.2121 4.194 0.155
45.2277 4.325 0.157
45.2433 4.576 0.161
45.2589 4.302 0.157
45.2745 4.336 0.157
45.2901 4.559 0.161
45.3057 4.684 0.163
45.3214 4.832 0.166
45.3370 4.895 0.167
45.3526 4.604 0.162
45.3682 4.838 0.166
45.3838 4.496 0.160
45.3994 4.410 0.159
45.4150 4.291 0.156
45.4307 4.843 0.166
45.4463 4.519 0.160
45.4619 4.638 0.163
45.4775 4.752 0.165
45.4931 4.416 0.159
45.5087 4.866 0.167
45.5244 4.502 0.160
45.5400 4.655 0.163
45.5556 4.342 0.157
45.5712 4.336 0.157
45.5868 4.638 0.163
45.6024 4.399 0.158
45.6180 4.889 0.167
45.6337 4.490 0.160
45.6493 4.758 0.165
45.6649 5.106 0.171
45.6805 4.992 0.169
45.6961 5.049 0.170
45.7117 5.248 0.173
45.7273 5.561 0.178
45.7430 5.670 0.180
45.7586 5.966 0.184
45.7742 6.057 0.186
45.7898 6.348 0.190
45.8054 6.371 0.191
45.8210 6.712 0.196
45.8367 6.524 0.193
45.8523 6.655 0.195
45.8679 6.690 0.195
45.8835 6.422 0.191
45.8991 7.009 0.200
45.9147 7.054 0.200
45.9303 7.755 0.210
45.9460 7.613 0.208
45.9616 8.006 0.214
45.9772 8.171 0.216
45.9928 8.610 0.221
46.0084 7.755 0.210
46.0240 7.636 0.209
46.0397 7.220 0.203
46.0553 6.610 0.194
46.0709 6.388 0.191
46.0865 6.484 0.192
46.1021 5.863 0.183
46.1177 6.547 0.193
46.1333 5.960 0.184
46.1490 5.425 0.176
46.1646 5.630 0.179
46.1802 5.031 0.169
46.1958 5.003 0.169
46.2114 4.513 0.160
46.2270 4.638 0.163
46.2426 4.399 0.158
46.2583 4.120 0.153
46.2739 4.536 0.161
46.2895 4.541 0.161
46.3051 4.462 0.159
46.3207 4.131 0.153
46.3363 4.399 0.158
46.3520 4.171 0.154
46.3676 4.370 0.158
46.3832 4.074 0.152
46.3988 4.034 0.152
46.4144 4.325 0.157
46.4300 4.342 0.157
46.4456 4.091 0.153
46.4613 4.091 0.153
46.4769 4.410 0.159
46.4925 4.177 0.154
46.5081 4.399 0.158
46.5237 4.245 0.156
46.5393 4.228 0.155
46.5549 4.393 0.158
46.5706 4.336 0.157
46.5862 4.507 0.160
46.6018 4.228 0.155
46.6174 4.353 0.157
46.6330 4.752 0.165
46.6486 4.331 0.157
46.6643 4.604 0.162
46.6799 4.234 0.155
46.6955 4.655 0.163
46.7111 5.066 0.170
46.7267 4.519 0.160
46.7423 4.809 0.166
46.7579 4.718 0.164
46.7736 4.553 0.161
46.7892 4.838 0.166
46.8048 4.878 0.167
46.8204 4.690 0.163
46.8360 4.866 0.167
46.8516 5.100 0.170
46.8673 5.294 0.174
46.8829 5.596 0.179
46.8985 5.521 0.177
46.9141 6.228 0.188
46.9297 6.405 0.191
46.9453 6.946 0.199
46.9609 7.117 0.201
46.9766 7.111 0.201
46.9922 7.590 0.208
47.0078 8.029 0.214
47.0234 8.222 0.216
47.0390 8.439 0.219
47.0546 8.832 0.224
47.0702 9.465 0.232
47.0859 10.826 0.248
47.1015 11.220 0.253
47.1171 11.675 0.258
47.1327 10.730 0.247
47.1483 10.046 0.239
47.1639 9.003 0.226
47.1796 9.305 0.230
47.1952 9.328 0.231
47.2108 9.476 0.232
47.2264 9.191 0.229
47.2420 9.100 0.228
47.2576 8.314 0.218
47.2732 8.428 0.219
47.2889 8.154 0.216
47.3045 7.989 0.213
47.3201 7.544 0.207
47.3357 7.784 0.211
47.3513 7.049 0.200
47.3669 7.402 0.205
47.3825 7.322 0.204
47.3982 7.151 0.202
47.4138 7.128 0.202
47.4294 7.225 0.203
47.4450 7.003 0.200
47.4606 6.980 0.199
47.4762 6.564 0.193
47.4919 6.633 0.194
47.5075 6.792 0.197
47.5231 6.467 0.192
47.5387 6.365 0.190
47.5543 5.806 0.182
47.5699 6.120 0.187
47.5855 5.778 0.181
47.6012 5.943 0.184
47.6168 5.339 0.174
47.6324 5.732 0.181
47.6480 5.772 0.181
47.6636 5.493 0.177
47.6792 5.031 0.169
47.6949 5.670 0.180
47.7105 5.459 0.176
47.7261 4.707 0.164
47.7417 4.986 0.169
47.7573 5.470 0.177
47.7729 4.980 0.168
47.7885 4.678 0.163
47.8042 4.906 0.167
47.8198 4.775 0.165
47.8354 5.094 0.170
47.8510 5.071 0.170
47.8666 4.627 0.162
47.8822 4.769 0.165
47.8978 4.838 0.166
47.9135 4.399 0.158
47.9291 4.570 0.161
47.9447 4.399 0.158
47.9603 4.336 0.157
47.9759 4.604 0.162
47.9915 4.638 0.163
48.0072 4.598 0.162
48.0228 4.553 0.161
48.0384 4.445 0.159
48.0540 4.319 0.157
48.0696 4.376 0.158
48.0852 4.456 0.159
48.1008 4.388 0.158
48.1165 4.376 0.158
48.1321 4.114 0.153
48.1477 3.892 0.149
48.1633 4.353 0.157
48.1789 4.148 0.154
48.1945 3.949 0.150
48.2101 4.182 0.154
48.2258 4.279 0.156
48.2414 3.989 0.151
48.2570 4.524 0.161
48.2726 4.080 0.152
48.2882 4.388 0.158
48.3038 4.308 0.157
48.3195 4.000 0.151
48.3351 4.143 0.154
48.3507 4.080 0.152
48.3663 3.852 0.148
48.3819 4.114 0.153
48.3975 4.165 0.154
48.4131 4.245 0.156
48.4288 4.257 0.156
48.4444 4.171 0.154
48.4600 3.972 0.150
48.4756 4.194 0.155
48.4912 4.120 0.153
48.5068 3.994 0.151
48.5225 3.972 0.150
48.5381 4.000 0.151
48.5537 3.880 0.149
48.5693 3.949 0.150
48.5849 3.983 0.151
48.6005 4.051 0.152
48.6161 4.000 0.151
48.6318 3.909 0.149
48.6474 3.880 0.149
48.6630 3.886 0.149
48.6786 3.977 0.151
48.6942 3.949 0.150
48.7098 3.972 0.150
48.7254 3.801 0.147
48.7411 4.194 0.155
48.7567 4.143 0.154
48.7723 4.103 0.153
48.7879 4.011 0.151
48.8035 4.125 0.153
48.8191 4.262 0.156
48.8348 4.131 0.153
48.8504 4.143 0.154
48.8660 4.148 0.154
48.8816 4.416 0.159
48.8972 4.234 0.155
48.9128 4.593 0.162
48.9284 4.655 0.163
48.9441 4.399 0.158
48.9597 4.570 0.161
48.9753 4.108 0.153
48.9909 4.308 0.157
49.0065 4.348 0.157
49.0221 4.672 0.163
49.0378 4.855 0.166
49.0534 4.667 0.163
49.0690 4.519 0.160
49.0846 4.855 0.166
49.1002 4.422 0.159
49.1158 4.672 0.163
49.1314 4.923 0.167
49.1471 4.781 0.165
49.1627 4.570 0.161
49.1783 4.815 0.166
49.1939 4.667 0.163
49.2095 4.496 0.160
49.2251 4.513 0.160
49.2407 4.843 0.166
49.2564 4.496 0.160
49.2720 4.621 0.162
49.2876 4.450 0.159
49.3032 4.456 0.159
49.3188 4.587 0.162
49.3344 4.541 0.161
49.3501 4.524 0.161
49.3657 4.524 0.161
49.3813 4.336 0.157
49.3969 4.245 0.156
49.4125 4.365 0.158
49.4281 4.148 0.154
49.4437 4.257 0.156
49.4594 4.502 0.160
49.4750 4.695 0.164
49.4906 4.285 0.156
49.5062 4.217 0.155
49.5218 4.559 0.161
49.5374 4.245 0.156
49.5530 4.422 0.159
49.5687 4.815 0.166
49.5843 4.906 0.167
49.5999 4.900 0.167
49.6155 4.861 0.166
49.6311 5.009 0.169
49.6467 5.185 0.172
49.6624 5.368 0.175
49.6780 5.670 0.180
49.6936 5.653 0.179
49.7092 5.801 0.182
49.7248 6.137 0.187
49.7404 5.943 0.184
49.7560 6.513 0.193
49.7717 6.262 0.189
49.7873 6.456 0.192
49.8029 6.809 0.197
49.8185 6.781 0.197
49.8341 6.416 0.191
49.8497 6.467 0.192
49.8654 6.598 0.194
49.8810 6.701 0.195
49.8966 6.650 0.195
49.9122 6.473 0.192
49.9278 6.775 0.196
49.9434 6.809 0.197
49.9590 7.060 0.201
49.9747 7.111 0.201
49.9903 6.963 0.199
50.0059 6.878 0.198
50.0215 6.775 0.196
50.0371 6.855 0.198
50.0527 6.883 0.198
50.0683 7.014 0.200
50.0840 7.413 0.206
50.0996 7.499 0.207
50.1152 7.385 0.205
50.1308 7.197 0.203
50.1464 7.305 0.204
50.1620 6.929 0.199
50.1777 6.695 0.195
50.1933 6.108 0.187
50.2089 6.120 0.187
50.2245 5.898 0.183
50.2401 6.063 0.186
50.2557 6.006 0.185
50.2713 5.567 0.178
50.2870 5.476 0.177
50.3026 5.379 0.175
50.3182 5.311 0.174
50.3338 4.610 0.162
50.3494 4.826 0.166
50.3650 4.883 0.167
50.3806 4.843 0.166
50.3963 4.758 0.165
50.4119 4.678 0.163
50.4275 4.598 0.162
50.4431 4.667 0.163
50.4587 4.570 0.161
50.4743 4.490 0.160
50.4900 4.559 0.161
50.5056 4.496 0.160
50.5212 4.519 0.160
50.5368 4.416 0.159
50.5524 4.519 0.160
50.5680 4.496 0.160
50.5836 4.570 0.161
50.5993 4.234 0.155
50.6149 4.627 0.162
50.6305 4.228 0.155
50.6461 4.502 0.160
50.6617 4.735 0.164
50.6773 4.484 0.160
50.6930 4.342 0.157
50.7086 4.291 0.156
50.7242 4.427 0.159
50.7398 4.399 0.158
50.7554 4.678 0.163
50.7710 4.467 0.160
50.7866 4.655 0.163
50.8023 4.576 0.161
50.8179 4.564 0.161
50.8335 4.507 0.160
50.8491 4.388 0.158
50.8647 4.416 0.159
50.8803 4.257 0.156
50.8959 4.576 0.161
50.9116 4.661 0.163
50.9272 4.644 0.163
50.9428 4.644 0.163
50.9584 4.405 0.158
50.9740 4.724 0.164
50.9896 4.467 0.160
51.0053 4.148 0.154
51.0209 4.957 0.168
51.0365 4.490 0.160
51.0521 4.336 0.157
51.0677 4.205 0.155
51.0833 4.496 0.160
51.0989 4.678 0.163
51.1146 4.291 0.156
51.1302 4.553 0.161
51.1458 4.547 0.161
51.1614 4.462 0.159
51.1770 4.553 0.161
51.1926 4.228 0.155
51.2082 4.473 0.160
51.2239 4.359 0.158
51.2395 4.313 0.157
51.2551 4.365 0.158
51.2707 4.268 0.156
51.2863 3.886 0.149
51.3019 4.336 0.157
51.3176 4.239 0.155
51.3332 4.553 0.161
51.3488 4.302 0.157
51.3644 4.137 0.154
51.3800 4.456 0.159
51.3956 4.245 0.156
51.4112 4.479 0.160
51.4269 4.678 0.163
51.4425 4.200 0.155
51.4581 4.507 0.160
51.4737 4.741 0.164
51.4893 4.855 0.166
51.5049 4.621 0.162
51.5206 4.507 0.160
51.5362 5.060 0.170
51.5518 5.282 0.173
51.5674 5.225 0.173
51.5830 5.316 0.174
51.5986 5.225 0.173
51.6142 5.653 0.179
51.6299 5.863 0.183
51.6455 6.103 0.186
51.6611 6.314 0.190
51.6767 6.895 0.198
51.6923 6.866 0.198
51.7079 7.447 0.206
51.7235 7.835 0.211
51.7392 8.980 0.226
51.7548 10.752 0.248
51.7704 12.513 0.267
51.7860 15.624 0.298
51.8016 17.864 0.319
51.8172 19.978 0.337
51.8329 21.345 0.349
51.8485 20.650 0.343
51.8641 20.456 0.341
51.8797 18.456 0.324
51.8953 17.681 0.317
51.9109 15.698 0.299
51.9265 15.698 0.299
51.9422 17.094 0.312
51.9578 17.961 0.320
51.9734 18.428 0.324
51.9890 18.519 0.325
52.0046 18.018 0.320
52.0202 17.009 0.311
52.0358 16.029 0.302
52.0515 14.337 0.286
52.0671 13.037 0.273
52.0827 11.487 0.256
52.0983 10.490 0.244
52.1139 9.744 0.236
52.1295 9.607 0.234
52.1452 8.752 0.223
52.1608 9.299 0.230
52.1764 8.815 0.224
52.1920 8.353 0.218
52.2076 7.539 0.207
52.2232 7.202 0.203
52.2388 6.587 0.194
52.2545 6.274 0.189
52.2701 5.442 0.176
52.2857 4.849 0.166
52.3013 4.883 0.167
52.3169 4.957 0.168
52.3325 4.843 0.166
52.3482 4.650 0.163
52.3638 4.855 0.166
52.3794 4.707 0.164
52.3950 4.747 0.164
52.4106 4.450 0.159
52.4262 4.427 0.159
52.4418 4.502 0.160
52.4575 4.040 0.152
52.4731 4.615 0.162
52.4887 4.370 0.158
52.5043 4.536 0.161
52.5199 4.194 0.155
52.5355 4.410 0.159
52.5511 4.291 0.156
52.5668 4.376 0.158
52.5824 4.331 0.157
52.5980 4.171 0.154
52.6136 4.251 0.156
52.6292 4.319 0.157
52.6448 4.120 0.153
52.6605 4.331 0.157
52.6761 3.818 0.147
52.6917 4.205 0.155
52.7073 4.131 0.153
52.7229 4.479 0.160
52.7385 4.108 0.153
52.7541 4.029 0.152
52.7698 4.348 0.157
52.7854 3.869 0.148
52.8010 3.955 0.150
52.8166 4.342 0.157
52.8322 4.103 0.153
52.8478 4.319 0.157
52.8634 4.376 0.158
52.8791 4.143 0.154
52.8947 4.137 0.154
52.9103 4.427 0.159
52.9259 4.268 0.156
52.9415 4.410 0.159
52.9571 4.359 0.158
52.9728 4.313 0.157
52.9884 4.393 0.158
53.0040 4.547 0.161
53.0196 4.690 0.163
53.0352 4.638 0.163
53.0508 4.114 0.153
53.0664 4.661 0.163
53.0821 4.422 0.159
53.0977 4.764 0.165
53.1133 4.524 0.161
53.1289 4.291 0.156
53.1445 4.462 0.159
53.1601 4.741 0.164
53.1758 4.393 0.158
53.1914 4.285 0.156
53.2070 4.427 0.159
53.2226 4.786 0.165
53.2382 4.604 0.162
53.2538 4.519 0.160
53.2694 4.319 0.157
53.2851 4.490 0.160
53.3007 4.496 0.160
53.3163 4.484 0.160
53.3319 4.120 0.153
53.3475 4.370 0.158
53.3631 4.194 0.155
53.3787 4.695 0.164
53.3944 4.467 0.160
53.4100 4.302 0.157
53.4256 4.291 0.156
53.4412 4.405 0.158
53.4568 4.399 0.158
53.4724 4.541 0.161
53.4881 4.268 0.156
53.5037 4.405 0.158
53.5193 4.302 0.157
53.5349 4.131 0.153
53.5505 4.422 0.159
53.5661 4.194 0.155
53.5817 4.319 0.157
53.5974 4.296 0.156
53.6130 4.217 0.155
53.6286 4.285 0.156
53.6442 4.331 0.157
53.6598 4.137 0.154
53.6754 4.274 0.156
53.6910 4.308 0.157
53.7067 3.960 0.150
53.7223 3.835 0.148
53.7379 4.234 0.155
53.7535 4.148 0.154
53.7691 4.251 0.156
53.7847 3.977 0.151
53.8004 4.205 0.155
53.8160 4.017 0.151
53.8316 3.949 0.150
53.8472 3.675 0.145
53.8628 4.108 0.153
53.8784 3.806 0.147
53.8940 4.279 0.156
53.9097 3.852 0.148
53.9253 4.154 0.154
53.9409 4.245 0.156
53.9565 4.331 0.157
53.9721 4.103 0.153
53.9877 4.245 0.156
54.0034 4.257 0.156
54.0190 4.296 0.156
54.0346 4.479 0.160
54.0502 4.610 0.162
54.0658 4.615 0.162
54.0814 4.513 0.160
54.0970 4.598 0.162
54.1127 4.917 0.167
54.1283 4.889 0.167
54.1439 4.969 0.168
54.1595 4.969 0.168
54.1751 4.866 0.167
54.1907 4.718 0.164
54.2063 4.826 0.166
54.2220 4.536 0.161
54.2376 4.900 0.167
54.2532 4.929 0.168
54.2688 4.587 0.162
54.2844 5.071 0.170
54.3000 4.593 0.162
54.3157 4.775 0.165
54.3313 4.923 0.167
54.3469 4.957 0.168
54.3625 4.735 0.164
54.3781 4.393 0.158
54.3937 4.530 0.161
54.4093 4.410 0.159
54.4250 4.564 0.161
54.4406 4.257 0.156
54.4562 4.422 0.159
54.4718 4.011 0.151
54.4874 4.011 0.151
54.5030 4.217 0.155
54.5187 4.011 0.151
54.5343 4.285 0.156
54.5499 4.080 0.152
54.5655 3.812 0.147
54.5811 4.222 0.155
54.5967 4.034 0.152
54.6123 4.011 0.151
54.6280 4.029 0.152
54.6436 3.994 0.151
54.6592 3.994 0.151
54.6748 3.647 0.144
54.6904 3.766 0.146
54.7060 3.937 0.150
54.7216 3.601 0.143
54.7373 3.732 0.146
54.7529 3.846 0.148
54.7685 4.040 0.152
54.7841 3.943 0.150
54.7997 3.937 0.150
54.8153 3.772 0.147
54.8310 3.994 0.151
54.8466 3.915 0.149
54.8622 4.108 0.153
54.8778 3.670 0.145
54.8934 4.046 0.152
54.9090 3.989 0.151
54.9246 3.727 0.146
54.9403 3.880 0.149
54.9559 3.709 0.145
54.9715 3.818 0.147
54.9871 3.630 0.144
55.0027 3.715 0.145
55.0183 3.920 0.149
55.0339 3.863 0.148
55.0496 3.647 0.144
55.0652 3.732 0.146
55.0808 3.869 0.148
55.0964 3.687 0.145
55.1120 3.761 0.146
55.1276 3.464 0.141
55.1433 3.704 0.145
55.1589 3.955 0.150
55.1745 4.103 0.153
55.1901 3.789 0.147
55.2057 4.154 0.154
55.2213 4.006 0.151
55.2369 3.966 0.150
55.2526 4.143 0.154
55.2682 3.812 0.147
55.2838 3.869 0.148
55.2994 3.841 0.148
55.3150 3.966 0.150
55.3306 3.630 0.144
55.3463 4.017 0.151
55.3619 3.949 0.150
55.3775 3.841 0.148
55.3931 3.909 0.149
55.4087 4.080 0.152
55.4243 4.006 0.151
55.4399 3.869 0.148
55.4556 3.943 0.150
55.4712 3.943 0.150
55.4868 3.704 0.145
55.5024 3.789 0.147
55.5180 3.926 0.150
55.5336 3.858 0.148
55.5492 3.749 0.146
55.5649 4.029 0.152
55.5805 3.818 0.147
55.5961 3.596 0.143
55.6117 3.744 0.146
55.6273 4.051 0.152
55.6429 3.795 0.147
55.6586 3.721 0.146
55.6742 4.160 0.154
55.6898 3.721 0.146
55.7054 3.664 0.144
55.7210 3.880 0.149
55.7366 3.943 0.150
55.7522 3.766 0.146
55.7679 3.544 0.142
55.7835 4.103 0.153
55.7991 3.943 0.150
55.8147 3.818 0.147
55.8303 3.886 0.149
55.8459 4.251 0.156
55.8615 4.348 0.157
55.8772 3.909 0.149
55.8928 3.795 0.147
55.9084 4.331 0.157
55.9240 4.143 0.154
55.9396 4.644 0.163
55.9552 4.336 0.157
55.9709 4.257 0.156
55.9865 4.439 0.159
56.0021 4.946 0.168
56.0177 4.940 0.168
56.0333 5.071 0.170
56.0489 5.031 0.169
56.0645 4.980 0.168
56.0802 5.111 0.171
56.0958 5.214 0.172
56.1114 5.060 0.170
56.1270 5.163 0.172
56.1426 5.339 0.174
56.1582 5.294 0.174
56.1739 5.031 0.169
56.1895 5.037 0.169
56.2051 5.077 0.170
56.2207 5.049 0.170
56.2363 5.288 0.174
56.2519 5.140 0.171
56.2675 5.333 0.174
56.2832 5.265 0.173
56.2988 5.083 0.170
56.3144 4.946 0.168
56.3300 5.299 0.174
56.3456 5.442 0.176
56.3612 5.670 0.180
56.3768 5.641 0.179
56.3925 5.829 0.182
56.4081 5.852 0.183
56.4237 5.675 0.180
56.4393 5.972 0.184
56.4549 6.148 0.187
56.4705 6.228 0.188
56.4862 6.849 0.198
56.5018 7.453 0.206
56.5174 7.396 0.205
56.5330 8.348 0.218
56.5486 8.661 0.222
56.5642 9.710 0.235
56.5798 9.932 0.238
56.5955 9.750 0.236
56.6111 10.245 0.242
56.6267 9.920 0.238
56.6423 11.174 0.252
56.6579 11.379 0.255
56.6735 12.074 0.262
56.6891 12.650 0.268
56.7048 13.151 0.274
56.7204 12.804 0.270
56.7360 12.017 0.262
56.7516 10.992 0.250
56.7672 10.086 0.240
56.7828 9.168 0.229
56.7985 8.992 0.226
56.8141 9.345 0.231
56.8297 8.883 0.225
56.8453 9.163 0.228
56.8609 8.792 0.224
56.8765 7.955 0.213
56.8921 7.641 0.209
56.9078 6.912 0.198
56.9234 6.376 0.191
56.9390 6.177 0.188
56.9546 5.425 0.176
56.9702 5.607 0.179
56.9858 5.436 0.176
57.0015 5.288 0.174
57.0171 5.071 0.170
57.0327 4.895 0.167
57.0483 4.786 0.165
57.0639 4.644 0.163
57.0795 4.695 0.164
57.0951 4.513 0.160
57.1108 4.695 0.164
57.1264 4.502 0.160
57.1420 4.741 0.164
57.1576 4.439 0.159
57.1732 4.524 0.161
57.1888 4.388 0.158
57.2044 4.559 0.161
57.2201 4.462 0.159
57.2357 4.359 0.158
57.2513 4.581 0.162
57.2669 4.365 0.158
57.2825 4.502 0.160
57.2981 4.467 0.160
57.3138 4.388 0.158
57.3294 4.570 0.161
57.3450 4.359 0.158
57.3606 4.729 0.164
57.3762 4.325 0.157
57.3918 4.598 0.162
57.4074 4.530 0.161
57.4231 4.285 0.156
57.4387 4.530 0.161
57.4543 4.433 0.159
57.4699 4.388 0.158
57.4855 4.570 0.161
57.5011 4.416 0.159
57.5167 4.370 0.158
57.5324 4.502 0.160
57.5480 4.228 0.155
57.5636 4.684 0.163
57.5792 4.268 0.156
57.5948 4.382 0.158
57.6104 4.604 0.162
57.6261 4.325 0.157
57.6417 4.427 0.159
57.6573 4.524 0.161
57.6729 4.416 0.159
57.6885 4.262 0.156
57.7041 4.342 0.157
57.7197 4.251 0.156
57.7354 4.462 0.159
57.7510 4.279 0.156
57.7666 4.633 0.162
57.7822 4.336 0.157
57.7978 4.388 0.158
57.8134 4.353 0.157
57.8291 4.735 0.164
57.8447 4.530 0.161
57.8603 4.353 0.157
57.8759 4.513 0.160
57.8915 4.530 0.161
57.9071 4.621 0.162
57.9227 4.405 0.158
57.9384 4.450 0.159
57.9540 4.325 0.157
57.9696 4.422 0.159
57.9852 4.530 0.161
58.0008 4.741 0.164
58.0164 4.433 0.159
58.0320 4.547 0.161
58.0477 5.066 0.170
58.0633 4.473 0.160
58.0789 4.484 0.160
58.0945 4.547 0.161
58.1101 4.593 0.162
58.1257 4.291 0.156
58.1414 4.519 0.160
58.1570 4.741 0.164
58.1726 4.615 0.162
58.1882 4.376 0.158
58.2038 4.604 0.162
58.2194 4.781 0.165
58.2350 4.046 0.152
58.2507 4.342 0.157
58.2663 4.382 0.158
58.2819 4.627 0.162
58.2975 4.410 0.159
58.3131 4.781 0.165
58.3287 4.108 0.153
58.3443 4.610 0.162
58.3600 4.353 0.157
58.3756 4.650 0.163
58.3912 4.598 0.162
58.4068 4.610 0.162
58.4224 4.621 0.162
58.4380 4.615 0.162
58.4537 4.946 0.168
58.4693 4.912 0.167
58.4849 5.014 0.169
58.5005 4.695 0.164
58.5161 4.718 0.164
58.5317 4.786 0.165
58.5473 4.878 0.167
58.5630 4.889 0.167
58.5786 4.741 0.164
58.5942 5.373 0.175
58.6098 5.242 0.173
58.6254 5.083 0.170
58.6410 5.054 0.170
58.6567 5.145 0.171
58.6723 5.339 0.174
58.6879 5.197 0.172
58.7035 5.100 0.170
58.7191 5.254 0.173
58.7347 5.106 0.171
58.7503 5.180 0.172
58.7660 5.026 0.169
58.7816 5.020 0.169
58.7972 4.741 0.164
58.8128 4.883 0.167
58.8284 4.815 0.166
58.8440 5.180 0.172
58.8596 4.644 0.163
58.8753 4.883 0.167
58.8909 4.701 0.164
58.9065 4.735 0.164
58.9221 4.718 0.164
58.9377 4.564 0.161
58.9533 4.769 0.165
58.9690 4.496 0.160
58.9846 4.615 0.162
59.0002 4.205 0.155
59.0158 4.285 0.156
59.0314 4.559 0.161
59.0470 4.410 0.159
59.0626 4.131 0.153
59.0783 4.365 0.158
59.0939 4.063 0.152
59.1095 4.410 0.159
59.1251 4.148 0.154
59.1407 4.376 0.158
59.1563 4.194 0.155
59.1720 4.325 0.157
59.1876 4.319 0.157
59.2032 4.655 0.163
59.2188 4.251 0.156
59.2344 4.445 0.159
59.2500 4.593 0.162
59.2656 4.382 0.158
59.2813 4.786 0.165
59.2969 4.370 0.158
59.3125 4.547 0.161
59.3281 4.672 0.163
59.3437 4.547 0.161
59.3593 4.598 0.162
59.3749 4.627 0.162
59.3906 4.359 0.158
59.4062 4.718 0.164
59.4218 4.729 0.164
59.4374 4.690 0.163
59.4530 4.604 0.162
59.4686 4.615 0.162
59.4843 4.655 0.163
59.4999 4.473 0.160
59.5155 4.747 0.164
59.5311 4.661 0.163
59.5467 4.764 0.165
59.5623 4.479 0.160
59.5779 4.570 0.161
59.5936 4.729 0.164
59.6092 4.747 0.164
59.6248 4.490 0.160
59.6404 4.798 0.165
59.6560 4.530 0.161
59.6716 4.655 0.163
59.6872 4.826 0.166
59.7029 4.439 0.159
59.7185 4.370 0.158
59.7341 4.678 0.163
59.7497 4.502 0.160
59.7653 4.348 0.157
59.7809 4.650 0.163
59.7966 4.353 0.157
59.8122 4.843 0.166
59.8278 4.729 0.164
59.8434 4.724 0.164
59.8590 5.003 0.169
59.8746 5.009 0.169
59.8902 5.163 0.172
59.9059 4.929 0.168
59.9215 5.037 0.169
59.9371 5.294 0.174
59.9527 5.356 0.175
59.9683 5.892 0.183
59.9839 5.561 0.178
59.9996 6.188 0.188
60.0152 6.422 0.191
60.0308 7.277 0.204
60.0464 7.926 0.213
60.0620 8.621 0.222
60.0776 9.379 0.231
60.0932 10.188 0.241
60.1089 10.667 0.247
60.1245 10.787 0.248
60.1401 11.277 0.253
60.1557 10.314 0.242
60.1713 9.601 0.234
60.1869 8.872 0.225
60.2025 7.983 0.213
60.2182 7.875 0.212
60.2338 7.960 0.213
60.2494 8.148 0.215
60.2650 7.692 0.209
60.2806 7.180 0.202
60.2962 7.915 0.212
60.3119 7.727 0.210
60.3275 7.630 0.209
60.3431 6.975 0.199
60.3587 5.915 0.184
60.3743 5.863 0.183
60.3899 5.778 0.181
60.4055 5.459 0.176
60.4212 5.305 0.174
60.4368 5.128 0.171
60.4524 5.208 0.172
60.4680 5.157 0.171
60.4836 4.729 0.164
60.4992 5.049 0.170
60.5148 4.923 0.167
60.5305 4.940 0.168
60.5461 4.889 0.167
60.5617 5.014 0.169
60.5773 4.838 0.166
60.5929 4.741 0.164
60.6085 4.986 0.169
60.6242 4.866 0.167
60.6398 5.265 0.173
60.6554 5.009 0.169
60.6710 5.174 0.172
60.6866 4.758 0.165
60.7022 4.946 0.168
60.7178 5.031 0.169
60.7335 5.225 0.173
60.7491 5.237 0.173
60.7647 5.037 0.169
60.7803 4.838 0.166
60.7959 5.123 0.171
60.8115 4.929 0.168
60.8272 5.145 0.171
60.8428 5.316 0.174
60.8584 5.026 0.169
60.8740 5.333 0.174
60.8896 5.145 0.171
60.9052 5.014 0.169
60.9208 4.701 0.164
60.9365 5.117 0.171
60.9521 4.872 0.167
60.9677 4.952 0.168
60.9833 4.900 0.167
60.9989 4.974 0.168
61.0145 4.729 0.164
61.0301 4.792 0.165
61.0458 5.094 0.170
61.0614 4.695 0.164
61.0770 4.895 0.167
61.0926 4.769 0.165
61.1082 4.809 0.166
61.1238 4.678 0.163
61.1395 4.838 0.166
61.1551 4.855 0.166
61.1707 4.416 0.159
61.1863 4.587 0.162
61.2019 4.581 0.162
61.2175 4.502 0.160
61.2331 4.422 0.159
61.2488 4.786 0.165
61.2644 4.849 0.166
61.2800 4.655 0.163
61.2956 4.496 0.160
61.3112 4.809 0.166
61.3268 4.940 0.168
61.3424 4.781 0.165
61.3581 4.707 0.164
61.3737 4.171 0.154
61.3893 4.519 0.160
61.4049 4.587 0.162
61.4205 4.707 0.164
61.4361 4.507 0.160
61.4518 4.353 0.157
61.4674 4.615 0.162
61.4830 4.758 0.165
61.4986 4.313 0.157
61.5142 4.319 0.157
61.5298 4.388 0.158
61.5454 4.331 0.157
61.5611 4.262 0.156
61.5767 4.450 0.159
61.5923 4.655 0.163
61.6079 4.496 0.160
61.6235 4.427 0.159
61.6391 4.171 0.154
61.6548 4.279 0.156
61.6704 4.359 0.158
61.6860 4.587 0.162
61.7016 4.861 0.166
61.7172 4.615 0.162
61.7328 4.188 0.154
61.7484 4.091 0.153
61.7641 4.416 0.159
61.7797 4.200 0.155
61.7953 4.587 0.162
61.8109 4.319 0.157
61.8265 4.564 0.161
61.8421 4.137 0.154
61.8577 4.450 0.159
61.8734 4.781 0.165
61.8890 4.621 0.162
61.9046 4.593 0.162
61.9202 4.826 0.166
61.9358 4.838 0.166
61.9514 4.781 0.165
61.9671 5.128 0.171
61.9827 4.826 0.166
61.9983 4.843 0.166
62.0139 4.997 0.169
62.0295 5.413 0.176
62.0451 5.214 0.172
62.0607 5.117 0.171
62.0764 5.476 0.177
62.0920 5.470 0.177
62.1076 5.447 0.176
62.1232 5.755 0.181
62.1388 5.635 0.179
62.1544 5.675 0.180
62.1700 5.664 0.180
62.1857 6.439 0.192
62.2013 6.484 0.192
62.2169 6.490 0.192
62.2325 7.128 0.202
62.2481 7.533 0.207
62.2637 8.422 0.219
62.2794 9.009 0.227
62.2950 10.262 0.242
62.3106 10.752 0.248
62.3262 11.824 0.260
62.3418 12.616 0.268
62.3574 12.946 0.272
62.3730 13.402 0.276
62.3887 13.072 0.273
62.4043 14.069 0.283
62.4199 13.932 0.282
62.4355 14.433 0.287
62.4511 14.046 0.283
62.4667 14.126 0.284
62.4824 14.006 0.283
62.4980 14.109 0.284
62.5136 14.559 0.288
62.5292 14.787 0.290
62.5448 14.496 0.287
62.5604 14.923 0.292
62.5760 14.428 0.287
62.5917 13.846 0.281
62.6073 13.693 0.279
62.6229 12.861 0.271
62.6385 11.522 0.256
62.6541 11.288 0.254
62.6697 10.143 0.240
62.6853 10.581 0.246
62.7010 10.205 0.241
62.7166 10.245 0.242
62.7322 10.097 0.240
62.7478 10.006 0.239
62.7634 9.476 0.232
62.7790 9.009 0.227
62.7947 8.342 0.218
62.8103 7.356 0.205
62.8259 6.992 0.200
62.8415 6.655 0.195
62.8571 6.661 0.195
62.8727 6.445 0.192
62.8883 6.296 0.189
62.9040 5.983 0.185
62.9196 6.046 0.186
62.9352 5.601 0.179
62.9508 5.584 0.178
62.9664 5.408 0.176
62.9820 5.311 0.174
62.9976 5.054 0.170
63.0133 4.940 0.168
63.0289 4.821 0.166
63.0445 4.895 0.167
63.0601 4.712 0.164
63.0757 5.043 0.170
63.0913 4.906 0.167
63.1070 4.610 0.162
63.1226 4.752 0.165
63.1382 4.917 0.167
63.1538 4.559 0.161
63.1694 4.661 0.163
63.1850 4.541 0.161
63.2006 4.695 0.164
63.2163 4.547 0.161
63.2319 4.678 0.163
63.2475 4.462 0.159
63.2631 4.473 0.160
63.2787 4.530 0.161
63.2943 4.581 0.162
63.3100 4.251 0.156
63.3256 4.410 0.159
63.3412 4.279 0.156
63.3568 4.051 0.152
63.3724 4.388 0.158
63.3880 4.279 0.156
63.4036 4.063 0.152
63.4193 4.000 0.151
63.4349 4.342 0.157
63.4505 4.080 0.152
63.4661 4.251 0.156
63.4817 4.239 0.155
63.4973 4.268 0.156
63.5129 4.690 0.163
63.5286 4.536 0.161
63.5442 4.826 0.166
63.5598 4.752 0.165
63.5754 5.128 0.171
63.5910 4.849 0.166
63.6066 5.094 0.170
63.6223 4.900 0.167
63.6379 4.678 0.163
63.6535 4.900 0.167
63.6691 4.900 0.167
63.6847 4.581 0.162
63.7003 4.883 0.167
63.7159 5.037 0.169
63.7316 5.140 0.171
63.7472 5.276 0.173
63.7628 5.379 0.175
63.7784 5.858 0.183
63.7940 5.869 0.183
63.8096 6.177 0.188
63.8252 6.165 0.187
63.8409 6.353 0.190
63.8565 6.644 0.195
63.8721 6.547 0.193
63.8877 6.809 0.197
63.9033 6.473 0.192
63.9189 6.080 0.186
63.9346 5.789 0.182
63.9502 5.653 0.179
63.9658 5.607 0.179
63.9814 5.556 0.178
63.9970 5.584 0.178
64.0126 5.590 0.178
64.0282 5.806 0.182
64.0439 5.715 0.180
64.0595 5.778 0.181
64.0751 5.385 0.175
64.0907 5.088 0.170
64.1063 4.838 0.166
64.1219 5.151 0.171
64.1376 4.559 0.161
64.1532 4.610 0.162
64.1688 4.205 0.155
64.1844 4.211 0.155
64.2000 4.325 0.157
64.2156 4.063 0.152
64.2312 4.279 0.156
64.2469 4.279 0.156
64.2625 4.234 0.155
64.2781 3.943 0.150
64.2937 4.205 0.155
64.3093 3.932 0.150
64.3249 4.017 0.151
64.3405 3.858 0.148
64.3562 3.692 0.145
64.3718 3.727 0.146
64.3874 3.829 0.148
64.4030 3.698 0.145
64.4186 3.755 0.146
64.4342 3.932 0.150
64.4499 3.784 0.147
64.4655 3.784 0.147
64.4811 3.664 0.144
64.4967 4.097 0.153
64.5123 4.063 0.152
64.5279 3.539 0.142
64.5435 3.692 0.145
64.5592 3.590 0.143
64.5748 3.316 0.137
64.5904 3.795 0.147
64.6060 3.812 0.147
64.6216 3.784 0.147
64.6372 3.533 0.142
64.6529 3.556 0.142
64.6685 3.630 0.144
64.6841 3.578 0.143
64.6997 3.835 0.148
64.7153 3.749 0.146
64.7309 3.578 0.143
64.7465 3.789 0.147
64.7622 3.766 0.146
64.7778 3.539 0.142
64.7934 3.715 0.145
64.8090 3.698 0.145
64.8246 3.533 0.142
64.8402 3.727 0.146
64.8558 3.510 0.141
64.8715 3.385 0.139
64.8871 3.653 0.144
64.9027 3.561 0.142
64.9183 3.670 0.145
64.9339 3.527 0.142
64.9495 3.687 0.145
64.9652 3.624 0.144
64.9808 3.385 0.139
64.9964 3.721 0.146
65.0120 3.852 0.148
65.0276 3.601 0.143
65.0432 3.738 0.146
65.0588 3.749 0.146
65.0745 3.596 0.143
65.0901 3.311 0.137
65.1057 3.561 0.142
65.1213 3.863 0.148
65.1369 3.727 0.146
65.1525 3.578 0.143
65.1681 3.829 0.148
65.1838 3.863 0.148
65.1994 3.841 0.148
65.2150 3.869 0.148
65.2306 3.806 0.147
65.2462 3.977 0.151
65.2618 3.738 0.146
65.2775 3.892 0.149
65.2931 3.932 0.150
65.3087 4.319 0.157
65.3243 4.308 0.157
65.3399 4.074 0.152
65.3555 4.331 0.157
65.3711 4.057 0.152
65.3868 4.171 0.154
65.4024 4.040 0.152
65.4180 4.114 0.153
65.4336 4.205 0.155
65.4492 4.268 0.156
65.4648 4.177 0.154
65.4805 4.074 0.152
65.4961 4.120 0.153
65.5117 4.068 0.152
65.5273 3.977 0.151
65.5429 4.251 0.156
65.5585 4.057 0.152
65.5741 4.205 0.155
65.5898 3.789 0.147
65.6054 4.131 0.153
65.6210 4.091 0.153
65.6366 4.137 0.154
65.6522 3.544 0.142
65.6678 4.017 0.151
65.6834 3.943 0.150
65.6991 4.006 0.151
65.7147 3.880 0.149
65.7303 3.863 0.148
65.7459 4.137 0.154
65.7615 3.744 0.146
65.7771 3.926 0.150
65.7928 3.755 0.146
65.8084 4.029 0.152
65.8240 3.829 0.148
65.8396 3.687 0.145
65.8552 4.160 0.154
65.8708 3.818 0.147
65.8864 3.863 0.148
65.9021 3.823 0.148
65.9177 3.618 0.144
65.9333 3.772 0.147
65.9489 3.858 0.148
65.9645 3.727 0.146
65.9801 4.217 0.155
65.9957 3.772 0.147
66.0114 3.607 0.143
66.0270 3.909 0.149
66.0426 3.920 0.149
66.0582 3.972 0.150
66.0738 3.698 0.145
66.0894 3.858 0.148
66.1051 3.818 0.147
66.1207 3.966 0.150
66.1363 3.949 0.150
66.1519 3.960 0.150
66.1675 3.613 0.143
66.1831 3.903 0.149
66.1987 3.778 0.147
66.2144 3.846 0.148
66.2300 3.846 0.148
66.2456 3.829 0.148
66.2612 3.738 0.146
66.2768 3.510 0.141
66.2924 3.812 0.147
66.3081 3.937 0.150
66.3237 3.766 0.146
66.3393 3.909 0.149
66.3549 3.675 0.145
66.3705 3.846 0.148
66.3861 3.784 0.147
66.4017 3.858 0.148
66.4174 3.806 0.147
66.4330 3.766 0.146
66.4486 3.607 0.143
66.4642 3.630 0.144
66.4798 3.653 0.144
66.4954 3.687 0.145
66.5110 3.806 0.147
66.5267 3.727 0.146
66.5423 3.949 0.150
66.5579 4.017 0.151
66.5735 4.211 0.155
66.5891 3.858 0.148
66.6047 3.955 0.150
66.6204 4.000 0.151
66.6360 3.960 0.150
66.6516 4.063 0.152
66.6672 4.194 0.155
66.6828 4.006 0.151
66.6984 3.880 0.149
66.7140 3.692 0.145
66.7297 4.051 0.152
66.7453 3.875 0.149
66.7609 3.880 0.149
66.7765 3.704 0.145
66.7921 4.063 0.152
66.8077 4.023 0.151
66.8233 4.091 0.153
66.8390 3.658 0.144
66.8546 3.972 0.150
66.8702 3.994 0.151
66.8858 4.200 0.155
66.9014 3.658 0.144
66.9170 3.721 0.146
66.9327 3.709 0.145
66.9483 3.687 0.145
66.9639 3.977 0.151
66.9795 3.664 0.144
66.9951 4.239 0.155
67.0107 3.778 0.147
67.0263 3.721 0.146
67.0420 3.766 0.146
67.0576 3.863 0.148
67.0732 3.920 0.149
67.0888 3.749 0.146
67.1044 3.698 0.145
67.1200 3.795 0.147
67.1357 4.006 0.151
67.1513 3.926 0.150
67.1669 4.046 0.152
67.1825 3.886 0.149
67.1981 3.789 0.147
67.2137 3.841 0.148
67.2293 4.074 0.152
67.2450 3.977 0.151
67.2606 3.960 0.150
67.2762 3.886 0.149
67.2918 3.732 0.146
67.3074 4.308 0.157
67.3230 3.806 0.147
67.3386 4.103 0.153
67.3543 4.143 0.154
67.3699 3.755 0.146
67.3855 4.239 0.155
67.4011 4.359 0.158
67.4167 4.120 0.153
67.4323 4.262 0.156
67.4480 4.268 0.156
67.4636 4.405 0.158
67.4792 4.416 0.159
67.4948 4.712 0.164
67.5104 4.923 0.167
67.5260 5.014 0.169
67.5416 5.003 0.169
67.5573 5.328 0.174
67.5729 5.208 0.172
67.5885 4.992 0.169
67.6041 5.288 0.174
67.6197 4.866 0.167
67.6353 4.969 0.168
67.6509 4.200 0.155
67.6666 4.519 0.160
67.6822 4.553 0.161
67.6978 4.553 0.161
67.7134 4.690 0.163
67.7290 4.154 0.154
67.7446 4.222 0.155
67.7603 4.399 0.158
67.7759 4.029 0.152
67.7915 4.456 0.159
67.8071 4.239 0.155
67.8227 4.097 0.153
67.8383 3.972 0.150
67.8539 3.749 0.146
67.8696 3.989 0.151
67.8852 3.681 0.145
67.9008 3.556 0.142
67.9164 3.932 0.150
67.9320 3.909 0.149
67.9476 3.738 0.146
67.9633 3.749 0.146
67.9789 3.516 0.142
67.9945 3.653 0.144
68.0101 3.658 0.144
68.0257 3.858 0.148
68.0413 3.613 0.143
68.0569 3.886 0.149
68.0726 3.698 0.145
68.0882 3.544 0.142
68.1038 3.527 0.142
68.1194 3.789 0.147
68.1350 3.692 0.145
68.1506 3.835 0.148
68.1662 3.949 0.150
68.1819 4.017 0.151
68.1975 3.755 0.146
68.2131 4.034 0.152
68.2287 3.892 0.149
68.2443 3.863 0.148
68.2599 4.074 0.152
68.2756 3.966 0.150
68.2912 4.251 0.156
68.3068 3.920 0.149
68.3224 4.177 0.154
68.3380 4.034 0.152
68.3536 4.154 0.154
68.3692 3.818 0.147
68.3849 4.103 0.153
68.4005 4.228 0.155
68.4161 4.114 0.153
68.4317 4.194 0.155
68.4473 4.325 0.157
68.4629 4.484 0.160
68.4785 4.416 0.159
68.4942 4.433 0.159
68.5098 4.348 0.157
68.5254 4.547 0.161
68.5410 4.484 0.160
68.5566 4.507 0.160
68.5722 4.279 0.156
68.5879 4.439 0.159
68.6035 4.137 0.154
68.6191 4.268 0.156
68.6347 4.057 0.152
68.6503 3.989 0.151
68.6659 4.308 0.157
68.6815 4.068 0.152
68.6972 4.057 0.152
68.7128 4.667 0.163
68.7284 4.086 0.153
68.7440 4.023 0.151
68.7596 4.228 0.155
68.7752 4.017 0.151
68.7909 3.852 0.148
68.8065 4.080 0.152
68.8221 4.074 0.152
68.8377 4.023 0.151
68.8533 3.886 0.149
68.8689 4.097 0.153
68.8845 4.057 0.152
68.9002 3.823 0.148
68.9158 3.755 0.146
68.9314 3.858 0.148
68.9470 3.499 0.141
68.9626 4.068 0.152
68.9782 3.920 0.149
68.9938 3.852 0.148
69.0095 3.926 0.150
69.0251 3.841 0.148
69.0407 3.601 0.143
69.0563 3.892 0.149
69.0719 3.749 0.146
69.0875 3.892 0.149
69.1032 3.869 0.148
69.1188 3.442 0.140
69.1344 3.778 0.147
69.1500 3.630 0.144
69.1656 3.806 0.147
69.1812 3.812 0.147
69.1968 3.670 0.145
69.2125 3.390 0.139
69.2281 3.180 0.135
69.2437 3.630 0.144
69.2593 3.573 0.143
69.2749 3.339 0.138
69.2905 3.373 0.139
69.3061 3.390 0.139
69.3218 3.482 0.141
69.3374 3.396 0.139
69.3530 3.470 0.141
69.3686 3.698 0.145
69.3842 3.573 0.143
69.3998 3.436 0.140
69.4155 3.453 0.140
69.4311 3.413 0.139
69.4467 3.641 0.144
69.4623 3.339 0.138
69.4779 3.425 0.140
69.4935 3.487 0.141
69.5091 3.573 0.143
69.5248 3.596 0.143
69.5404 3.316 0.137
69.5560 3.516 0.142
69.5716 3.789 0.147
69.5872 3.692 0.145
69.6028 3.584 0.143
69.6185 3.635 0.144
69.6341 3.550 0.142
69.6497 3.806 0.147
69.6653 3.784 0.147
69.6809 3.869 0.148
69.6965 3.709 0.145
69.7121 3.664 0.144
69.7278 3.635 0.144
69.7434 3.841 0.148
69.7590 3.903 0.149
69.7746 3.915 0.149
69.7902 3.607 0.143
69.8058 3.755 0.146
69.8214 3.721 0.146
69.8371 3.898 0.149
69.8527 3.823 0.148
69.8683 3.727 0.146
69.8839 3.715 0.145
69.8995 3.880 0.149
69.9151 3.698 0.145
69.9308 3.795 0.147
69.9464 3.727 0.146
69.9620 3.590 0.143
69.9776 3.464 0.141
69.9932 3.561 0.142
70.0088 3.647 0.144
70.0244 3.675 0.145
70.0401 3.487 0.141
70.0557 3.613 0.143
70.0713 3.766 0.146
70.0869 3.823 0.148
70.1025 3.601 0.143
70.1181 3.544 0.142
70.1338 3.573 0.143
70.1494 3.578 0.143
70.1650 3.487 0.141
70.1806 3.487 0.141
70.1962 3.613 0.143
70.2118 3.647 0.144
70.2274 3.539 0.142
70.2431 3.578 0.143
70.2587 3.590 0.143
70.2743 3.852 0.148
70.2899 3.419 0.140
70.3055 3.402 0.139
70.3211 3.504 0.141
70.3367 3.607 0.143
70.3524 3.259 0.136
70.3680 3.259 0.136
70.3836 3.658 0.144
70.3992 3.385 0.139
70.4148 3.396 0.139
70.4304 3.214 0.135
70.4461 3.436 0.140
70.4617 3.482 0.141
70.4773 3.858 0.148
70.4929 3.618 0.144
70.5085 3.533 0.142
70.5241 3.653 0.144
70.5397 3.613 0.143
70.5554 3.635 0.144
70.5710 3.487 0.141
70.5866 3.447 0.140
70.6022 3.601 0.143
70.6178 3.322 0.138
70.6334 3.311 0.137
70.6490 3.544 0.142
70.6647 3.271 0.137
70.6803 3.447 0.140
70.6959 3.561 0.142
70.7115 3.316 0.137
70.7271 3.903 0.149
70.7427 3.658 0.144
70.7584 3.351 0.138
70.7740 3.436 0.140
70.7896 3.778 0.147
70.8052 3.607 0.143
70.8208 3.544 0.142
70.8364 3.841 0.148
70.8520 3.875 0.149
70.8677 3.482 0.141
70.8833 3.658 0.144
70.8989 3.635 0.144
70.9145 3.390 0.139
70.9301 3.738 0.146
70.9457 3.590 0.143
70.9614 3.846 0.148
70.9770 3.453 0.140
70.9926 3.766 0.146
71.0082 3.801 0.147
71.0238 3.869 0.148
71.0394 3.852 0.148
71.0550 3.789 0.147
71.0707 3.681 0.145
71.0863 4.034 0.152
71.1019 4.057 0.152
71.1175 3.858 0.148
71.1331 3.989 0.151
71.1487 3.784 0.147
71.1643 3.749 0.146
71.1800 3.949 0.150
71.1956 4.177 0.154
71.2112 3.977 0.151
71.2268 4.034 0.152
71.2424 4.057 0.152
71.2580 4.148 0.154
71.2737 4.268 0.156
71.2893 4.165 0.154
71.3049 4.405 0.158
71.3205 3.966 0.150
71.3361 4.393 0.158
71.3517 3.926 0.150
71.3673 3.960 0.150
71.3830 4.353 0.157
71.3986 3.932 0.150
71.4142 4.211 0.155
71.4298 3.869 0.148
71.4454 4.086 0.153
71.4610 4.011 0.151
71.4766 3.823 0.148
71.4923 4.433 0.159
71.5079 4.091 0.153
71.5235 4.034 0.152
71.5391 3.977 0.151
71.5547 4.370 0.158
71.5703 3.983 0.151
71.5860 4.143 0.154
71.6016 4.114 0.153
71.6172 3.823 0.148
71.6328 3.818 0.147
71.6484 4.068 0.152
71.6640 3.578 0.143
71.6796 3.613 0.143
71.6953 3.778 0.147
71.7109 3.812 0.147
71.7265 3.846 0.148
71.7421 3.858 0.148
71.7577 3.772 0.147
71.7733 3.692 0.145
71.7890 3.578 0.143
71.8046 3.818 0.147
71.8202 3.675 0.145
71.8358 3.721 0.146
71.8514 3.521 0.142
71.8670 3.795 0.147
71.8826 3.664 0.144
71.8983 3.784 0.147
71.9139 3.396 0.139
71.9295 3.202 0.135
71.9451 3.561 0.142
71.9607 3.692 0.145
71.9763 3.351 0.138
71.9919 3.413 0.139
72.0076 3.351 0.138
72.0232 3.430 0.140
72.0388 3.390 0.139
72.0544 3.407 0.139
72.0700 3.499 0.141
72.0856 3.516 0.142
72.1013 3.618 0.144
72.1169 3.556 0.142
72.1325 3.174 0.134
72.1481 3.510 0.141
72.1637 3.413 0.139
72.1793 3.162 0.134
72.1949 3.470 0.141
72.2106 3.596 0.143
72.2262 3.191 0.135
72.2418 3.379 0.139
72.2574 3.556 0.142
72.2730 3.237 0.136
72.2886 3.385 0.139
72.3042 3.413 0.139
72.3199 3.328 0.138
72.3355 3.202 0.135
72.3511 3.533 0.142
72.3667 3.237 0.136
72.3823 3.464 0.141
72.3979 3.362 0.138
72.4136 3.407 0.139
72.4292 3.083 0.133
72.4448 3.590 0.143
72.4604 3.282 0.137
72.4760 3.533 0.142
72.4916 3.402 0.139
72.5072 3.328 0.138
72.5229 3.835 0.148
72.5385 3.556 0.142
72.5541 3.977 0.151
72.5697 3.436 0.140
72.5853 3.584 0.143
72.6009 3.539 0.142
72.6166 3.761 0.146
72.6322 3.687 0.145
72.6478 3.744 0.146
72.6634 3.687 0.145
72.6790 3.447 0.140
72.6946 3.653 0.144
72.7102 3.567 0.143
72.7259 3.527 0.142
72.7415 3.527 0.142
72.7571 3.681 0.145
72.7727 3.442 0.140
72.7883 3.681 0.145
72.8039 3.533 0.142
72.8195 3.470 0.141
72.8352 3.630 0.144
72.8508 3.573 0.143
72.8664 3.618 0.144
72.8820 3.487 0.141
72.8976 3.362 0.138
72.9132 3.339 0.138
72.9289 3.442 0.140
72.9445 3.071 0.132
72.9601 3.339 0.138
72.9757 3.299 0.137
72.9913 3.345 0.138
73.0069 3.271 0.137
73.0225 3.356 0.138
73.0382 3.425 0.140
73.0538 3.094 0.133
73.0694 3.049 0.132
73.0850 3.219 0.135
73.1006 3.407 0.139
73.1162 3.128 0.134
73.1318 3.140 0.134
73.1475 3.362 0.138
73.1631 3.487 0.141
73.1787 2.957 0.130
73.1943 3.316 0.137
73.2099 3.174 0.134
73.2255 3.077 0.132
73.2412 3.174 0.134
73.2568 3.356 0.138
73.2724 3.231 0.136
73.2880 3.385 0.139
73.3036 3.351 0.138
73.3192 3.436 0.140
73.3348 3.237 0.136
73.3505 3.430 0.140
73.3661 3.539 0.142
73.3817 3.311 0.137
73.3973 3.123 0.133
73.4129 3.225 0.136
73.4285 3.396 0.139
73.4442 3.510 0.141
73.4598 3.271 0.137
73.4754 3.311 0.137
73.4910 3.134 0.134
73.5066 3.499 0.141
73.5222 3.453 0.140
73.5378 3.390 0.139
73.5535 3.328 0.138
73.5691 3.276 0.137
73.5847 3.214 0.135
73.6003 3.316 0.137
73.6159 3.715 0.145
73.6315 3.237 0.136
73.6471 3.436 0.140
73.6628 3.168 0.134
73.6784 3.254 0.136
73.6940 3.282 0.137
73.7096 3.162 0.134
73.7252 3.003 0.131
73.7408 3.117 0.133
73.7565 3.305 0.137
73.7721 3.413 0.139
73.7877 3.259 0.136
73.8033 3.197 0.135
73.8189 3.054 0.132
73.8345 3.339 0.138
73.8501 3.299 0.137
73.8658 3.077 0.132
73.8814 3.202 0.135
73.8970 3.219 0.135
73.9126 3.271 0.137
73.9282 3.197 0.135
73.9438 3.088 0.133
73.9594 3.054 0.132
73.9751 3.180 0.135
73.9907 3.390 0.139
74.0063 3.185 0.135
74.0219 3.413 0.139
74.0375 3.282 0.137
74.0531 3.248 0.136
74.0688 3.259 0.136
74.0844 3.276 0.137
74.1000 3.145 0.134
74.1156 3.425 0.140
74.1312 3.219 0.135
74.1468 3.482 0.141
74.1624 3.162 0.134
74.1781 3.305 0.137
74.1937 3.322 0.138
74.2093 3.180 0.135
74.2249 3.123 0.133
74.2405 3.105 0.133
74.2561 3.014 0.131
74.2718 3.356 0.138
74.2874 3.191 0.135
74.3030 3.362 0.138
74.3186 3.180 0.135
74.3342 3.521 0.142
74.3498 3.020 0.131
74.3654 3.294 0.137
74.3811 3.413 0.139
74.3967 3.288 0.137
74.4123 3.140 0.134
74.4279 3.049 0.132
74.4435 3.254 0.136
74.4591 3.231 0.136
74.4747 3.385 0.139
74.4904 3.100 0.133
74.5060 3.157 0.134
74.5216 3.043 0.132
74.5372 3.299 0.137
74.5528 3.066 0.132
74.5684 3.299 0.137
74.5841 3.311 0.137
74.5997 3.145 0.134
74.6153 3.265 0.136
74.6309 3.430 0.140
74.6465 3.516 0.142
74.6621 3.430 0.140
74.6777 3.772 0.147
74.6934 3.641 0.144
74.7090 3.698 0.145
74.7246 3.675 0.145
74.7402 3.573 0.143
74.7558 3.670 0.145
74.7714 3.550 0.142
74.7871 3.715 0.145
74.8027 3.618 0.144
74.8183 3.476 0.141
74.8339 3.761 0.146
74.8495 3.567 0.143
74.8651 3.516 0.142
74.8807 3.413 0.139
74.8964 3.561 0.142
74.9120 3.385 0.139
74.9276 3.675 0.145
74.9432 3.419 0.140
74.9588 3.436 0.140
74.9744 3.464 0.141
74.9900 3.510 0.141
75.0057 3.419 0.140
75.0213 3.356 0.138
75.0369 3.339 0.138
75.0525 3.259 0.136
75.0681 3.362 0.138
75.0837 3.276 0.137
75.0994 3.436 0.140
75.1150 3.561 0.142
75.1306 3.385 0.139
75.1462 3.145 0.134
75.1618 3.476 0.141
75.1774 3.482 0.141
75.1930 3.442 0.140
75.2087 3.425 0.140
75.2243 3.282 0.137
75.2399 3.214 0.135
75.2555 3.294 0.137
75.2711 3.031 0.131
75.2867 3.385 0.139
75.3023 3.345 0.138
75.3180 3.100 0.133
75.3336 2.997 0.131
75.3492 3.202 0.135
75.3648 3.311 0.137
75.3804 3.265 0.136
75.3960 3.071 0.132
75.4117 3.208 0.135
75.4273 3.402 0.139
75.4429 3.248 0.136
75.4585 3.214 0.135
75.4741 3.094 0.133
75.4897 3.162 0.134
75.5053 3.311 0.137
75.5210 3.339 0.138
75.5366 3.054 0.132
75.5522 3.123 0.133
75.5678 3.077 0.132
75.5834 3.128 0.134
75.5990 3.453 0.140
75.6147 3.049 0.132
75.6303 3.071 0.132
75.6459 3.322 0.138
75.6615 3.436 0.140
75.6771 3.208 0.135
75.6927 3.174 0.134
75.7083 3.288 0.137
75.7240 3.100 0.133
75.7396 3.031 0.131
75.7552 3.134 0.134
75.7708 3.174 0.134
75.7864 2.952 0.130
75.8020 3.054 0.132
75.8176 3.071 0.132
75.8333 3.436 0.140
75.8489 2.969 0.130
75.8645 3.168 0.134
75.8801 3.185 0.135
75.8957 3.180 0.135
75.9113 2.929 0.129
75.9270 3.077 0.132
75.9426 3.111 0.133
75.9582 3.162 0.134
75.9738 3.043 0.132
75.9894 3.049 0.132
76.0050 3.134 0.134
76.0206 3.105 0.133
76.0363 3.237 0.136
76.0519 2.917 0.129
76.0675 3.351 0.138
76.0831 3.105 0.133
76.0987 3.054 0.132
76.1143 3.254 0.136
76.1299 2.974 0.130
76.1456 2.906 0.129
76.1612 2.912 0.129
76.1768 3.009 0.131
76.1924 3.105 0.133
76.2080 3.157 0.134
76.2236 3.049 0.132
76.2393 2.997 0.131
76.2549 3.305 0.137
76.2705 3.436 0.140
76.2861 3.197 0.135
76.3017 3.088 0.133
76.3173 3.134 0.134
76.3329 3.180 0.135
76.3486 2.986 0.130
76.3642 3.351 0.138
76.3798 2.803 0.126
76.3954 3.066 0.132
76.4110 3.054 0.132
76.4266 2.963 0.130
76.4423 3.162 0.134
76.4579 3.174 0.134
76.4735 3.259 0.136
76.4891 3.276 0.137
76.5047 2.992 0.131
76.5203 3.094 0.133
76.5359 2.929 0.129
76.5516 3.009 0.131
76.5672 3.453 0.140
76.5828 3.180 0.135
76.5984 3.140 0.134
76.6140 3.111 0.133
76.6296 3.100 0.133
76.6452 3.191 0.135
76.6609 2.935 0.129
76.6765 3.294 0.137
76.6921 3.066 0.132
76.7077 3.271 0.137
76.7233 3.117 0.133
76.7389 2.986 0.130
76.7546 3.214 0.135
76.7702 3.168 0.134
76.7858 3.123 0.133
76.8014 3.094 0.133
76.8170 3.162 0.134
76.8326 3.100 0.133
76.8482 2.997 0.131
76.8639 3.311 0.137
76.8795 3.100 0.133
76.8951 3.208 0.135
76.9107 3.117 0.133
76.9263 3.174 0.134
76.9419 3.442 0.140
76.9575 2.946 0.130
76.9732 3.368 0.139
76.9888 3.043 0.132
77.0044 2.917 0.129
