'Id: "" Comment: "1 minute" Operator: "Paul  Stutzman" Anode: "Cu" Scantype: "Locked Coupled" TimePerStep: "273.918" X: "0" Y: "0" Z: "0" 
20.0000 13.157 0.219
20.0166 12.953 0.217
20.0333 13.084 0.219
20.0499 13.066 0.218
20.0666 12.862 0.217
20.0832 13.059 0.218
20.0999 13.248 0.220
20.1165 13.022 0.218
20.1332 13.270 0.220
20.1498 13.154 0.219
20.1665 13.336 0.221
20.1831 13.256 0.220
20.1998 13.679 0.223
20.2164 13.343 0.221
20.2331 13.657 0.223
20.2497 13.541 0.222
20.2664 13.734 0.224
20.2830 13.274 0.220
20.2997 13.453 0.222
20.3163 13.373 0.221
20.3330 13.077 0.218
20.3496 13.223 0.220
20.3663 13.431 0.221
20.3829 13.135 0.219
20.3996 12.657 0.215
20.4162 12.752 0.216
20.4329 12.953 0.217
20.4495 13.037 0.218
20.4662 12.993 0.218
20.4828 12.734 0.216
20.4994 12.851 0.217
20.5161 12.847 0.217
20.5327 12.796 0.216
20.5494 13.197 0.219
20.5660 12.832 0.216
20.5827 12.672 0.215
20.5993 13.004 0.218
20.6160 12.584 0.214
20.6326 13.420 0.221
20.6493 12.883 0.217
20.6659 12.851 0.217
20.6826 12.803 0.216
20.6992 12.978 0.218
20.7159 13.092 0.219
20.7325 12.818 0.216
20.7492 13.037 0.218
20.7658 12.602 0.214
20.7825 12.916 0.217
20.7991 12.650 0.215
20.8158 12.540 0.214
20.8324 13.128 0.219
20.8491 12.752 0.216
20.8657 12.935 0.217
20.8824 12.945 0.217
20.8990 12.840 0.217
20.9157 13.186 0.219
20.9323 12.690 0.215
20.9490 12.927 0.217
20.9656 13.150 0.219
20.9822 13.387 0.221
20.9989 13.296 0.220
21.0155 12.913 0.217
21.0322 13.190 0.219
21.0488 13.263 0.220
21.0655 13.431 0.221
21.0821 13.778 0.224
21.0988 14.085 0.227
21.1154 14.147 0.227
21.1321 14.154 0.227
21.1487 13.993 0.226
21.1654 14.161 0.227
21.1820 13.909 0.225
21.1987 14.296 0.228
21.2153 14.022 0.226
21.2320 13.898 0.225
21.2486 13.413 0.221
21.2653 13.541 0.222
21.2819 13.354 0.221
21.2986 13.004 0.218
21.3152 13.515 0.222
21.3319 13.464 0.222
21.3485 13.289 0.220
21.3652 13.168 0.219
21.3818 13.128 0.219
21.3985 13.562 0.223
21.4151 13.442 0.222
21.4318 13.322 0.221
21.4484 13.154 0.219
21.4651 13.062 0.218
21.4817 12.960 0.218
21.4983 13.325 0.221
21.5150 13.059 0.218
21.5316 13.446 0.222
21.5483 13.062 0.218
21.5649 12.854 0.217
21.5816 13.106 0.219
21.5982 13.197 0.219
21.6149 13.048 0.218
21.6315 12.986 0.218
21.6482 13.135 0.219
21.6648 13.113 0.219
21.6815 13.040 0.218
21.6981 12.953 0.217
21.7148 12.788 0.216
21.7314 13.446 0.222
21.7481 13.402 0.221
21.7647 13.628 0.223
21.7814 13.519 0.222
21.7980 13.661 0.223
21.8147 13.953 0.226
21.8313 14.282 0.228
21.8480 13.887 0.225
21.8646 14.377 0.229
21.8813 14.639 0.231
21.8979 14.541 0.230
21.9146 14.753 0.232
21.9312 14.059 0.227
21.9479 14.085 0.227
21.9645 13.909 0.225
21.9811 13.475 0.222
21.9978 13.070 0.218
22.0144 13.223 0.220
22.0311 13.431 0.221
22.0477 12.975 0.218
22.0644 13.033 0.218
22.0810 13.000 0.218
22.0977 13.165 0.219
22.1143 13.113 0.219
22.1310 12.533 0.214
22.1476 13.092 0.219
22.1643 12.745 0.216
22.1809 12.883 0.217
22.1976 12.865 0.217
22.2142 12.792 0.216
22.2309 12.511 0.214
22.2475 12.832 0.216
22.2642 12.989 0.218
22.2808 13.175 0.219
22.2975 12.613 0.215
22.3141 12.956 0.217
22.3308 12.975 0.218
22.3474 12.456 0.213
22.3641 13.135 0.219
22.3807 12.522 0.214
22.3974 12.997 0.218
22.4140 12.876 0.217
22.4307 13.044 0.218
22.4473 13.212 0.220
22.4639 12.785 0.216
22.4806 12.865 0.217
22.4972 12.679 0.215
22.5139 12.697 0.215
22.5305 12.518 0.214
22.5472 12.690 0.215
22.5638 12.799 0.216
22.5805 12.840 0.217
22.5971 12.617 0.215
22.6138 13.070 0.218
22.6304 13.000 0.218
22.6471 12.485 0.213
22.6637 12.391 0.213
22.6804 12.785 0.216
22.6970 12.708 0.215
22.7137 12.847 0.217
22.7303 12.635 0.215
22.7470 12.799 0.216
22.7636 12.697 0.215
22.7803 12.734 0.216
22.7969 13.070 0.218
22.8136 12.632 0.215
22.8302 12.591 0.214
22.8469 13.033 0.218
22.8635 13.303 0.220
22.8802 12.810 0.216
22.8968 13.081 0.219
22.9135 13.161 0.219
22.9301 12.507 0.214
22.9467 13.033 0.218
22.9634 12.913 0.217
22.9800 12.909 0.217
22.9967 13.427 0.221
23.0133 13.256 0.220
23.0300 13.135 0.219
23.0466 13.325 0.221
23.0633 13.530 0.222
23.0799 13.533 0.222
23.0966 13.581 0.223
23.1132 13.895 0.225
23.1299 13.603 0.223
23.1465 13.665 0.223
23.1632 14.256 0.228
23.1798 14.055 0.227
23.1965 13.719 0.224
23.2131 14.482 0.230
23.2298 13.836 0.225
23.2464 13.774 0.224
23.2631 13.665 0.223
23.2797 13.920 0.225
23.2964 13.570 0.223
23.3130 13.588 0.223
23.3297 13.354 0.221
23.3463 13.314 0.220
23.3630 13.029 0.218
23.3796 12.945 0.217
23.3963 13.238 0.220
23.4129 12.982 0.218
23.4295 13.252 0.220
23.4462 13.537 0.222
23.4628 13.051 0.218
23.4795 12.997 0.218
23.4961 12.493 0.214
23.5128 12.741 0.216
23.5294 12.920 0.217
23.5461 12.887 0.217
23.5627 13.048 0.218
23.5794 13.099 0.219
23.5960 12.960 0.218
23.6127 13.015 0.218
23.6293 13.168 0.219
23.6460 13.354 0.221
23.6626 12.876 0.217
23.6793 12.982 0.218
23.6959 12.686 0.215
23.7126 12.924 0.217
23.7292 12.759 0.216
23.7459 13.351 0.221
23.7625 12.894 0.217
23.7792 12.913 0.217
23.7958 13.099 0.219
23.8125 13.519 0.222
23.8291 13.227 0.220
23.8458 13.186 0.219
23.8624 12.953 0.217
23.8791 13.106 0.219
23.8957 13.022 0.218
23.9124 13.227 0.220
23.9290 13.117 0.219
23.9456 12.913 0.217
23.9623 13.489 0.222
23.9789 13.234 0.220
23.9956 13.281 0.220
24.0122 13.102 0.219
24.0289 13.314 0.220
24.0455 13.252 0.220
24.0622 13.194 0.219
24.0788 13.617 0.223
24.0955 13.533 0.222
24.1121 13.552 0.222
24.1288 13.457 0.222
24.1454 13.763 0.224
24.1621 13.511 0.222
24.1787 14.081 0.227
24.1954 13.698 0.224
24.2120 14.198 0.228
24.2287 14.687 0.232
24.2453 14.654 0.231
24.2620 14.767 0.232
24.2786 15.987 0.242
24.2953 16.560 0.246
24.3119 17.027 0.249
24.3286 18.553 0.260
24.3452 19.400 0.266
24.3619 20.422 0.273
24.3785 21.251 0.279
24.3952 21.722 0.282
24.4118 23.182 0.291
24.4284 23.211 0.291
24.4451 23.635 0.294
24.4617 22.766 0.288
24.4784 22.229 0.285
24.4950 21.375 0.279
24.5117 20.258 0.272
24.5283 19.166 0.265
24.5450 18.290 0.258
24.5616 16.921 0.249
24.5783 16.768 0.247
24.5949 15.841 0.240
24.6116 14.910 0.233
24.6282 14.336 0.229
24.6449 14.355 0.229
24.6615 13.990 0.226
24.6782 13.329 0.221
24.6948 13.413 0.221
24.7115 13.154 0.219
24.7281 13.248 0.220
24.7448 13.555 0.222
24.7614 13.205 0.220
24.7781 12.730 0.216
24.7947 13.066 0.218
24.8114 13.314 0.220
24.8280 12.989 0.218
24.8447 13.033 0.218
24.8613 13.008 0.218
24.8780 12.876 0.217
24.8946 12.960 0.218
24.9112 13.051 0.218
24.9279 12.964 0.218
24.9445 12.774 0.216
24.9612 12.715 0.215
24.9778 12.748 0.216
24.9945 12.803 0.216
25.0111 12.927 0.217
25.0278 13.102 0.219
25.0444 12.898 0.217
25.0611 12.898 0.217
25.0777 12.573 0.214
25.0944 12.668 0.215
25.1110 12.975 0.218
25.1277 12.537 0.214
25.1443 12.657 0.215
25.1610 12.515 0.214
25.1776 12.423 0.213
25.1943 13.077 0.218
25.2109 12.507 0.214
25.2276 12.675 0.215
25.2442 12.442 0.213
25.2609 12.511 0.214
25.2775 12.916 0.217
25.2942 13.117 0.219
25.3108 12.935 0.217
25.3275 12.997 0.218
25.3441 12.799 0.216
25.3608 13.015 0.218
25.3774 12.894 0.217
25.3940 12.960 0.218
25.4107 12.690 0.215
25.4273 12.927 0.217
25.4440 12.953 0.217
25.4606 13.055 0.218
25.4773 13.227 0.220
25.4939 13.227 0.220
25.5106 13.219 0.220
25.5272 12.898 0.217
25.5439 13.015 0.218
25.5605 13.175 0.219
25.5772 12.869 0.217
25.5938 13.391 0.221
25.6105 13.329 0.221
25.6271 13.325 0.221
25.6438 13.121 0.219
25.6604 13.322 0.221
25.6771 13.168 0.219
25.6937 13.577 0.223
25.7104 13.241 0.220
25.7270 13.161 0.219
25.7437 13.048 0.218
25.7603 13.322 0.221
25.7770 13.245 0.220
25.7936 12.464 0.213
25.8103 12.730 0.216
25.8269 13.077 0.218
25.8436 12.555 0.214
25.8602 12.840 0.217
25.8768 12.902 0.217
25.8935 12.792 0.216
25.9101 13.143 0.219
25.9268 12.672 0.215
25.9434 13.048 0.218
25.9601 12.975 0.218
25.9767 13.048 0.218
25.9934 12.559 0.214
26.0100 13.040 0.218
26.0267 12.697 0.215
26.0433 13.405 0.221
26.0600 12.927 0.217
26.0766 13.453 0.222
26.0933 13.245 0.220
26.1099 13.449 0.222
26.1266 13.442 0.222
26.1432 13.639 0.223
26.1599 13.519 0.222
26.1765 13.847 0.225
26.1932 13.789 0.224
26.2098 13.354 0.221
26.2265 13.745 0.224
26.2431 13.708 0.224
26.2598 13.307 0.220
26.2764 13.968 0.226
26.2931 13.639 0.223
26.3097 13.942 0.226
26.3264 13.270 0.220
26.3430 13.771 0.224
26.3597 13.435 0.221
26.3763 13.442 0.222
26.3929 13.625 0.223
26.4096 13.343 0.221
26.4262 13.694 0.224
26.4429 13.369 0.221
26.4595 12.975 0.218
26.4762 12.945 0.217
26.4928 13.311 0.220
26.5095 13.201 0.220
26.5261 12.493 0.214
26.5428 13.270 0.220
26.5594 12.602 0.214
26.5761 13.070 0.218
26.5927 12.858 0.217
26.6094 12.960 0.218
26.6260 12.986 0.218
26.6427 12.916 0.217
26.6593 13.453 0.222
26.6760 13.267 0.220
26.6926 13.183 0.219
26.7093 13.610 0.223
26.7259 13.300 0.220
26.7426 13.336 0.221
26.7592 13.493 0.222
26.7759 13.792 0.224
26.7925 13.822 0.225
26.8092 13.248 0.220
26.8258 13.201 0.220
26.8425 12.876 0.217
26.8591 13.449 0.222
26.8757 13.424 0.221
26.8924 13.000 0.218
26.9090 13.230 0.220
26.9257 13.373 0.221
26.9423 12.862 0.217
26.9590 13.004 0.218
26.9756 12.792 0.216
26.9923 12.825 0.216
27.0089 12.518 0.214
27.0256 13.438 0.221
27.0422 13.077 0.218
27.0589 12.894 0.217
27.0755 12.562 0.214
27.0922 12.690 0.215
27.1088 12.559 0.214
27.1255 12.646 0.215
27.1421 12.814 0.216
27.1588 12.865 0.217
27.1754 12.748 0.216
27.1921 12.624 0.215
27.2087 13.059 0.218
27.2254 13.015 0.218
27.2420 12.686 0.215
27.2587 13.004 0.218
27.2753 12.825 0.216
27.2920 12.770 0.216
27.3086 12.533 0.214
27.3253 12.719 0.215
27.3419 12.434 0.213
27.3585 12.745 0.216
27.3752 12.325 0.212
27.3918 12.657 0.215
27.4085 12.555 0.214
27.4251 12.694 0.215
27.4418 12.496 0.214
27.4584 12.639 0.215
27.4751 12.726 0.216
27.4917 13.004 0.218
27.5084 12.818 0.216
27.5250 12.434 0.213
27.5417 13.040 0.218
27.5583 12.318 0.212
27.5750 12.821 0.216
27.5916 12.595 0.214
27.6083 12.734 0.216
27.6249 12.460 0.213
27.6416 12.551 0.214
27.6582 12.788 0.216
27.6749 12.778 0.216
27.6915 12.708 0.215
27.7082 12.745 0.216
27.7248 12.445 0.213
27.7415 12.712 0.215
27.7581 12.548 0.214
27.7748 12.756 0.216
27.7914 12.723 0.216
27.8081 12.712 0.215
27.8247 12.518 0.214
27.8413 12.453 0.213
27.8580 12.548 0.214
27.8746 12.664 0.215
27.8913 12.803 0.216
27.9079 12.920 0.217
27.9246 12.945 0.217
27.9412 12.938 0.217
27.9579 12.646 0.215
27.9745 12.679 0.215
27.9912 12.566 0.214
28.0078 12.668 0.215
28.0245 12.653 0.215
28.0411 12.573 0.214
28.0578 12.825 0.216
28.0744 12.288 0.212
28.0911 12.493 0.214
28.1077 12.562 0.214
28.1244 12.997 0.218
28.1410 12.106 0.210
28.1577 12.818 0.216
28.1743 12.347 0.212
28.1910 12.427 0.213
28.2076 12.986 0.218
28.2243 12.770 0.216
28.2409 12.792 0.216
28.2576 12.668 0.215
28.2742 12.142 0.211
28.2909 12.756 0.216
28.3075 12.705 0.215
28.3241 12.661 0.215
28.3408 12.847 0.217
28.3574 12.876 0.217
28.3741 12.785 0.216
28.3907 12.599 0.214
28.4074 12.726 0.216
28.4240 12.705 0.215
28.4407 12.332 0.212
28.4573 12.500 0.214
28.4740 12.960 0.218
28.4906 12.489 0.214
28.5073 12.559 0.214
28.5239 12.365 0.212
28.5406 12.770 0.216
28.5572 12.365 0.212
28.5739 12.832 0.216
28.5905 12.632 0.215
28.6072 12.741 0.216
28.6238 12.854 0.217
28.6405 12.445 0.213
28.6571 13.223 0.220
28.6738 13.223 0.220
28.6904 12.883 0.217
28.7071 12.584 0.214
28.7237 12.584 0.214
28.7404 13.077 0.218
28.7570 13.051 0.218
28.7737 12.949 0.217
28.7903 13.055 0.218
28.8070 12.584 0.214
28.8236 13.376 0.221
28.8402 12.865 0.217
28.8569 12.982 0.218
28.8735 12.807 0.216
28.8902 13.015 0.218
28.9068 13.281 0.220
28.9235 12.814 0.216
28.9401 12.935 0.217
28.9568 12.763 0.216
28.9734 12.770 0.216
28.9901 12.664 0.215
29.0067 12.606 0.215
29.0234 12.854 0.217
29.0400 12.818 0.216
29.0567 12.705 0.215
29.0733 12.726 0.216
29.0900 12.635 0.215
29.1066 12.883 0.217
29.1233 12.726 0.216
29.1399 12.726 0.216
29.1566 12.799 0.216
29.1732 13.055 0.218
29.1899 12.646 0.215
29.2065 13.154 0.219
29.2232 12.810 0.216
29.2398 12.756 0.216
29.2565 13.347 0.221
29.2731 12.694 0.215
29.2898 13.274 0.220
29.3064 13.008 0.218
29.3230 13.380 0.221
29.3397 13.303 0.220
29.3563 13.241 0.220
29.3730 13.800 0.224
29.3896 13.891 0.225
29.4063 13.570 0.223
29.4229 13.154 0.219
29.4396 13.570 0.223
29.4562 12.836 0.216
29.4729 13.511 0.222
29.4895 12.723 0.216
29.5062 13.438 0.221
29.5228 12.701 0.215
29.5395 12.748 0.216
29.5561 13.336 0.221
29.5728 13.099 0.219
29.5894 12.942 0.217
29.6061 13.365 0.221
29.6227 12.931 0.217
29.6394 12.810 0.216
29.6560 12.913 0.217
29.6727 12.672 0.215
29.6893 12.821 0.216
29.7060 12.566 0.214
29.7226 12.810 0.216
29.7393 12.862 0.217
29.7559 13.048 0.218
29.7726 13.340 0.221
29.7892 12.814 0.216
29.8058 13.248 0.220
29.8225 13.314 0.220
29.8391 13.380 0.221
29.8558 13.186 0.219
29.8724 13.555 0.222
29.8891 13.081 0.219
29.9057 13.497 0.222
29.9224 13.248 0.220
29.9390 13.135 0.219
29.9557 13.745 0.224
29.9723 13.544 0.222
29.9890 13.391 0.221
30.0056 13.522 0.222
30.0223 13.855 0.225
30.0389 13.128 0.219
30.0556 13.362 0.221
30.0722 12.686 0.215
30.0889 12.664 0.215
30.1055 12.975 0.218
30.1222 13.332 0.221
30.1388 13.336 0.221
30.1555 12.997 0.218
30.1721 12.785 0.216
30.1888 13.088 0.219
30.2054 13.121 0.219
30.2221 13.303 0.220
30.2387 13.150 0.219
30.2554 13.665 0.223
30.2720 13.252 0.220
30.2886 13.427 0.221
30.3053 13.606 0.223
30.3219 13.238 0.220
30.3386 13.497 0.222
30.3552 13.917 0.225
30.3719 13.708 0.224
30.3885 13.792 0.224
30.4052 14.114 0.227
30.4218 14.223 0.228
30.4385 14.530 0.230
30.4551 14.774 0.232
30.4718 14.734 0.232
30.4884 15.669 0.239
30.5051 15.136 0.235
30.5217 15.099 0.235
30.5384 15.523 0.238
30.5550 15.443 0.237
30.5717 15.078 0.235
30.5883 15.454 0.238
30.6050 15.165 0.235
30.6216 14.618 0.231
30.6383 14.471 0.230
30.6549 13.851 0.225
30.6716 13.876 0.225
30.6882 14.066 0.227
30.7049 13.657 0.223
30.7215 13.552 0.222
30.7382 13.278 0.220
30.7548 13.241 0.220
30.7715 13.219 0.220
30.7881 13.325 0.221
30.8047 13.395 0.221
30.8214 13.478 0.222
30.8380 13.471 0.222
30.8547 13.752 0.224
30.8713 13.588 0.223
30.8880 13.599 0.223
30.9046 13.665 0.223
30.9213 13.522 0.222
30.9379 13.687 0.224
30.9546 13.489 0.222
30.9712 13.862 0.225
30.9879 13.906 0.225
31.0045 13.752 0.224
31.0212 13.179 0.219
31.0378 13.252 0.220
31.0545 13.497 0.222
31.0711 13.241 0.220
31.0878 13.373 0.221
31.1044 13.749 0.224
31.1211 13.526 0.222
31.1377 13.248 0.220
31.1544 13.716 0.224
31.1710 13.526 0.222
31.1877 13.427 0.221
31.2043 12.989 0.218
31.2210 13.362 0.221
31.2376 13.354 0.221
31.2543 13.519 0.222
31.2709 13.453 0.222
31.2875 13.482 0.222
31.3042 13.698 0.224
31.3208 13.475 0.222
31.3375 13.730 0.224
31.3541 13.468 0.222
31.3708 13.606 0.223
31.3874 13.584 0.223
31.4041 14.315 0.229
31.4207 13.814 0.225
31.4374 14.380 0.229
31.4540 14.650 0.231
31.4707 14.526 0.230
31.4873 14.767 0.232
31.5040 14.789 0.232
31.5206 15.245 0.236
31.5373 15.629 0.239
31.5539 15.914 0.241
31.5706 15.946 0.241
31.5872 16.530 0.246
31.6039 16.702 0.247
31.6205 16.932 0.249
31.6372 16.038 0.242
31.6538 16.140 0.243
31.6705 15.629 0.239
31.6871 15.395 0.237
31.7038 15.147 0.235
31.7204 14.764 0.232
31.7371 13.986 0.226
31.7537 14.194 0.228
31.7703 13.895 0.225
31.7870 14.234 0.228
31.8036 13.559 0.222
31.8203 14.139 0.227
31.8369 14.074 0.227
31.8536 13.814 0.225
31.8702 14.125 0.227
31.8869 13.953 0.226
31.9035 14.066 0.227
31.9202 14.497 0.230
31.9368 13.876 0.225
31.9535 14.380 0.229
31.9701 13.949 0.226
31.9868 14.398 0.229
32.0034 14.318 0.229
32.0201 14.267 0.228
32.0367 14.366 0.229
32.0534 14.110 0.227
32.0700 14.471 0.230
32.0867 14.566 0.231
32.1033 14.614 0.231
32.1200 15.249 0.236
32.1366 15.377 0.237
32.1533 16.308 0.244
32.1699 17.104 0.250
32.1866 17.940 0.256
32.2032 18.874 0.262
32.2199 20.754 0.275
32.2365 22.043 0.284
32.2531 24.252 0.298
32.2698 25.661 0.306
32.2864 27.300 0.316
32.3031 28.530 0.323
32.3197 30.776 0.335
32.3364 31.553 0.339
32.3530 32.378 0.344
32.3697 32.652 0.345
32.3863 32.115 0.342
32.4030 32.499 0.344
32.4196 31.258 0.338
32.4363 30.202 0.332
32.4529 29.063 0.326
32.4696 27.446 0.317
32.4862 26.347 0.310
32.5029 25.059 0.302
32.5195 24.109 0.297
32.5362 23.036 0.290
32.5528 21.488 0.280
32.5695 20.094 0.271
32.5861 18.925 0.263
32.6028 18.144 0.257
32.6194 17.578 0.253
32.6361 17.078 0.250
32.6527 16.311 0.244
32.6694 16.421 0.245
32.6860 15.888 0.241
32.7027 15.468 0.238
32.7193 15.680 0.239
32.7359 15.684 0.239
32.7526 14.756 0.232
32.7692 15.205 0.236
32.7859 15.147 0.235
32.8025 14.884 0.233
32.8192 14.975 0.234
32.8358 15.088 0.235
32.8525 14.457 0.230
32.8691 14.822 0.233
32.8858 14.774 0.232
32.9024 15.176 0.235
32.9191 15.001 0.234
32.9357 14.738 0.232
32.9524 15.406 0.237
32.9690 16.005 0.242
32.9857 15.943 0.241
33.0023 16.107 0.242
33.0190 16.892 0.248
33.0356 17.962 0.256
33.0523 17.695 0.254
33.0689 18.714 0.261
33.0856 18.546 0.260
33.1022 18.976 0.263
33.1189 19.148 0.264
33.1355 19.553 0.267
33.1522 20.075 0.271
33.1688 20.101 0.271
33.1855 19.933 0.270
33.2021 19.586 0.267
33.2188 20.021 0.270
33.2354 21.284 0.279
33.2520 22.543 0.287
33.2687 23.168 0.291
33.2853 25.000 0.302
33.3020 26.617 0.312
33.3186 28.625 0.323
33.3353 30.432 0.333
33.3519 31.812 0.341
33.3686 33.327 0.349
33.3852 33.620 0.350
33.4019 34.423 0.354
33.4185 34.138 0.353
33.4352 34.605 0.355
33.4518 33.499 0.350
33.4685 33.598 0.350
33.4851 33.839 0.351
33.5018 33.791 0.351
33.5184 34.510 0.355
33.5351 34.802 0.356
33.5517 34.981 0.357
33.5684 34.609 0.355
33.5850 34.981 0.357
33.6017 35.178 0.358
33.6183 34.744 0.356
33.6350 35.795 0.361
33.6516 35.763 0.361
33.6683 36.938 0.367
33.6849 36.745 0.366
33.7016 37.161 0.368
33.7182 37.559 0.370
33.7348 39.647 0.380
33.7515 40.578 0.385
33.7681 44.250 0.402
33.7848 46.620 0.413
33.8014 49.602 0.426
33.8181 52.410 0.437
33.8347 56.272 0.453
33.8514 58.288 0.461
33.8680 59.540 0.466
33.8847 61.190 0.473
33.9013 63.304 0.481
33.9180 64.143 0.484
33.9346 63.698 0.482
33.9513 62.249 0.477
33.9679 61.789 0.475
33.9846 59.850 0.467
34.0012 58.105 0.461
34.0179 55.933 0.452
34.0345 53.487 0.442
34.0512 50.672 0.430
34.0678 47.602 0.417
34.0845 44.502 0.403
34.1011 41.228 0.388
34.1178 37.679 0.371
34.1344 34.043 0.353
34.1511 30.392 0.333
34.1677 27.892 0.319
34.1844 25.194 0.303
34.2010 22.952 0.289
34.2176 21.798 0.282
34.2343 19.754 0.269
34.2509 19.236 0.265
34.2676 18.115 0.257
34.2842 17.363 0.252
34.3009 16.892 0.248
34.3175 16.213 0.243
34.3342 15.903 0.241
34.3508 15.654 0.239
34.3675 15.147 0.235
34.3841 15.231 0.236
34.4008 15.096 0.235
34.4174 15.224 0.236
34.4341 14.910 0.233
34.4507 14.990 0.234
34.4674 14.928 0.233
34.4840 14.764 0.232
34.5007 14.596 0.231
34.5173 14.603 0.231
34.5340 15.070 0.235
34.5506 14.618 0.231
34.5673 15.271 0.236
34.5839 14.760 0.232
34.6006 15.059 0.234
34.6172 15.143 0.235
34.6339 15.435 0.237
34.6505 15.932 0.241
34.6672 16.202 0.243
34.6838 16.384 0.245
34.7004 17.206 0.251
34.7171 17.115 0.250
34.7337 17.483 0.253
34.7504 17.827 0.255
34.7670 18.093 0.257
34.7837 19.068 0.264
34.8003 18.966 0.263
34.8170 19.097 0.264
34.8336 19.349 0.266
34.8503 19.126 0.264
34.8669 19.323 0.266
34.8836 19.181 0.265
34.9002 18.871 0.262
34.9169 18.513 0.260
34.9335 18.020 0.256
34.9502 17.816 0.255
34.9668 17.210 0.251
34.9835 16.662 0.247
35.0001 16.702 0.247
35.0168 15.505 0.238
35.0334 15.519 0.238
35.0501 15.534 0.238
35.0667 14.837 0.233
35.0834 14.913 0.233
35.1000 14.132 0.227
35.1167 14.380 0.229
35.1333 14.227 0.228
35.1500 14.245 0.228
35.1666 14.033 0.226
35.1832 14.676 0.231
35.1999 14.355 0.229
35.2165 14.136 0.227
35.2332 14.088 0.227
35.2498 14.114 0.227
35.2665 13.986 0.226
35.2831 13.986 0.226
35.2998 13.756 0.224
35.3164 13.398 0.221
35.3331 13.570 0.223
35.3497 13.322 0.221
35.3664 13.844 0.225
35.3830 12.986 0.218
35.3997 13.395 0.221
35.4163 13.307 0.220
35.4330 13.402 0.221
35.4496 13.351 0.221
35.4663 13.183 0.219
35.4829 12.956 0.217
35.4996 13.161 0.219
35.5162 13.106 0.219
35.5329 13.332 0.221
35.5495 13.431 0.221
35.5662 13.011 0.218
35.5828 12.956 0.217
35.5995 13.416 0.221
35.6161 13.347 0.221
35.6328 13.143 0.219
35.6494 13.106 0.219
35.6661 13.073 0.218
35.6827 13.405 0.221
35.6993 12.909 0.217
35.7160 12.935 0.217
35.7326 13.132 0.219
35.7493 13.186 0.219
35.7659 12.967 0.218
35.7826 13.322 0.221
35.7992 13.201 0.220
35.8159 13.322 0.221
35.8325 13.139 0.219
35.8492 13.537 0.222
35.8658 13.154 0.219
35.8825 12.971 0.218
35.8991 13.172 0.219
35.9158 12.851 0.217
35.9324 12.865 0.217
35.9491 13.018 0.218
35.9657 13.110 0.219
35.9824 13.435 0.221
35.9990 13.095 0.219
36.0157 12.986 0.218
36.0323 12.796 0.216
36.0490 13.223 0.220
36.0656 12.997 0.218
36.0823 12.913 0.217
36.0989 13.223 0.220
36.1156 12.624 0.215
36.1322 13.092 0.219
36.1489 12.832 0.216
36.1655 13.435 0.221
36.1821 13.194 0.219
36.1988 12.902 0.217
36.2154 12.799 0.216
36.2321 12.730 0.216
36.2487 12.653 0.215
36.2654 12.697 0.215
36.2820 13.066 0.218
36.2987 13.190 0.219
36.3153 12.807 0.216
36.3320 12.898 0.217
36.3486 12.767 0.216
36.3653 13.143 0.219
36.3819 13.380 0.221
36.3986 13.201 0.220
36.4152 12.872 0.217
36.4319 12.851 0.217
36.4485 12.938 0.217
36.4652 13.398 0.221
36.4818 12.697 0.215
36.4985 12.851 0.217
36.5151 12.821 0.216
36.5318 12.869 0.217
36.5484 13.070 0.218
36.5651 12.891 0.217
36.5817 13.000 0.218
36.5984 13.026 0.218
36.6150 13.124 0.219
36.6317 13.084 0.219
36.6483 13.208 0.220
36.6649 13.449 0.222
36.6816 13.672 0.223
36.6982 13.281 0.220
36.7149 13.329 0.221
36.7315 13.482 0.222
36.7482 13.165 0.219
36.7648 13.270 0.220
36.7815 13.416 0.221
36.7981 13.449 0.222
36.8148 13.055 0.218
36.8314 13.398 0.221
36.8481 13.902 0.225
36.8647 13.643 0.223
36.8814 14.201 0.228
36.8980 14.252 0.228
36.9147 14.599 0.231
36.9313 14.774 0.232
36.9480 15.574 0.238
36.9646 15.870 0.241
36.9813 16.651 0.247
36.9979 17.702 0.254
37.0146 18.053 0.257
37.0312 16.815 0.248
37.0479 16.980 0.249
37.0645 16.479 0.245
37.0812 15.987 0.242
37.0978 16.162 0.243
37.1145 15.921 0.241
37.1311 15.731 0.240
37.1477 14.486 0.230
37.1644 14.347 0.229
37.1810 14.336 0.229
37.1977 14.201 0.228
37.2143 14.081 0.227
37.2310 13.942 0.226
37.2476 13.606 0.223
37.2643 13.544 0.222
37.2809 14.022 0.226
37.2976 13.803 0.224
37.3142 13.862 0.225
37.3309 13.486 0.222
37.3475 13.588 0.223
37.3642 13.643 0.223
37.3808 12.989 0.218
37.3975 13.738 0.224
37.4141 13.263 0.220
37.4308 13.124 0.219
37.4474 13.190 0.219
37.4641 13.073 0.218
37.4807 12.898 0.217
37.4974 13.048 0.218
37.5140 12.814 0.216
37.5307 12.814 0.216
37.5473 12.942 0.217
37.5640 12.840 0.217
37.5806 13.099 0.219
37.5973 12.679 0.215
37.6139 12.427 0.213
37.6305 13.157 0.219
37.6472 13.296 0.220
37.6638 13.048 0.218
37.6805 13.416 0.221
37.6971 12.792 0.216
37.7138 13.121 0.219
37.7304 12.935 0.217
37.7471 13.183 0.219
37.7637 12.920 0.217
37.7804 12.818 0.216
37.7970 13.431 0.221
37.8137 13.500 0.222
37.8303 13.267 0.220
37.8470 13.300 0.220
37.8636 13.665 0.223
37.8803 13.000 0.218
37.8969 13.778 0.224
37.9136 13.409 0.221
37.9302 13.259 0.220
37.9469 13.537 0.222
37.9635 13.515 0.222
37.9802 13.555 0.222
37.9968 13.165 0.219
38.0135 13.519 0.222
38.0301 13.241 0.220
38.0468 13.398 0.221
38.0634 13.982 0.226
38.0801 13.062 0.218
38.0967 13.497 0.222
38.1134 13.442 0.222
38.1300 12.971 0.218
38.1466 13.073 0.218
38.1633 13.088 0.219
38.1799 12.646 0.215
38.1966 13.135 0.219
38.2132 13.062 0.218
38.2299 12.672 0.215
38.2465 13.051 0.218
38.2632 13.135 0.219
38.2798 13.015 0.218
38.2965 12.978 0.218
38.3131 12.657 0.215
38.3298 12.763 0.216
38.3464 12.672 0.215
38.3631 12.723 0.216
38.3797 13.241 0.220
38.3964 12.858 0.217
38.4130 12.442 0.213
38.4297 12.496 0.214
38.4463 12.515 0.214
38.4630 12.847 0.217
38.4796 12.566 0.214
38.4963 12.719 0.215
38.5129 13.048 0.218
38.5296 12.774 0.216
38.5462 12.924 0.217
38.5629 13.073 0.218
38.5795 13.143 0.219
38.5962 12.869 0.217
38.6128 12.949 0.217
38.6294 12.632 0.215
38.6461 13.077 0.218
38.6627 12.577 0.214
38.6794 13.617 0.223
38.6960 13.307 0.220
38.7127 12.872 0.217
38.7293 12.814 0.216
38.7460 13.128 0.219
38.7626 12.997 0.218
38.7793 12.807 0.216
38.7959 13.040 0.218
38.8126 13.018 0.218
38.8292 12.745 0.216
38.8459 12.606 0.215
38.8625 13.022 0.218
38.8792 12.869 0.217
38.8958 13.201 0.220
38.9125 12.467 0.213
38.9291 12.715 0.215
38.9458 12.391 0.213
38.9624 12.511 0.214
38.9791 12.613 0.215
38.9957 12.840 0.217
39.0124 12.668 0.215
39.0290 12.829 0.216
39.0457 12.949 0.217
39.0623 12.843 0.217
39.0790 12.672 0.215
39.0956 12.876 0.217
39.1122 12.453 0.213
39.1289 13.066 0.218
39.1455 12.507 0.214
39.1622 13.095 0.219
39.1788 12.916 0.217
39.1955 12.675 0.215
39.2121 12.840 0.217
39.2288 12.694 0.215
39.2454 12.836 0.216
39.2621 12.569 0.214
39.2787 12.862 0.217
39.2954 12.982 0.218
39.3120 12.599 0.214
39.3287 12.409 0.213
39.3453 12.632 0.215
39.3620 12.690 0.215
39.3786 12.675 0.215
39.3953 12.529 0.214
39.4119 12.559 0.214
39.4286 12.449 0.213
39.4452 12.584 0.214
39.4619 12.562 0.214
39.4785 12.515 0.214
39.4952 12.781 0.216
39.5118 12.723 0.216
39.5285 12.814 0.216
39.5451 12.507 0.214
39.5618 12.646 0.215
39.5784 12.708 0.215
39.5950 12.778 0.216
39.6117 12.599 0.214
39.6283 13.051 0.218
39.6450 12.796 0.216
39.6616 12.697 0.215
39.6783 13.055 0.218
39.6949 12.467 0.213
39.7116 12.781 0.216
39.7282 12.902 0.217
39.7449 12.894 0.217
39.7615 12.621 0.215
39.7782 13.062 0.218
39.7948 12.734 0.216
39.8115 12.679 0.215
39.8281 13.040 0.218
39.8448 12.478 0.213
39.8614 12.420 0.213
39.8781 13.055 0.218
39.8947 12.624 0.215
39.9114 12.588 0.214
39.9280 12.708 0.215
39.9447 12.832 0.216
39.9613 12.617 0.215
39.9780 12.661 0.215
39.9946 12.201 0.211
40.0113 12.496 0.214
40.0279 12.606 0.215
40.0446 12.697 0.215
40.0612 12.785 0.216
40.0778 12.621 0.215
40.0945 12.478 0.213
40.1111 12.453 0.213
40.1278 12.088 0.210
40.1444 12.657 0.215
40.1611 12.610 0.215
40.1777 12.624 0.215
40.1944 12.434 0.213
40.2110 12.168 0.211
40.2277 12.416 0.213
40.2443 12.664 0.215
40.2610 12.336 0.212
40.2776 12.321 0.212
40.2943 12.723 0.216
40.3109 12.471 0.213
40.3276 13.073 0.218
40.3442 12.632 0.215
40.3609 12.522 0.214
40.3775 12.661 0.215
40.3942 12.544 0.214
40.4108 12.982 0.218
40.4275 12.602 0.214
40.4441 12.672 0.215
40.4608 12.778 0.216
40.4774 12.511 0.214
40.4941 12.606 0.215
40.5107 12.672 0.215
40.5274 12.927 0.217
40.5440 12.759 0.216
40.5607 12.653 0.215
40.5773 13.135 0.219
40.5939 13.172 0.219
40.6106 13.238 0.220
40.6272 12.851 0.217
40.6439 12.916 0.217
40.6605 13.212 0.220
40.6772 13.322 0.221
40.6938 13.329 0.221
40.7105 13.234 0.220
40.7271 13.526 0.222
40.7438 13.493 0.222
40.7604 13.712 0.224
40.7771 13.884 0.225
40.7937 14.022 0.226
40.8104 14.683 0.232
40.8270 14.983 0.234
40.8437 15.775 0.240
40.8603 15.450 0.237
40.8770 15.873 0.241
40.8936 16.089 0.242
40.9103 16.618 0.246
40.9269 16.819 0.248
40.9436 16.958 0.249
40.9602 17.064 0.250
40.9769 17.377 0.252
40.9935 17.509 0.253
41.0102 17.746 0.255
41.0268 17.721 0.254
41.0435 17.976 0.256
41.0601 17.837 0.255
41.0767 17.589 0.253
41.0934 17.513 0.253
41.1100 17.454 0.252
41.1267 16.881 0.248
41.1433 16.187 0.243
41.1600 16.081 0.242
41.1766 15.355 0.237
41.1933 15.556 0.238
41.2099 15.311 0.236
41.2266 14.720 0.232
41.2432 14.428 0.230
41.2599 14.234 0.228
41.2765 14.172 0.227
41.2932 13.588 0.223
41.3098 13.625 0.223
41.3265 13.354 0.221
41.3431 13.760 0.224
41.3598 13.405 0.221
41.3764 13.752 0.224
41.3931 13.110 0.219
41.4097 13.285 0.220
41.4264 13.635 0.223
41.4430 13.570 0.223
41.4597 13.712 0.224
41.4763 13.270 0.220
41.4930 13.650 0.223
41.5096 13.274 0.220
41.5263 13.351 0.221
41.5429 13.533 0.222
41.5595 13.044 0.218
41.5762 13.175 0.219
41.5928 12.938 0.217
41.6095 13.537 0.222
41.6261 13.555 0.222
41.6428 13.358 0.221
41.6594 13.599 0.223
41.6761 14.033 0.226
41.6927 14.052 0.226
41.7094 14.044 0.226
41.7260 14.574 0.231
41.7427 14.767 0.232
41.7593 14.559 0.231
41.7760 15.085 0.235
41.7926 15.278 0.236
41.8093 15.161 0.235
41.8259 16.173 0.243
41.8426 16.005 0.242
41.8592 16.384 0.245
41.8759 16.227 0.243
41.8925 16.392 0.245
41.9092 17.038 0.249
41.9258 16.600 0.246
41.9425 17.045 0.249
41.9591 16.961 0.249
41.9758 16.903 0.248
41.9924 17.425 0.252
42.0091 17.407 0.252
42.0257 17.012 0.249
42.0423 16.618 0.246
42.0590 16.421 0.245
42.0756 16.881 0.248
42.0923 16.958 0.249
42.1089 16.443 0.245
42.1256 16.560 0.246
42.1422 16.834 0.248
42.1589 16.614 0.246
42.1755 15.844 0.241
42.1922 15.680 0.239
42.2088 15.253 0.236
42.2255 15.384 0.237
42.2421 15.220 0.236
42.2588 14.734 0.232
42.2754 14.395 0.229
42.2921 14.351 0.229
42.3087 14.044 0.226
42.3254 13.763 0.224
42.3420 13.822 0.225
42.3587 14.026 0.226
42.3753 13.668 0.223
42.3920 13.687 0.224
42.4086 13.676 0.223
42.4253 13.380 0.221
42.4419 13.807 0.225
42.4586 13.391 0.221
42.4752 13.581 0.223
42.4919 13.405 0.221
42.5085 13.719 0.224
42.5251 13.380 0.221
42.5418 13.938 0.226
42.5584 13.738 0.224
42.5751 13.898 0.225
42.5917 13.687 0.224
42.6084 14.143 0.227
42.6250 14.231 0.228
42.6417 14.311 0.229
42.6583 14.669 0.231
42.6750 14.851 0.233
42.6916 14.910 0.233
42.7083 15.483 0.238
42.7249 15.381 0.237
42.7416 15.702 0.239
42.7582 15.928 0.241
42.7749 16.764 0.247
42.7915 17.074 0.250
42.8082 17.670 0.254
42.8248 18.224 0.258
42.8415 18.896 0.263
42.8581 20.389 0.273
42.8748 22.233 0.285
42.8914 25.566 0.306
42.9081 29.184 0.326
42.9247 35.591 0.360
42.9414 42.235 0.393
42.9580 50.402 0.429
42.9747 55.170 0.449
42.9913 55.560 0.450
43.0080 51.333 0.433
43.0246 45.170 0.406
43.0412 40.059 0.382
43.0579 38.752 0.376
43.0745 38.990 0.377
43.0912 38.420 0.375
43.1078 36.902 0.367
43.1245 32.305 0.343
43.1411 26.953 0.314
43.1578 23.606 0.294
43.1744 20.959 0.277
43.1911 19.269 0.265
43.2077 18.224 0.258
43.2244 17.611 0.254
43.2410 16.574 0.246
43.2577 15.932 0.241
43.2743 15.917 0.241
43.2910 15.198 0.236
43.3076 14.994 0.234
43.3243 14.972 0.234
43.3409 14.150 0.227
43.3576 14.398 0.229
43.3742 14.669 0.231
43.3909 14.150 0.227
43.4075 14.807 0.233
43.4242 14.136 0.227
43.4408 14.139 0.227
43.4575 14.618 0.231
43.4741 14.406 0.229
43.4908 14.194 0.228
43.5074 14.336 0.229
43.5240 14.216 0.228
43.5407 14.289 0.228
43.5573 14.388 0.229
43.5740 14.128 0.227
43.5906 14.209 0.228
43.6073 13.884 0.225
43.6239 14.037 0.226
43.6406 13.661 0.223
43.6572 13.869 0.225
43.6739 14.052 0.226
43.6905 13.789 0.224
43.7072 14.001 0.226
43.7238 14.077 0.227
43.7405 14.015 0.226
43.7571 13.964 0.226
43.7738 14.001 0.226
43.7904 14.409 0.229
43.8071 14.709 0.232
43.8237 14.665 0.231
43.8404 15.030 0.234
43.8570 15.421 0.237
43.8737 15.099 0.235
43.8903 15.483 0.238
43.9070 16.008 0.242
43.9236 16.585 0.246
43.9403 17.458 0.252
43.9569 17.611 0.254
43.9736 18.294 0.258
43.9902 18.911 0.263
44.0068 19.524 0.267
44.0235 20.320 0.272
44.0401 20.196 0.272
44.0568 20.857 0.276
44.0734 21.466 0.280
44.0901 21.857 0.282
44.1067 22.583 0.287
44.1234 22.441 0.286
44.1400 22.649 0.288
44.1567 22.708 0.288
44.1733 23.036 0.290
44.1900 23.131 0.291
44.2066 22.883 0.289
44.2233 22.996 0.290
44.2399 22.510 0.287
44.2566 22.010 0.283
44.2732 22.167 0.284
44.2899 21.189 0.278
44.3065 20.944 0.277
44.3232 20.546 0.274
44.3398 20.404 0.273
44.3565 19.999 0.270
44.3731 18.944 0.263
44.3898 18.524 0.260
44.4064 17.983 0.256
44.4231 17.783 0.255
44.4397 17.337 0.252
44.4564 16.987 0.249
44.4730 16.527 0.246
44.4896 16.096 0.242
44.5063 16.257 0.244
44.5229 15.545 0.238
44.5396 15.464 0.238
44.5562 14.731 0.232
44.5729 14.515 0.230
44.5895 14.461 0.230
44.6062 14.161 0.227
44.6228 14.103 0.227
44.6395 13.960 0.226
44.6561 13.643 0.223
44.6728 13.621 0.223
44.6894 13.603 0.223
44.7061 13.668 0.223
44.7227 13.446 0.222
44.7394 13.073 0.218
44.7560 13.106 0.219
44.7727 13.603 0.223
44.7893 12.876 0.217
44.8060 13.628 0.223
44.8226 13.048 0.218
44.8393 13.424 0.221
44.8559 13.157 0.219
44.8726 13.238 0.220
44.8892 12.993 0.218
44.9059 12.507 0.214
44.9225 12.690 0.215
44.9392 12.989 0.218
44.9558 12.248 0.211
44.9724 12.544 0.214
44.9891 12.953 0.217
45.0057 12.785 0.216
45.0224 12.496 0.214
45.0390 12.537 0.214
45.0557 12.672 0.215
45.0723 12.865 0.217
45.0890 13.051 0.218
45.1056 12.416 0.213
45.1223 12.464 0.213
45.1389 12.745 0.216
45.1556 12.343 0.212
45.1722 12.559 0.214
45.1889 12.193 0.211
45.2055 12.799 0.216
45.2222 12.796 0.216
45.2388 12.778 0.216
45.2555 12.259 0.212
45.2721 12.434 0.213
45.2888 12.960 0.218
45.3054 12.471 0.213
45.3221 12.577 0.214
45.3387 12.569 0.214
45.3554 12.405 0.213
45.3720 11.828 0.208
45.3887 12.555 0.214
45.4053 12.182 0.211
45.4220 12.456 0.213
45.4386 12.584 0.214
45.4553 12.759 0.216
45.4719 12.099 0.210
45.4885 12.566 0.214
45.5052 12.442 0.213
45.5218 12.642 0.215
45.5385 12.989 0.218
45.5551 12.726 0.216
45.5718 12.653 0.215
45.5884 12.664 0.215
45.6051 12.263 0.212
45.6217 12.752 0.216
45.6384 12.595 0.214
45.6550 12.584 0.214
45.6717 12.624 0.215
45.6883 12.748 0.216
45.7050 12.613 0.215
45.7216 12.672 0.215
45.7383 12.712 0.215
45.7549 12.719 0.215
45.7716 12.920 0.217
45.7882 12.708 0.215
45.8049 12.551 0.214
45.8215 12.807 0.216
45.8382 12.588 0.214
45.8548 12.296 0.212
45.8715 12.632 0.215
45.8881 12.610 0.215
45.9048 12.759 0.216
45.9214 12.905 0.217
45.9381 12.551 0.214
45.9547 12.799 0.216
45.9713 12.201 0.211
45.9880 12.708 0.215
46.0046 12.734 0.216
46.0213 12.894 0.217
46.0379 12.500 0.214
46.0546 12.799 0.216
46.0712 12.518 0.214
46.0879 12.715 0.215
46.1045 12.453 0.213
46.1212 12.383 0.213
46.1378 12.814 0.216
46.1545 12.624 0.215
46.1711 12.577 0.214
46.1878 12.967 0.218
46.2044 12.883 0.217
46.2211 12.460 0.213
46.2377 12.672 0.215
46.2544 12.588 0.214
46.2710 12.573 0.214
46.2877 12.960 0.218
46.3043 12.840 0.217
46.3210 13.256 0.220
46.3376 12.778 0.216
46.3543 12.858 0.217
46.3709 12.759 0.216
46.3876 12.883 0.217
46.4042 13.544 0.222
46.4209 13.033 0.218
46.4375 12.741 0.216
46.4541 12.865 0.217
46.4708 12.442 0.213
46.4874 12.748 0.216
46.5041 13.161 0.219
46.5207 13.033 0.218
46.5374 12.788 0.216
46.5540 13.238 0.220
46.5707 13.121 0.219
46.5873 12.854 0.217
46.6040 12.770 0.216
46.6206 13.132 0.219
46.6373 13.194 0.219
46.6539 12.763 0.216
46.6706 12.993 0.218
46.6872 13.143 0.219
46.7039 13.332 0.221
46.7205 13.457 0.222
46.7372 13.092 0.219
46.7538 13.008 0.218
46.7705 12.869 0.217
46.7871 13.599 0.223
46.8038 13.311 0.220
46.8204 13.975 0.226
46.8371 13.369 0.221
46.8537 13.705 0.224
46.8704 13.471 0.222
46.8870 14.077 0.227
46.9037 13.617 0.223
46.9203 14.037 0.226
46.9369 14.289 0.228
46.9536 14.307 0.229
46.9702 14.891 0.233
46.9869 15.136 0.235
47.0035 15.651 0.239
47.0202 15.775 0.240
47.0368 16.760 0.247
47.0535 17.593 0.253
47.0701 18.221 0.258
47.0868 19.185 0.265
47.1034 19.969 0.270
47.1201 20.641 0.275
47.1367 22.218 0.285
47.1534 22.799 0.288
47.1700 23.317 0.292
47.1867 24.628 0.300
47.2033 25.665 0.306
47.2200 26.022 0.308
47.2366 26.585 0.312
47.2533 27.468 0.317
47.2699 28.056 0.320
47.2866 28.158 0.321
47.3032 27.771 0.318
47.3199 27.815 0.319
47.3365 28.253 0.321
47.3532 28.213 0.321
47.3698 28.487 0.322
47.3865 27.811 0.319
47.4031 28.056 0.320
47.4198 27.939 0.319
47.4364 27.866 0.319
47.4530 27.088 0.314
47.4697 26.647 0.312
47.4863 25.891 0.307
47.5030 26.212 0.309
47.5196 25.358 0.304
47.5363 24.332 0.298
47.5529 23.518 0.293
47.5696 22.861 0.289
47.5862 21.598 0.281
47.6029 20.824 0.276
47.6195 20.904 0.276
47.6362 19.849 0.269
47.6528 18.940 0.263
47.6695 18.305 0.259
47.6861 18.502 0.260
47.7028 17.644 0.254
47.7194 17.129 0.250
47.7361 17.034 0.249
47.7527 16.647 0.247
47.7694 16.264 0.244
47.7860 15.742 0.240
47.8027 16.206 0.243
47.8193 16.122 0.243
47.8360 15.216 0.236
47.8526 14.931 0.233
47.8693 15.388 0.237
47.8859 14.891 0.233
47.9026 14.325 0.229
47.9192 14.428 0.230
47.9358 14.384 0.229
47.9525 14.665 0.231
47.9691 14.114 0.227
47.9858 13.811 0.225
48.0024 13.781 0.224
48.0191 13.938 0.226
48.0357 13.285 0.220
48.0524 13.562 0.223
48.0690 13.530 0.222
48.0857 13.595 0.223
48.1023 14.066 0.227
48.1190 13.781 0.224
48.1356 13.822 0.225
48.1523 13.887 0.225
48.1689 13.960 0.226
48.1856 13.964 0.226
48.2022 14.398 0.229
48.2189 14.179 0.228
48.2355 14.585 0.231
48.2522 14.534 0.230
48.2688 14.504 0.230
48.2855 14.158 0.227
48.3021 14.468 0.230
48.3188 14.388 0.229
48.3354 14.501 0.230
48.3521 13.774 0.224
48.3687 14.676 0.231
48.3854 14.318 0.229
48.4020 14.329 0.229
48.4186 13.913 0.225
48.4353 13.997 0.226
48.4519 14.001 0.226
48.4686 13.756 0.224
48.4852 13.628 0.223
48.5019 13.829 0.225
48.5185 13.818 0.225
48.5352 13.745 0.224
48.5518 13.442 0.222
48.5685 13.625 0.223
48.5851 13.734 0.224
48.6018 13.559 0.222
48.6184 13.862 0.225
48.6351 13.168 0.219
48.6517 13.727 0.224
48.6684 13.387 0.221
48.6850 13.453 0.222
48.7017 13.895 0.225
48.7183 14.099 0.227
48.7350 13.913 0.225
48.7516 14.030 0.226
48.7683 13.924 0.225
48.7849 13.851 0.225
48.8016 14.826 0.233
48.8182 14.391 0.229
48.8349 14.592 0.231
48.8515 14.683 0.232
48.8682 14.899 0.233
48.8848 15.245 0.236
48.9014 15.088 0.235
48.9181 15.578 0.238
48.9347 15.267 0.236
48.9514 15.242 0.236
48.9680 15.636 0.239
48.9847 16.425 0.245
49.0013 16.487 0.245
49.0180 16.457 0.245
49.0346 16.081 0.242
49.0513 16.392 0.245
49.0679 16.490 0.245
49.0846 16.384 0.245
49.1012 15.870 0.241
49.1179 16.016 0.242
49.1345 16.220 0.243
49.1512 16.322 0.244
49.1678 16.191 0.243
49.1845 15.786 0.240
49.2011 15.987 0.242
49.2178 15.844 0.241
49.2344 15.282 0.236
49.2511 14.869 0.233
49.2677 14.972 0.234
49.2844 15.348 0.237
49.3010 14.983 0.234
49.3177 14.231 0.228
49.3343 14.621 0.231
49.3510 14.282 0.228
49.3676 14.249 0.228
49.3842 14.409 0.229
49.4009 13.427 0.221
49.4175 14.070 0.227
49.4342 13.632 0.223
49.4508 13.814 0.225
49.4675 13.771 0.224
49.4841 13.603 0.223
49.5008 13.887 0.225
49.5174 13.584 0.223
49.5341 13.687 0.224
49.5507 13.537 0.222
49.5674 13.559 0.222
49.5840 13.508 0.222
49.6007 13.391 0.221
49.6173 13.519 0.222
49.6340 13.672 0.223
49.6506 13.248 0.220
49.6673 14.041 0.226
49.6839 14.223 0.228
49.7006 13.665 0.223
49.7172 14.461 0.230
49.7339 14.143 0.227
49.7505 14.212 0.228
49.7672 14.764 0.232
49.7838 14.921 0.233
49.8005 15.004 0.234
49.8171 15.271 0.236
49.8338 15.129 0.235
49.8504 16.341 0.244
49.8671 16.016 0.242
49.8837 16.658 0.247
49.9003 16.140 0.243
49.9170 17.031 0.249
49.9336 17.673 0.254
49.9503 17.735 0.254
49.9669 17.440 0.252
49.9836 18.265 0.258
50.0002 18.422 0.259
50.0169 18.582 0.260
50.0335 18.319 0.259
50.0502 18.721 0.261
50.0668 19.225 0.265
50.0835 18.973 0.263
50.1001 19.411 0.266
50.1168 19.042 0.264
50.1334 19.334 0.266
50.1501 19.608 0.268
50.1667 19.418 0.266
50.1834 19.181 0.265
50.2000 18.947 0.263
50.2167 19.119 0.264
50.2333 18.746 0.262
50.2500 18.622 0.261
50.2666 17.764 0.255
50.2833 18.053 0.257
50.2999 17.852 0.255
50.3166 17.042 0.249
50.3332 16.454 0.245
50.3499 16.687 0.247
50.3665 15.658 0.239
50.3831 15.921 0.241
50.3998 15.381 0.237
50.4164 15.198 0.236
50.4331 14.811 0.233
50.4497 14.304 0.229
50.4664 14.669 0.231
50.4830 14.325 0.229
50.4997 14.052 0.226
50.5163 13.800 0.224
50.5330 13.395 0.221
50.5496 13.617 0.223
50.5663 13.245 0.220
50.5829 13.270 0.220
50.5996 13.486 0.222
50.6162 13.121 0.219
50.6329 12.883 0.217
50.6495 12.964 0.218
50.6662 13.365 0.221
50.6828 12.792 0.216
50.6995 13.084 0.219
50.7161 13.332 0.221
50.7328 13.033 0.218
50.7494 12.734 0.216
50.7661 13.059 0.218
50.7827 13.154 0.219
50.7994 12.894 0.217
50.8160 13.289 0.220
50.8327 12.880 0.217
50.8493 12.628 0.215
50.8659 13.157 0.219
50.8826 12.931 0.217
50.8992 13.227 0.220
50.9159 13.172 0.219
50.9325 13.274 0.220
50.9492 13.128 0.219
50.9658 13.398 0.221
50.9825 12.891 0.217
50.9991 12.602 0.214
51.0158 12.792 0.216
51.0324 12.872 0.217
51.0491 13.008 0.218
51.0657 13.183 0.219
51.0824 12.544 0.214
51.0990 13.004 0.218
51.1157 12.493 0.214
51.1323 13.238 0.220
51.1490 12.628 0.215
51.1656 12.829 0.216
51.1823 12.537 0.214
51.1989 12.778 0.216
51.2156 12.314 0.212
51.2322 12.650 0.215
51.2489 12.781 0.216
51.2655 12.336 0.212
51.2822 12.591 0.214
51.2988 12.796 0.216
51.3155 12.113 0.210
51.3321 12.277 0.212
51.3487 12.756 0.216
51.3654 12.639 0.215
51.3820 12.223 0.211
51.3987 12.588 0.214
51.4153 12.569 0.214
51.4320 12.690 0.215
51.4486 12.226 0.211
51.4653 11.814 0.208
51.4819 11.971 0.209
51.4986 12.263 0.212
51.5152 12.263 0.212
51.5319 12.515 0.214
51.5485 12.467 0.213
51.5652 11.894 0.208
51.5818 12.504 0.214
51.5985 12.245 0.211
51.6151 12.504 0.214
51.6318 12.566 0.214
51.6484 12.485 0.213
51.6651 12.336 0.212
51.6817 12.383 0.213
51.6984 12.741 0.216
51.7150 12.329 0.212
51.7317 12.281 0.212
51.7483 12.336 0.212
51.7650 12.223 0.211
51.7816 12.193 0.211
51.7983 12.350 0.212
51.8149 12.544 0.214
51.8315 12.288 0.212
51.8482 12.347 0.212
51.8648 12.365 0.212
51.8815 12.288 0.212
51.8981 12.274 0.212
51.9148 12.237 0.211
51.9314 12.621 0.215
51.9481 12.307 0.212
51.9647 12.449 0.213
51.9814 12.266 0.212
51.9980 12.577 0.214
52.0147 12.628 0.215
52.0313 12.398 0.213
52.0480 12.190 0.211
52.0646 12.376 0.213
52.0813 12.573 0.214
52.0979 12.223 0.211
52.1146 12.650 0.215
52.1312 12.566 0.214
52.1479 12.168 0.211
52.1645 12.234 0.211
52.1812 12.234 0.211
52.1978 12.307 0.212
52.2145 12.124 0.210
52.2311 12.117 0.210
52.2478 12.128 0.210
52.2644 12.475 0.213
52.2811 12.047 0.210
52.2977 12.778 0.216
52.3144 12.460 0.213
52.3310 12.091 0.210
52.3476 12.033 0.210
52.3643 12.394 0.213
52.3809 12.332 0.212
52.3976 12.537 0.214
52.4142 12.891 0.217
52.4309 12.496 0.214
52.4475 12.515 0.214
52.4642 12.719 0.215
52.4808 12.672 0.215
52.4975 12.880 0.217
52.5141 12.453 0.213
52.5308 12.788 0.216
52.5474 12.610 0.215
52.5641 13.117 0.219
52.5807 12.683 0.215
52.5974 12.785 0.216
52.6140 12.945 0.217
52.6307 12.675 0.215
52.6473 12.978 0.218
52.6640 12.661 0.215
52.6806 12.847 0.217
52.6973 12.712 0.215
52.7139 12.708 0.215
52.7306 12.781 0.216
52.7472 12.767 0.216
52.7639 12.865 0.217
52.7805 12.686 0.215
52.7972 12.690 0.215
52.8138 13.318 0.220
52.8304 13.384 0.221
52.8471 13.672 0.223
52.8637 13.997 0.226
52.8804 13.705 0.224
52.8970 13.778 0.224
52.9137 14.008 0.226
52.9303 14.088 0.227
52.9470 14.041 0.226
52.9636 14.621 0.231
52.9803 14.625 0.231
52.9969 14.515 0.230
53.0136 14.888 0.233
53.0302 14.603 0.231
53.0469 14.482 0.230
53.0635 14.811 0.233
53.0802 14.862 0.233
53.0968 15.213 0.236
53.1135 14.723 0.232
53.1301 15.001 0.234
53.1468 14.720 0.232
53.1634 14.260 0.228
53.1801 14.650 0.231
53.1967 14.479 0.230
53.2134 14.172 0.227
53.2300 14.490 0.230
53.2467 14.147 0.227
53.2633 13.895 0.225
53.2800 14.234 0.228
53.2966 13.508 0.222
53.3132 13.723 0.224
53.3299 13.522 0.222
53.3465 13.248 0.220
53.3632 12.971 0.218
53.3798 13.387 0.221
53.3965 12.927 0.217
53.4131 13.270 0.220
53.4298 12.865 0.217
53.4464 13.168 0.219
53.4631 12.799 0.216
53.4797 12.862 0.217
53.4964 12.365 0.212
53.5130 12.153 0.211
53.5297 12.245 0.211
53.5463 12.445 0.213
53.5630 12.588 0.214
53.5796 12.033 0.210
53.5963 12.467 0.213
53.6129 12.788 0.216
53.6296 12.073 0.210
53.6462 12.245 0.211
53.6629 12.299 0.212
53.6795 12.142 0.211
53.6962 12.602 0.214
53.7128 12.646 0.215
53.7295 12.409 0.213
53.7461 12.748 0.216
53.7628 12.288 0.212
53.7794 12.241 0.211
53.7960 12.646 0.215
53.8127 12.354 0.212
53.8293 12.555 0.214
53.8460 12.391 0.213
53.8626 12.124 0.210
53.8793 12.142 0.211
53.8959 12.518 0.214
53.9126 12.350 0.212
53.9292 12.485 0.213
53.9459 12.449 0.213
53.9625 12.383 0.213
53.9792 12.372 0.213
53.9958 12.781 0.216
54.0125 12.507 0.214
54.0291 12.489 0.214
54.0458 12.179 0.211
54.0624 11.923 0.209
54.0791 12.544 0.214
54.0957 12.325 0.212
54.1124 11.945 0.209
54.1290 12.482 0.213
54.1457 12.139 0.211
54.1623 12.599 0.214
54.1790 12.241 0.211
54.1956 12.102 0.210
54.2123 12.296 0.212
54.2289 12.423 0.213
54.2456 12.372 0.213
54.2622 12.066 0.210
54.2788 12.431 0.213
54.2955 12.325 0.212
54.3121 12.544 0.214
54.3288 12.533 0.214
54.3454 12.226 0.211
54.3621 12.197 0.211
54.3787 12.376 0.213
54.3954 12.460 0.213
54.4120 12.602 0.214
54.4287 12.354 0.212
54.4453 12.318 0.212
54.4620 12.361 0.212
54.4786 12.234 0.211
54.4953 12.201 0.211
54.5119 12.369 0.212
54.5286 12.475 0.213
54.5452 12.526 0.214
54.5619 12.288 0.212
54.5785 11.931 0.209
54.5952 12.420 0.213
54.6118 12.478 0.213
54.6285 12.303 0.212
54.6451 12.307 0.212
54.6618 11.887 0.208
54.6784 12.259 0.212
54.6951 12.215 0.211
54.7117 11.759 0.207
54.7284 12.347 0.212
54.7450 12.190 0.211
54.7617 12.190 0.211
54.7783 11.898 0.208
54.7949 12.161 0.211
54.8116 11.996 0.209
54.8282 12.580 0.214
54.8449 12.292 0.212
54.8615 12.336 0.212
54.8782 11.974 0.209
54.8948 12.175 0.211
54.9115 12.533 0.214
54.9281 12.442 0.213
54.9448 12.128 0.210
54.9614 11.741 0.207
54.9781 12.329 0.212
54.9947 12.109 0.210
55.0114 12.657 0.215
55.0280 12.106 0.210
55.0447 12.245 0.211
55.0613 12.464 0.213
55.0780 12.551 0.214
55.0946 12.051 0.210
55.1113 11.942 0.209
55.1279 12.128 0.210
55.1446 12.394 0.213
55.1612 12.274 0.212
55.1779 12.453 0.213
55.1945 12.270 0.212
55.2112 12.259 0.212
55.2278 12.705 0.215
55.2445 11.511 0.205
55.2611 11.872 0.208
55.2777 11.938 0.209
55.2944 12.467 0.213
55.3110 12.153 0.211
55.3277 12.069 0.210
55.3443 12.259 0.212
55.3610 12.569 0.214
55.3776 12.453 0.213
55.3943 12.522 0.214
55.4109 12.124 0.210
55.4276 12.004 0.209
55.4442 12.277 0.212
55.4609 12.274 0.212
55.4775 12.237 0.211
55.4942 12.668 0.215
55.5108 12.299 0.212
55.5275 12.318 0.212
55.5441 12.478 0.213
55.5608 12.752 0.216
55.5774 12.723 0.216
55.5941 12.580 0.214
55.6107 12.412 0.213
55.6274 12.686 0.215
55.6440 12.697 0.215
55.6607 12.434 0.213
55.6773 12.445 0.213
55.6940 12.478 0.213
55.7106 12.252 0.211
55.7273 12.869 0.217
55.7439 12.705 0.215
55.7605 12.931 0.217
55.7772 12.329 0.212
55.7938 12.599 0.214
55.8105 13.029 0.218
55.8271 12.964 0.218
55.8438 12.485 0.213
55.8604 12.632 0.215
55.8771 12.613 0.215
55.8937 12.770 0.216
55.9104 12.821 0.216
55.9270 12.263 0.212
55.9437 12.628 0.215
55.9603 12.555 0.214
55.9770 12.493 0.214
55.9936 13.102 0.219
56.0103 12.559 0.214
56.0269 12.650 0.215
56.0436 12.668 0.215
56.0602 12.712 0.215
56.0769 12.847 0.217
56.0935 12.588 0.214
56.1102 12.854 0.217
56.1268 12.131 0.210
56.1435 12.522 0.214
56.1601 12.847 0.217
56.1768 12.500 0.214
56.1934 12.456 0.213
56.2101 12.876 0.217
56.2267 12.639 0.215
56.2433 12.383 0.213
56.2600 12.402 0.213
56.2766 12.566 0.214
56.2933 12.442 0.213
56.3099 12.752 0.216
56.3266 12.537 0.214
56.3432 12.551 0.214
56.3599 12.555 0.214
56.3765 12.551 0.214
56.3932 12.500 0.214
56.4098 12.694 0.215
56.4265 12.274 0.212
56.4431 12.106 0.210
56.4598 12.350 0.212
56.4764 12.500 0.214
56.4931 12.394 0.213
56.5097 12.489 0.214
56.5264 12.248 0.211
56.5430 12.606 0.215
56.5597 12.299 0.212
56.5763 11.993 0.209
56.5930 12.369 0.212
56.6096 12.577 0.214
56.6263 12.339 0.212
56.6429 12.807 0.216
56.6596 12.332 0.212
56.6762 12.617 0.215
56.6929 12.339 0.212
56.7095 12.610 0.215
56.7261 12.683 0.215
56.7428 12.409 0.213
56.7594 12.255 0.212
56.7761 12.515 0.214
56.7927 12.588 0.214
56.8094 12.372 0.213
56.8260 12.438 0.213
56.8427 12.606 0.215
56.8593 12.245 0.211
56.8760 12.182 0.211
56.8926 12.628 0.215
56.9093 12.431 0.213
56.9259 12.599 0.214
56.9426 12.456 0.213
56.9592 12.299 0.212
56.9759 12.135 0.210
56.9925 12.705 0.215
57.0092 12.193 0.211
57.0258 12.109 0.210
57.0425 12.515 0.214
57.0591 12.548 0.214
57.0758 12.234 0.211
57.0924 12.325 0.212
57.1091 12.186 0.211
57.1257 12.314 0.212
57.1424 12.157 0.211
57.1590 12.478 0.213
57.1757 12.303 0.212
57.1923 12.767 0.216
57.2090 12.544 0.214
57.2256 12.449 0.213
57.2422 12.650 0.215
57.2589 12.694 0.215
57.2755 12.296 0.212
57.2922 12.745 0.216
57.3088 12.380 0.213
57.3255 12.303 0.212
57.3421 12.825 0.216
57.3588 12.321 0.212
57.3754 12.785 0.216
57.3921 12.573 0.214
57.4087 12.515 0.214
57.4254 12.281 0.212
57.4420 12.737 0.216
57.4587 12.653 0.215
57.4753 12.372 0.213
57.4920 12.913 0.217
57.5086 12.679 0.215
57.5253 12.862 0.217
57.5419 12.788 0.216
57.5586 12.752 0.216
57.5752 13.015 0.218
57.5919 13.062 0.218
57.6085 13.132 0.219
57.6252 12.851 0.217
57.6418 12.945 0.217
57.6585 12.788 0.216
57.6751 12.690 0.215
57.6918 13.095 0.219
57.7084 13.099 0.219
57.7250 12.821 0.216
57.7417 13.106 0.219
57.7583 13.270 0.220
57.7750 12.785 0.216
57.7916 12.770 0.216
57.8083 12.949 0.217
57.8249 13.475 0.222
57.8416 13.139 0.219
57.8582 13.037 0.218
57.8749 13.278 0.220
57.8915 12.872 0.217
57.9082 13.216 0.220
57.9248 13.051 0.218
57.9415 13.168 0.219
57.9581 13.409 0.221
57.9748 13.369 0.221
57.9914 13.077 0.218
58.0081 13.157 0.219
58.0247 13.208 0.220
58.0414 13.526 0.222
58.0580 13.343 0.221
58.0747 13.457 0.222
58.0913 13.478 0.222
58.1080 13.102 0.219
58.1246 13.329 0.221
58.1413 13.727 0.224
58.1579 13.493 0.222
58.1746 13.562 0.223
58.1912 13.420 0.221
58.2078 13.562 0.223
58.2245 14.106 0.227
58.2411 13.705 0.224
58.2578 13.818 0.225
58.2744 13.369 0.221
58.2911 13.719 0.224
58.3077 14.022 0.226
58.3244 14.132 0.227
58.3410 13.661 0.223
58.3577 14.234 0.228
58.3743 14.380 0.229
58.3910 14.727 0.232
58.4076 15.012 0.234
58.4243 15.315 0.236
58.4409 15.516 0.238
58.4576 15.508 0.238
58.4742 15.523 0.238
58.4909 16.209 0.243
58.5075 16.596 0.246
58.5242 16.644 0.246
58.5408 17.191 0.251
58.5575 17.531 0.253
58.5741 16.928 0.249
58.5908 17.867 0.255
58.6074 18.005 0.256
58.6241 17.845 0.255
58.6407 18.381 0.259
58.6574 18.071 0.257
58.6740 18.122 0.257
58.6906 18.265 0.258
58.7073 18.363 0.259
58.7239 18.458 0.260
58.7406 18.056 0.257
58.7572 17.969 0.256
58.7739 18.166 0.258
58.7905 17.859 0.255
58.8072 17.659 0.254
58.8238 16.834 0.248
58.8405 17.137 0.250
58.8571 17.396 0.252
58.8738 16.760 0.247
58.8904 16.607 0.246
58.9071 16.450 0.245
58.9237 15.680 0.239
58.9404 15.643 0.239
58.9570 15.877 0.241
58.9737 15.651 0.239
58.9903 15.271 0.236
59.0070 15.523 0.238
59.0236 15.234 0.236
59.0403 14.826 0.233
59.0569 14.957 0.234
59.0736 14.983 0.234
59.0902 14.731 0.232
59.1069 15.464 0.238
59.1235 15.004 0.234
59.1402 15.008 0.234
59.1568 15.611 0.239
59.1734 15.121 0.235
59.1901 15.099 0.235
59.2067 15.545 0.238
59.2234 15.121 0.235
59.2400 15.629 0.239
59.2567 15.362 0.237
59.2733 15.329 0.237
59.2900 16.001 0.242
59.3066 15.337 0.237
59.3233 15.359 0.237
59.3399 15.348 0.237
59.3566 15.475 0.238
59.3732 15.249 0.236
59.3899 15.782 0.240
59.4065 15.395 0.237
59.4232 16.005 0.242
59.4398 14.848 0.233
59.4565 15.096 0.235
59.4731 15.041 0.234
59.4898 14.913 0.233
59.5064 14.450 0.230
59.5231 14.946 0.234
59.5397 14.333 0.229
59.5564 14.431 0.230
59.5730 15.118 0.235
59.5897 14.826 0.233
59.6063 14.497 0.230
59.6230 14.829 0.233
59.6396 14.577 0.231
59.6563 14.628 0.231
59.6729 14.603 0.231
59.6895 14.680 0.231
59.7062 14.154 0.227
59.7228 14.712 0.232
59.7395 14.570 0.231
59.7561 14.807 0.233
59.7728 14.475 0.230
59.7894 14.231 0.228
59.8061 14.618 0.231
59.8227 14.515 0.230
59.8394 14.548 0.230
59.8560 14.329 0.229
59.8727 14.471 0.230
59.8893 15.048 0.234
59.9060 14.811 0.233
59.9226 14.723 0.232
59.9393 15.154 0.235
59.9559 15.202 0.236
59.9726 15.647 0.239
59.9892 15.234 0.236
60.0059 15.245 0.236
60.0225 15.567 0.238
60.0392 16.151 0.243
60.0558 16.067 0.242
60.0725 16.355 0.244
60.0891 16.063 0.242
60.1058 16.428 0.245
60.1224 15.910 0.241
60.1391 16.461 0.245
60.1557 17.082 0.250
60.1723 16.994 0.249
60.1890 17.348 0.252
60.2056 17.162 0.250
60.2223 16.355 0.244
60.2389 16.687 0.247
60.2556 16.669 0.247
60.2722 17.213 0.251
60.2889 16.023 0.242
60.3055 16.530 0.246
60.3222 16.443 0.245
60.3388 16.640 0.246
60.3555 16.596 0.246
60.3721 16.622 0.246
60.3888 16.081 0.242
60.4054 16.454 0.245
60.4221 16.122 0.243
60.4387 16.271 0.244
60.4554 16.144 0.243
60.4720 16.023 0.242
60.4887 15.724 0.240
60.5053 15.892 0.241
60.5220 15.899 0.241
60.5386 15.935 0.241
60.5553 15.673 0.239
60.5719 15.643 0.239
60.5886 15.665 0.239
60.6052 15.811 0.240
60.6219 15.519 0.238
60.6385 15.340 0.237
60.6551 15.205 0.236
60.6718 15.329 0.237
60.6884 14.979 0.234
60.7051 14.986 0.234
60.7217 15.264 0.236
60.7384 14.877 0.233
60.7550 15.030 0.234
60.7717 14.866 0.233
60.7883 14.851 0.233
60.8050 14.877 0.233
60.8216 14.848 0.233
60.8383 14.618 0.231
60.8549 14.636 0.231
60.8716 14.691 0.232
60.8882 14.734 0.232
60.9049 14.544 0.230
60.9215 14.391 0.229
60.9382 14.212 0.228
60.9548 14.727 0.232
60.9715 14.150 0.227
60.9881 14.742 0.232
61.0048 14.161 0.227
61.0214 14.555 0.231
61.0381 14.147 0.227
61.0547 14.669 0.231
61.0714 14.848 0.233
61.0880 14.238 0.228
61.1047 13.968 0.226
61.1213 14.168 0.227
61.1379 14.077 0.227
61.1546 13.595 0.223
61.1712 13.749 0.224
61.1879 13.690 0.224
61.2045 14.008 0.226
61.2212 14.030 0.226
61.2378 13.643 0.223
61.2545 13.646 0.223
61.2711 14.121 0.227
61.2878 13.457 0.222
61.3044 13.610 0.223
61.3211 13.902 0.225
61.3377 13.880 0.225
61.3544 13.971 0.226
61.3710 13.873 0.225
61.3877 14.231 0.228
61.4043 13.946 0.226
61.4210 14.552 0.230
61.4376 14.398 0.229
61.4543 14.377 0.229
61.4709 14.351 0.229
61.4876 14.030 0.226
61.5042 14.340 0.229
61.5209 14.187 0.228
61.5375 14.453 0.230
61.5542 14.307 0.229
61.5708 14.106 0.227
61.5875 14.548 0.230
61.6041 14.406 0.229
61.6207 14.778 0.232
61.6374 14.121 0.227
61.6540 14.475 0.230
61.6707 14.136 0.227
61.6873 14.614 0.231
61.7040 15.048 0.234
61.7206 14.833 0.233
61.7373 14.493 0.230
61.7539 14.862 0.233
61.7706 14.665 0.231
61.7872 14.340 0.229
61.8039 14.475 0.230
61.8205 14.804 0.232
61.8372 14.913 0.233
61.8538 14.293 0.228
61.8705 14.402 0.229
61.8871 14.614 0.231
61.9038 14.490 0.230
61.9204 14.373 0.229
61.9371 13.986 0.226
61.9537 14.209 0.228
61.9704 15.001 0.234
61.9870 14.497 0.230
62.0037 14.300 0.228
62.0203 14.508 0.230
62.0370 14.231 0.228
62.0536 14.694 0.232
62.0703 14.373 0.229
62.0869 14.734 0.232
62.1036 14.599 0.231
62.1202 14.552 0.230
62.1368 15.172 0.235
62.1535 14.869 0.233
62.1701 14.767 0.232
62.1868 15.643 0.239
62.2034 15.651 0.239
62.2201 16.487 0.245
62.2367 17.264 0.251
62.2534 18.177 0.258
62.2700 19.181 0.265
62.2867 21.185 0.278
62.3033 23.547 0.293
62.3200 25.829 0.307
62.3366 29.078 0.326
62.3533 30.684 0.335
62.3699 31.425 0.339
62.3866 28.432 0.322
62.4032 25.654 0.306
62.4199 23.149 0.291
62.4365 21.477 0.280
62.4532 21.503 0.280
62.4698 21.065 0.277
62.4865 21.123 0.278
62.5031 22.324 0.285
62.5198 23.073 0.290
62.5364 23.087 0.290
62.5531 22.503 0.287
62.5697 19.980 0.270
62.5864 18.582 0.260
62.6030 17.137 0.250
62.6196 16.352 0.244
62.6363 15.625 0.239
62.6529 15.191 0.235
62.6696 14.910 0.233
62.6862 14.723 0.232
62.7029 14.818 0.233
62.7195 14.026 0.226
62.7362 13.705 0.224
62.7528 13.245 0.220
62.7695 13.468 0.222
62.7861 13.278 0.220
62.8028 13.380 0.221
62.8194 12.956 0.217
62.8361 13.562 0.223
62.8527 13.197 0.219
62.8694 12.748 0.216
62.8860 12.989 0.218
62.9027 12.931 0.217
62.9193 12.902 0.217
62.9360 12.785 0.216
62.9526 12.986 0.218
62.9693 12.869 0.217
62.9859 12.445 0.213
63.0026 12.672 0.215
63.0192 12.862 0.217
63.0359 12.372 0.213
63.0525 12.559 0.214
63.0692 12.621 0.215
63.0858 12.241 0.211
63.1024 12.610 0.215
63.1191 12.259 0.212
63.1357 12.358 0.212
63.1524 12.617 0.215
63.1690 12.412 0.213
63.1857 12.624 0.215
63.2023 12.533 0.214
63.2190 12.354 0.212
63.2356 12.402 0.213
63.2523 12.226 0.211
63.2689 12.350 0.212
63.2856 13.113 0.219
63.3022 12.456 0.213
63.3189 12.639 0.215
63.3355 12.398 0.213
63.3522 12.142 0.211
63.3688 12.810 0.216
63.3855 12.325 0.212
63.4021 12.394 0.213
63.4188 12.325 0.212
63.4354 12.504 0.214
63.4521 12.701 0.215
63.4687 12.431 0.213
63.4854 12.588 0.214
63.5020 12.208 0.211
63.5187 12.712 0.215
63.5353 12.507 0.214
63.5520 12.683 0.215
63.5686 12.416 0.213
63.5852 12.814 0.216
63.6019 12.967 0.218
63.6185 12.712 0.215
63.6352 12.329 0.212
63.6518 12.675 0.215
63.6685 12.066 0.210
63.6851 12.767 0.216
63.7018 12.405 0.213
63.7184 12.387 0.213
63.7351 12.478 0.213
63.7517 12.821 0.216
63.7684 12.526 0.214
63.7850 12.318 0.212
63.8017 12.573 0.214
63.8183 12.730 0.216
63.8350 12.504 0.214
63.8516 12.843 0.217
63.8683 12.580 0.214
63.8849 12.460 0.213
63.9016 12.986 0.218
63.9182 12.296 0.212
63.9349 12.529 0.214
63.9515 13.008 0.218
63.9682 12.986 0.218
63.9848 12.869 0.217
64.0015 12.818 0.216
64.0181 13.004 0.218
64.0348 12.745 0.216
64.0514 13.216 0.220
64.0681 13.117 0.219
64.0847 13.332 0.221
64.1013 13.238 0.220
64.1180 13.292 0.220
64.1346 13.270 0.220
64.1513 13.175 0.219
64.1679 13.186 0.219
64.1846 13.497 0.222
64.2012 13.657 0.223
64.2179 13.387 0.221
64.2345 13.427 0.221
64.2512 13.311 0.220
64.2678 13.701 0.224
64.2845 12.978 0.218
64.3011 13.380 0.221
64.3178 13.617 0.223
64.3344 13.270 0.220
64.3511 13.398 0.221
64.3677 13.110 0.219
64.3844 13.318 0.220
64.4010 12.978 0.218
64.4177 12.894 0.217
64.4343 12.865 0.217
64.4510 13.281 0.220
64.4676 13.307 0.220
64.4843 12.672 0.215
64.5009 12.664 0.215
64.5176 13.362 0.221
64.5342 13.238 0.220
64.5509 12.785 0.216
64.5675 12.683 0.215
64.5841 12.909 0.217
64.6008 12.854 0.217
64.6174 12.967 0.218
64.6341 12.942 0.217
64.6507 12.661 0.215
64.6674 12.971 0.218
64.6840 12.464 0.213
64.7007 12.617 0.215
64.7173 12.902 0.217
64.7340 12.624 0.215
64.7506 12.442 0.213
64.7673 12.274 0.212
64.7839 12.639 0.215
64.8006 12.613 0.215
64.8172 12.788 0.216
64.8339 12.077 0.210
64.8505 12.810 0.216
64.8672 12.460 0.213
64.8838 12.423 0.213
64.9005 12.712 0.215
64.9171 12.288 0.212
64.9338 12.562 0.214
64.9504 11.901 0.208
64.9671 12.204 0.211
64.9837 11.942 0.209
65.0004 12.255 0.212
65.0170 12.318 0.212
65.0337 12.248 0.211
65.0503 12.588 0.214
65.0669 12.226 0.211
65.0836 12.329 0.212
65.1002 12.296 0.212
65.1169 12.708 0.215
65.1335 12.281 0.212
65.1502 11.978 0.209
65.1668 12.449 0.213
65.1835 11.781 0.207
65.2001 12.518 0.214
65.2168 12.310 0.212
65.2334 12.661 0.215
65.2501 12.690 0.215
65.2667 12.219 0.211
65.2834 12.537 0.214
65.3000 12.197 0.211
65.3167 12.354 0.212
65.3333 12.445 0.213
65.3500 12.453 0.213
65.3666 12.427 0.213
65.3833 12.464 0.213
65.3999 12.851 0.217
65.4166 12.402 0.213
65.4332 12.657 0.215
65.4499 12.329 0.212
65.4665 12.533 0.214
65.4832 12.748 0.216
65.4998 12.427 0.213
65.5165 12.635 0.215
65.5331 12.405 0.213
65.5497 12.807 0.216
65.5664 12.690 0.215
65.5830 12.792 0.216
65.5997 13.270 0.220
65.6163 13.296 0.220
65.6330 13.351 0.221
65.6496 13.376 0.221
65.6663 12.807 0.216
65.6829 12.993 0.218
65.6996 13.124 0.219
65.7162 13.537 0.222
65.7329 13.497 0.222
65.7495 13.256 0.220
65.7662 13.398 0.221
65.7828 13.595 0.223
65.7995 13.898 0.225
65.8161 13.442 0.222
65.8328 13.402 0.221
65.8494 13.468 0.222
65.8661 13.771 0.224
65.8827 13.771 0.224
65.8994 13.694 0.224
65.9160 13.895 0.225
65.9327 13.760 0.224
65.9493 13.760 0.224
65.9660 13.909 0.225
65.9826 13.749 0.224
65.9993 13.665 0.223
66.0159 14.092 0.227
66.0325 14.161 0.227
66.0492 13.730 0.224
66.0658 13.230 0.220
66.0825 13.577 0.223
66.0991 13.248 0.220
66.1158 12.931 0.217
66.1324 13.245 0.220
66.1491 13.186 0.219
66.1657 13.190 0.219
66.1824 13.292 0.220
66.1990 12.953 0.217
66.2157 13.216 0.220
66.2323 12.935 0.217
66.2490 12.891 0.217
66.2656 12.876 0.217
66.2823 12.577 0.214
66.2989 12.898 0.217
66.3156 12.865 0.217
66.3322 12.588 0.214
66.3489 12.734 0.216
66.3655 12.935 0.217
66.3822 12.807 0.216
66.3988 12.420 0.213
66.4155 12.369 0.212
66.4321 12.489 0.214
66.4488 12.767 0.216
66.4654 12.226 0.211
66.4821 12.734 0.216
66.4987 12.416 0.213
66.5154 12.507 0.214
66.5320 12.657 0.215
66.5486 12.387 0.213
66.5653 12.591 0.214
66.5819 12.314 0.212
66.5986 12.369 0.212
66.6152 12.617 0.215
66.6319 12.584 0.214
66.6485 12.880 0.217
66.6652 12.719 0.215
66.6818 12.544 0.214
66.6985 12.412 0.213
66.7151 12.453 0.213
66.7318 12.504 0.214
66.7484 12.259 0.212
66.7651 12.234 0.211
66.7817 12.449 0.213
66.7984 12.051 0.210
66.8150 12.467 0.213
66.8317 12.372 0.213
66.8483 12.423 0.213
66.8650 12.610 0.215
66.8816 12.412 0.213
66.8983 12.347 0.212
66.9149 12.810 0.216
66.9316 12.876 0.217
66.9482 12.613 0.215
66.9649 12.369 0.212
66.9815 12.909 0.217
66.9982 12.380 0.213
67.0148 12.683 0.215
67.0314 13.205 0.220
67.0481 12.715 0.215
67.0647 13.365 0.221
67.0814 12.913 0.217
67.0980 13.081 0.219
67.1147 12.810 0.216
67.1313 12.997 0.218
67.1480 12.993 0.218
67.1646 13.489 0.222
67.1813 12.799 0.216
67.1979 13.135 0.219
67.2146 12.836 0.216
67.2312 13.077 0.218
67.2479 13.526 0.222
67.2645 13.183 0.219
67.2812 13.373 0.221
67.2978 13.478 0.222
67.3145 13.610 0.223
67.3311 13.497 0.222
67.3478 13.329 0.221
67.3644 13.365 0.221
67.3811 13.391 0.221
67.3977 13.435 0.221
67.4144 13.676 0.223
67.4310 13.245 0.220
67.4477 13.570 0.223
67.4643 13.741 0.224
67.4810 13.997 0.226
67.4976 13.964 0.226
67.5142 13.566 0.223
67.5309 13.661 0.223
67.5475 13.734 0.224
67.5642 13.716 0.224
67.5808 13.807 0.225
67.5975 13.245 0.220
67.6141 13.705 0.224
67.6308 13.796 0.224
67.6474 13.555 0.222
67.6641 13.486 0.222
67.6807 13.533 0.222
67.6974 13.745 0.224
67.7140 13.603 0.223
67.7307 13.734 0.224
67.7473 13.278 0.220
67.7640 13.398 0.221
67.7806 13.855 0.225
67.7973 13.384 0.221
67.8139 13.300 0.220
67.8306 13.230 0.220
67.8472 13.011 0.218
67.8639 13.369 0.221
67.8805 12.752 0.216
67.8972 13.263 0.220
67.9138 12.891 0.217
67.9305 13.212 0.220
67.9471 13.150 0.219
67.9638 13.077 0.218
67.9804 12.475 0.213
67.9970 13.048 0.218
68.0137 12.577 0.214
68.0303 12.902 0.217
68.0470 12.781 0.216
68.0636 12.872 0.217
68.0803 12.416 0.213
68.0969 12.770 0.216
68.1136 12.372 0.213
68.1302 12.664 0.215
68.1469 12.580 0.214
68.1635 12.646 0.215
68.1802 13.201 0.220
68.1968 12.770 0.216
68.2135 12.423 0.213
68.2301 12.580 0.214
68.2468 12.566 0.214
68.2634 12.230 0.211
68.2801 12.657 0.215
68.2967 12.434 0.213
68.3134 12.551 0.214
68.3300 12.515 0.214
68.3467 12.467 0.213
68.3633 12.438 0.213
68.3800 12.456 0.213
68.3966 12.372 0.213
68.4133 12.902 0.217
68.4299 12.482 0.213
68.4466 12.902 0.217
68.4632 12.807 0.216
68.4798 12.580 0.214
68.4965 12.935 0.217
68.5131 12.343 0.212
68.5298 12.814 0.216
68.5464 12.449 0.213
68.5631 12.485 0.213
68.5797 12.810 0.216
68.5964 12.511 0.214
68.6130 12.883 0.217
68.6297 13.332 0.221
68.6463 13.157 0.219
68.6630 12.748 0.216
68.6796 13.157 0.219
68.6963 13.008 0.218
68.7129 13.438 0.221
68.7296 13.000 0.218
68.7462 13.478 0.222
68.7629 13.493 0.222
68.7795 13.241 0.220
68.7962 13.617 0.223
68.8128 13.478 0.222
68.8295 13.792 0.224
68.8461 13.902 0.225
68.8628 14.388 0.229
68.8794 13.325 0.221
68.8961 13.745 0.224
68.9127 13.807 0.225
68.9294 13.946 0.226
68.9460 13.807 0.225
68.9627 14.048 0.226
68.9793 13.683 0.224
68.9959 14.121 0.227
69.0126 13.957 0.226
69.0292 14.121 0.227
69.0459 14.004 0.226
69.0625 14.245 0.228
69.0792 13.840 0.225
69.0958 14.077 0.227
69.1125 14.260 0.228
69.1291 14.256 0.228
69.1458 14.092 0.227
69.1624 14.041 0.226
69.1791 13.957 0.226
69.1957 14.044 0.226
69.2124 14.070 0.227
69.2290 13.690 0.224
69.2457 14.066 0.227
69.2623 13.829 0.225
69.2790 14.022 0.226
69.2956 13.621 0.223
69.3123 13.541 0.222
69.3289 13.387 0.221
69.3456 13.281 0.220
69.3622 13.807 0.225
69.3789 13.150 0.219
69.3955 13.154 0.219
69.4122 13.511 0.222
69.4288 13.442 0.222
69.4455 13.489 0.222
69.4621 13.230 0.220
69.4787 12.945 0.217
69.4954 13.336 0.221
69.5120 13.212 0.220
69.5287 13.037 0.218
69.5453 13.508 0.222
69.5620 13.037 0.218
69.5786 13.040 0.218
69.5953 12.653 0.215
69.6119 12.829 0.216
69.6286 13.325 0.221
69.6452 12.953 0.217
69.6619 13.497 0.222
69.6785 13.336 0.221
69.6952 13.183 0.219
69.7118 13.920 0.225
69.7285 13.201 0.220
69.7451 13.143 0.219
69.7618 13.632 0.223
69.7784 13.617 0.223
69.7951 13.562 0.223
69.8117 13.924 0.225
69.8284 13.639 0.223
69.8450 14.380 0.229
69.8617 13.694 0.224
69.8783 14.333 0.229
69.8950 13.716 0.224
69.9116 13.946 0.226
69.9283 14.340 0.229
69.9449 13.489 0.222
69.9615 13.960 0.226
69.9782 14.066 0.227
69.9948 13.957 0.226
70.0115 13.858 0.225
70.0281 13.391 0.221
70.0448 13.464 0.222
70.0614 13.840 0.225
70.0781 13.836 0.225
70.0947 14.209 0.228
70.1114 13.719 0.224
70.1280 13.632 0.223
70.1447 13.920 0.225
70.1613 13.749 0.224
70.1780 13.880 0.225
70.1946 13.865 0.225
70.2113 13.869 0.225
70.2279 13.548 0.222
70.2446 13.672 0.223
70.2612 13.577 0.223
70.2779 13.822 0.225
70.2945 13.303 0.220
70.3112 13.606 0.223
70.3278 13.573 0.223
70.3445 13.500 0.222
70.3611 13.632 0.223
70.3778 13.438 0.221
70.3944 13.424 0.221
70.4111 13.522 0.222
70.4277 13.603 0.223
70.4443 13.807 0.225
70.4610 13.672 0.223
70.4776 13.566 0.223
70.4943 13.504 0.222
70.5109 13.621 0.223
70.5276 13.800 0.224
70.5442 13.668 0.223
70.5609 14.001 0.226
70.5775 13.643 0.223
70.5942 13.778 0.224
70.6108 13.687 0.224
70.6275 13.186 0.219
70.6441 13.197 0.219
70.6608 13.070 0.218
70.6774 13.734 0.224
70.6941 13.227 0.220
70.7107 13.833 0.225
70.7274 13.449 0.222
70.7440 13.679 0.223
70.7607 13.727 0.224
70.7773 13.617 0.223
70.7940 13.384 0.221
70.8106 13.427 0.221
70.8273 13.603 0.223
70.8439 13.844 0.225
70.8606 13.343 0.221
70.8772 13.380 0.221
70.8939 13.420 0.221
70.9105 13.402 0.221
70.9271 13.876 0.225
70.9438 13.687 0.224
70.9604 13.829 0.225
70.9771 13.887 0.225
70.9937 13.873 0.225
71.0104 14.420 0.229
71.0270 14.362 0.229
71.0437 14.446 0.230
71.0603 14.139 0.227
71.0770 14.647 0.231
71.0936 14.409 0.229
71.1103 14.880 0.233
71.1269 14.928 0.233
71.1436 15.136 0.235
71.1602 15.169 0.235
71.1769 15.088 0.235
71.1935 14.840 0.233
71.2102 14.972 0.234
71.2268 14.738 0.232
71.2435 15.260 0.236
71.2601 14.822 0.233
71.2768 15.304 0.236
71.2934 15.216 0.236
71.3101 15.220 0.236
71.3267 15.202 0.236
71.3434 14.986 0.234
71.3600 15.227 0.236
71.3767 15.632 0.239
71.3933 15.377 0.237
71.4100 15.388 0.237
71.4266 15.048 0.234
71.4432 14.774 0.232
71.4599 15.282 0.236
71.4765 14.899 0.233
71.4932 15.019 0.234
71.5098 14.796 0.232
71.5265 14.727 0.232
71.5431 15.472 0.238
71.5598 15.125 0.235
71.5764 14.439 0.230
71.5931 14.807 0.233
71.6097 14.544 0.230
71.6264 14.176 0.227
71.6430 14.482 0.230
71.6597 13.727 0.224
71.6763 14.110 0.227
71.6930 13.643 0.223
71.7096 14.092 0.227
71.7263 13.811 0.225
71.7429 14.070 0.227
71.7596 13.687 0.224
71.7762 13.679 0.223
71.7929 13.468 0.222
71.8095 13.387 0.221
71.8262 13.000 0.218
71.8428 13.259 0.220
71.8595 13.267 0.220
71.8761 13.208 0.220
71.8928 13.223 0.220
71.9094 12.781 0.216
71.9260 13.102 0.219
71.9427 12.997 0.218
71.9593 13.000 0.218
71.9760 12.533 0.214
71.9926 12.723 0.216
72.0093 12.613 0.215
72.0259 12.573 0.214
72.0426 12.456 0.213
72.0592 12.573 0.214
72.0759 12.475 0.213
72.0925 12.599 0.214
72.1092 12.796 0.216
72.1258 12.555 0.214
72.1425 12.869 0.217
72.1591 12.259 0.212
72.1758 12.186 0.211
72.1924 12.737 0.216
72.2091 12.460 0.213
72.2257 12.475 0.213
72.2424 12.029 0.210
72.2590 12.412 0.213
72.2757 12.588 0.214
72.2923 12.409 0.213
72.3090 12.029 0.210
72.3256 12.310 0.212
72.3423 12.223 0.211
72.3589 12.851 0.217
72.3756 12.398 0.213
72.3922 12.369 0.212
72.4088 11.989 0.209
72.4255 12.266 0.212
72.4421 12.350 0.212
72.4588 12.533 0.214
72.4754 12.299 0.212
72.4921 12.069 0.210
72.5087 12.420 0.213
72.5254 12.292 0.212
72.5420 11.832 0.208
72.5587 12.391 0.213
72.5753 12.737 0.216
72.5920 11.927 0.209
72.6086 12.190 0.211
72.6253 12.004 0.209
72.6419 11.938 0.209
72.6586 12.212 0.211
72.6752 12.427 0.213
72.6919 11.967 0.209
72.7085 11.839 0.208
72.7252 12.088 0.210
72.7418 12.131 0.210
72.7585 12.128 0.210
72.7751 12.062 0.210
72.7918 12.394 0.213
72.8084 12.139 0.211
72.8251 12.066 0.210
72.8417 11.872 0.208
72.8584 12.113 0.210
72.8750 11.719 0.207
72.8916 12.109 0.210
72.9083 11.894 0.208
72.9249 11.836 0.208
72.9416 11.456 0.205
72.9582 12.412 0.213
72.9749 12.091 0.210
72.9915 12.318 0.212
73.0082 12.102 0.210
73.0248 11.701 0.207
73.0415 12.237 0.211
73.0581 12.544 0.214
73.0748 12.047 0.210
73.0914 11.938 0.209
73.1081 12.047 0.210
73.1247 12.193 0.211
73.1414 12.369 0.212
73.1580 12.445 0.213
73.1747 12.358 0.212
73.1913 12.274 0.212
73.2080 12.245 0.211
73.2246 12.168 0.211
73.2413 12.394 0.213
73.2579 12.314 0.212
73.2746 12.077 0.210
73.2912 12.442 0.213
73.3079 12.066 0.210
73.3245 12.380 0.213
73.3412 11.876 0.208
73.3578 12.212 0.211
73.3744 12.062 0.210
73.3911 12.350 0.212
73.4077 11.832 0.208
73.4244 11.927 0.209
73.4410 12.234 0.211
73.4577 12.274 0.212
73.4743 12.241 0.211
73.4910 12.186 0.211
73.5076 12.168 0.211
73.5243 12.117 0.210
73.5409 12.175 0.211
73.5576 12.051 0.210
73.5742 12.255 0.212
73.5909 12.493 0.214
73.6075 11.887 0.208
73.6242 12.339 0.212
73.6408 11.858 0.208
73.6575 12.314 0.212
73.6741 12.332 0.212
73.6908 12.142 0.211
73.7074 12.460 0.213
73.7241 12.380 0.213
73.7407 12.248 0.211
73.7574 12.358 0.212
73.7740 12.409 0.213
73.7907 12.358 0.212
73.8073 12.186 0.211
73.8240 12.215 0.211
73.8406 12.252 0.211
73.8573 12.044 0.210
73.8739 11.905 0.208
73.8905 12.460 0.213
73.9072 12.420 0.213
73.9238 12.128 0.210
73.9405 12.485 0.213
73.9571 12.584 0.214
73.9738 12.201 0.211
73.9904 12.416 0.213
74.0071 12.212 0.211
74.0237 12.369 0.212
74.0404 12.500 0.214
74.0570 11.836 0.208
74.0737 12.197 0.211
74.0903 12.544 0.214
74.1070 12.416 0.213
74.1236 12.245 0.211
74.1403 12.416 0.213
74.1569 12.208 0.211
74.1736 12.241 0.211
74.1902 12.307 0.212
74.2069 12.245 0.211
74.2235 12.270 0.212
74.2402 11.978 0.209
74.2568 12.416 0.213
74.2735 12.661 0.215
74.2901 12.263 0.212
74.3068 12.172 0.211
74.3234 12.033 0.210
74.3401 11.942 0.209
74.3567 12.252 0.211
74.3733 12.124 0.210
74.3900 12.460 0.213
74.4066 12.500 0.214
74.4233 12.475 0.213
74.4399 12.548 0.214
74.4566 12.007 0.209
74.4732 11.909 0.209
74.4899 12.029 0.210
74.5065 12.632 0.215
74.5232 12.248 0.211
74.5398 12.577 0.214
74.5565 12.332 0.212
74.5731 12.456 0.213
74.5898 12.325 0.212
74.6064 12.591 0.214
74.6231 12.788 0.216
74.6397 13.004 0.218
74.6564 13.004 0.218
74.6730 13.676 0.223
74.6897 13.482 0.222
74.7063 13.705 0.224
74.7230 13.865 0.225
74.7396 14.216 0.228
74.7563 14.147 0.227
74.7729 13.734 0.224
74.7896 13.168 0.219
74.8062 13.059 0.218
74.8229 13.420 0.221
74.8395 12.569 0.214
74.8561 12.829 0.216
74.8728 12.420 0.213
74.8894 13.040 0.218
74.9061 13.179 0.219
74.9227 12.851 0.217
74.9394 13.194 0.219
74.9560 13.175 0.219
74.9727 13.227 0.220
74.9893 12.927 0.217
75.0060 12.610 0.215
75.0226 12.467 0.213
75.0393 12.398 0.213
75.0559 12.109 0.210
75.0726 12.336 0.212
75.0892 12.252 0.211
75.1059 11.916 0.209
75.1225 12.376 0.213
75.1392 11.785 0.207
75.1558 11.905 0.208
75.1725 12.942 0.217
75.1891 12.259 0.212
75.2058 12.161 0.211
75.2224 11.934 0.209
75.2391 12.299 0.212
75.2557 12.190 0.211
75.2724 11.989 0.209
75.2890 12.226 0.211
75.3057 11.635 0.206
75.3223 12.182 0.211
75.3389 12.197 0.211
75.3556 11.861 0.208
75.3722 12.062 0.210
75.3889 12.182 0.211
75.4055 11.850 0.208
75.4222 11.974 0.209
75.4388 11.839 0.208
75.4555 12.186 0.211
75.4721 12.150 0.211
75.4888 12.095 0.210
75.5054 11.861 0.208
75.5221 11.942 0.209
75.5387 11.770 0.207
75.5554 12.000 0.209
75.5720 12.270 0.212
75.5887 12.018 0.209
75.6053 11.945 0.209
75.6220 12.011 0.209
75.6386 12.128 0.210
75.6553 11.927 0.209
75.6719 12.179 0.211
75.6886 11.934 0.209
75.7052 11.982 0.209
75.7219 12.263 0.212
75.7385 12.157 0.211
75.7552 11.836 0.208
75.7718 11.682 0.207
75.7885 11.894 0.208
75.8051 11.763 0.207
75.8217 11.963 0.209
75.8384 11.949 0.209
75.8550 12.058 0.210
75.8717 12.562 0.214
75.8883 11.609 0.206
75.9050 12.197 0.211
75.9216 11.960 0.209
75.9383 12.146 0.211
75.9549 12.128 0.210
75.9716 12.168 0.211
75.9882 12.058 0.210
76.0049 12.047 0.210
76.0215 12.168 0.211
76.0382 11.989 0.209
76.0548 11.533 0.205
76.0715 11.949 0.209
76.0881 12.157 0.211
76.1048 12.077 0.210
76.1214 12.135 0.210
76.1381 12.285 0.212
76.1547 11.763 0.207
76.1714 11.562 0.205
76.1880 11.942 0.209
76.2047 12.124 0.210
76.2213 11.952 0.209
76.2380 11.890 0.208
76.2546 11.814 0.208
76.2713 12.084 0.210
76.2879 12.036 0.210
76.3046 11.828 0.208
76.3212 11.974 0.209
76.3378 12.420 0.213
76.3545 12.025 0.210
76.3711 12.091 0.210
76.3878 11.901 0.208
76.4044 11.540 0.205
76.4211 11.785 0.207
76.4377 12.004 0.209
76.4544 12.475 0.213
76.4710 11.847 0.208
76.4877 12.062 0.210
76.5043 12.179 0.211
76.5210 12.088 0.210
76.5376 11.887 0.208
76.5543 11.985 0.209
76.5709 12.263 0.212
76.5876 12.113 0.210
76.6042 11.817 0.208
76.6209 11.982 0.209
76.6375 12.131 0.210
76.6542 11.712 0.207
76.6708 11.733 0.207
76.6875 11.905 0.208
76.7041 12.347 0.212
76.7208 12.172 0.211
76.7374 11.934 0.209
76.7541 12.562 0.214
76.7707 12.146 0.211
76.7874 11.993 0.209
76.8040 11.927 0.209
76.8206 12.033 0.210
76.8373 11.821 0.208
76.8539 11.861 0.208
76.8706 12.241 0.211
76.8872 12.380 0.213
76.9039 12.128 0.210
76.9205 12.142 0.211
76.9372 11.931 0.209
76.9538 12.193 0.211
76.9705 12.091 0.210
76.9871 12.106 0.210
77.0038 12.255 0.212
