'Id: "" Comment: "Single 30 min qual/quant raw material scan" Operator: "Paul  Stutzman" Anode: "Cu" Scantype: "Locked Coupled" TimePerStep: "175.496" X: "0" Y: "0" Z: "0" 
10.0000 8.496 0.220
10.0156 9.032 0.227
10.0312 9.026 0.227
10.0468 8.895 0.225
10.0625 8.576 0.221
10.0781 8.952 0.226
10.0937 9.037 0.227
10.1093 8.507 0.220
10.1249 8.644 0.222
10.1405 8.684 0.222
10.1562 8.781 0.224
10.1718 8.747 0.223
10.1874 8.507 0.220
10.2030 8.667 0.222
10.2186 8.445 0.219
10.2342 8.331 0.218
10.2498 8.815 0.224
10.2655 8.912 0.225
10.2811 8.502 0.220
10.2967 8.183 0.216
10.3123 8.598 0.221
10.3279 8.513 0.220
10.3435 8.536 0.221
10.3591 8.593 0.221
10.3748 8.701 0.223
10.3904 8.627 0.222
10.4060 8.519 0.220
10.4216 8.262 0.217
10.4372 8.821 0.224
10.4528 8.205 0.216
10.4685 8.701 0.223
10.4841 8.023 0.214
10.4997 8.074 0.214
10.5153 8.735 0.223
10.5309 8.485 0.220
10.5465 8.923 0.225
10.5621 8.530 0.220
10.5778 8.325 0.218
10.5934 8.279 0.217
10.6090 8.479 0.220
10.6246 8.553 0.221
10.6402 8.610 0.221
10.6558 8.348 0.218
10.6714 8.200 0.216
10.6871 8.319 0.218
10.7027 8.559 0.221
10.7183 8.034 0.214
10.7339 8.148 0.215
10.7495 8.234 0.217
10.7651 8.433 0.219
10.7808 8.029 0.214
10.7964 8.416 0.219
10.8120 8.165 0.216
10.8276 8.074 0.214
10.8432 8.302 0.218
10.8588 8.257 0.217
10.8744 7.881 0.212
10.8901 8.399 0.219
10.9057 8.359 0.218
10.9213 8.291 0.217
10.9369 8.279 0.217
10.9525 8.183 0.216
10.9681 7.955 0.213
10.9838 8.183 0.216
10.9994 8.245 0.217
11.0150 8.336 0.218
11.0306 8.268 0.217
11.0462 8.274 0.217
11.0618 8.274 0.217
11.0774 8.029 0.214
11.0931 8.496 0.220
11.1087 8.268 0.217
11.1243 8.530 0.220
11.1399 8.279 0.217
11.1555 8.553 0.221
11.1711 8.410 0.219
11.1867 7.886 0.212
11.2024 8.268 0.217
11.2180 8.222 0.216
11.2336 8.205 0.216
11.2492 8.097 0.215
11.2648 7.915 0.212
11.2804 7.704 0.210
11.2961 7.960 0.213
11.3117 8.439 0.219
11.3273 8.114 0.215
11.3429 8.638 0.222
11.3585 8.342 0.218
11.3741 8.291 0.217
11.3897 8.086 0.215
11.4054 7.994 0.213
11.4210 8.148 0.215
11.4366 7.892 0.212
11.4522 8.143 0.215
11.4678 7.960 0.213
11.4834 8.063 0.214
11.4990 8.126 0.215
11.5147 7.767 0.210
11.5303 7.966 0.213
11.5459 8.063 0.214
11.5615 8.188 0.216
11.5771 7.915 0.212
11.5927 7.881 0.212
11.6084 8.217 0.216
11.6240 8.108 0.215
11.6396 7.806 0.211
11.6552 8.205 0.216
11.6708 8.194 0.216
11.6864 7.579 0.208
11.7020 7.556 0.207
11.7177 8.091 0.215
11.7333 7.972 0.213
11.7489 7.926 0.213
11.7645 8.034 0.214
11.7801 7.761 0.210
11.7957 7.818 0.211
11.8114 8.319 0.218
11.8270 8.103 0.215
11.8426 8.353 0.218
11.8582 8.314 0.218
11.8738 8.382 0.219
11.8894 8.747 0.223
11.9050 8.365 0.218
11.9207 8.581 0.221
11.9363 8.980 0.226
11.9519 9.032 0.227
11.9675 9.242 0.229
11.9831 9.339 0.231
11.9987 9.356 0.231
12.0143 9.732 0.235
12.0300 10.126 0.240
12.0456 11.379 0.255
12.0612 11.715 0.258
12.0768 11.755 0.259
12.0924 12.388 0.266
12.1080 12.815 0.270
12.1237 12.314 0.265
12.1393 12.502 0.267
12.1549 11.995 0.261
12.1705 11.932 0.261
12.1861 10.536 0.245
12.2017 9.812 0.236
12.2173 9.185 0.229
12.2330 9.026 0.227
12.2486 8.428 0.219
12.2642 8.336 0.218
12.2798 8.057 0.214
12.2954 7.789 0.211
12.3110 8.108 0.215
12.3266 7.903 0.212
12.3423 7.732 0.210
12.3579 8.154 0.216
12.3735 7.658 0.209
12.3891 8.034 0.214
12.4047 7.960 0.213
12.4203 7.977 0.213
12.4360 7.898 0.212
12.4516 7.658 0.209
12.4672 7.385 0.205
12.4828 7.470 0.206
12.4984 7.579 0.208
12.5140 7.926 0.213
12.5296 7.647 0.209
12.5453 7.630 0.209
12.5609 7.117 0.201
12.5765 7.465 0.206
12.5921 7.590 0.208
12.6077 7.561 0.208
12.6233 7.453 0.206
12.6390 7.425 0.206
12.6546 7.447 0.206
12.6702 7.653 0.209
12.6858 7.795 0.211
12.7014 7.419 0.206
12.7170 7.311 0.204
12.7326 7.499 0.207
12.7483 7.561 0.208
12.7639 7.504 0.207
12.7795 7.618 0.208
12.7951 7.590 0.208
12.8107 7.596 0.208
12.8263 7.299 0.204
12.8419 6.866 0.198
12.8576 7.727 0.210
12.8732 7.613 0.208
12.8888 7.368 0.205
12.9044 7.533 0.207
12.9200 7.932 0.213
12.9356 7.732 0.210
12.9513 7.191 0.202
12.9669 7.487 0.207
12.9825 7.681 0.209
12.9981 7.960 0.213
13.0137 7.419 0.206
13.0293 7.824 0.211
13.0449 7.522 0.207
13.0606 7.151 0.202
13.0762 7.248 0.203
13.0918 7.134 0.202
13.1074 7.031 0.200
13.1230 7.020 0.200
13.1386 7.767 0.210
13.1543 7.396 0.205
13.1699 7.624 0.208
13.1855 7.334 0.204
13.2011 7.413 0.206
13.2167 7.145 0.202
13.2323 7.214 0.203
13.2479 7.020 0.200
13.2636 7.111 0.201
13.2792 6.992 0.200
13.2948 7.362 0.205
13.3104 7.385 0.205
13.3260 6.935 0.199
13.3416 7.220 0.203
13.3572 6.963 0.199
13.3729 6.815 0.197
13.3885 7.202 0.203
13.4041 6.969 0.199
13.4197 7.396 0.205
13.4353 7.163 0.202
13.4509 7.020 0.200
13.4666 6.889 0.198
13.4822 6.826 0.197
13.4978 7.020 0.200
13.5134 6.912 0.198
13.5290 7.220 0.203
13.5446 7.026 0.200
13.5602 6.809 0.197
13.5759 7.482 0.206
13.5915 6.764 0.196
13.6071 6.764 0.196
13.6227 6.741 0.196
13.6383 6.701 0.195
13.6539 7.271 0.204
13.6695 7.140 0.202
13.6852 6.718 0.196
13.7008 6.946 0.199
13.7164 6.878 0.198
13.7320 6.792 0.197
13.7476 6.889 0.198
13.7632 6.456 0.192
13.7789 6.758 0.196
13.7945 6.900 0.198
13.8101 6.838 0.197
13.8257 6.889 0.198
13.8413 6.752 0.196
13.8569 6.661 0.195
13.8725 6.598 0.194
13.8882 7.174 0.202
13.9038 6.781 0.197
13.9194 6.427 0.191
13.9350 6.786 0.197
13.9506 6.655 0.195
13.9662 6.479 0.192
13.9819 6.484 0.192
13.9975 6.724 0.196
14.0131 6.217 0.188
14.0287 6.450 0.192
14.0443 6.564 0.193
14.0599 6.598 0.194
14.0755 6.724 0.196
14.0912 6.177 0.188
14.1068 6.331 0.190
14.1224 6.661 0.195
14.1380 6.319 0.190
14.1536 6.946 0.199
14.1692 6.291 0.189
14.1848 6.268 0.189
14.2005 6.359 0.190
14.2161 6.182 0.188
14.2317 6.541 0.193
14.2473 6.593 0.194
14.2629 6.838 0.197
14.2785 6.570 0.193
14.2942 6.160 0.187
14.3098 6.553 0.193
14.3254 6.399 0.191
14.3410 6.479 0.192
14.3566 6.667 0.195
14.3722 6.405 0.191
14.3878 6.405 0.191
14.4035 6.598 0.194
14.4191 6.371 0.191
14.4347 6.530 0.193
14.4503 6.331 0.190
14.4659 6.228 0.188
14.4815 6.445 0.192
14.4971 6.319 0.190
14.5128 6.513 0.193
14.5284 6.667 0.195
14.5440 6.553 0.193
14.5596 6.524 0.193
14.5752 6.371 0.191
14.5908 6.473 0.192
14.6065 6.439 0.192
14.6221 6.182 0.188
14.6377 6.644 0.195
14.6533 6.712 0.196
14.6689 6.405 0.191
14.6845 6.524 0.193
14.7001 6.724 0.196
14.7158 6.462 0.192
14.7314 6.792 0.197
14.7470 6.593 0.194
14.7626 6.872 0.198
14.7782 6.570 0.193
14.7938 7.106 0.201
14.8095 7.163 0.202
14.8251 7.584 0.208
14.8407 7.402 0.205
14.8563 8.211 0.216
14.8719 8.388 0.219
14.8875 9.288 0.230
14.9031 10.057 0.239
14.9188 9.487 0.233
14.9344 10.120 0.240
14.9500 9.886 0.237
14.9656 8.992 0.226
14.9812 8.029 0.214
14.9968 7.088 0.201
15.0124 6.980 0.199
15.0281 6.621 0.194
15.0437 6.331 0.190
15.0593 6.268 0.189
15.0749 6.422 0.191
15.0905 6.410 0.191
15.1061 6.074 0.186
15.1218 6.017 0.185
15.1374 6.194 0.188
15.1530 6.239 0.189
15.1686 5.880 0.183
15.1842 5.863 0.183
15.1998 6.103 0.186
15.2154 5.858 0.183
15.2311 5.983 0.185
15.2467 6.257 0.189
15.2623 6.410 0.191
15.2779 5.567 0.178
15.2935 5.869 0.183
15.3091 5.715 0.180
15.3247 5.607 0.179
15.3404 5.852 0.183
15.3560 5.892 0.183
15.3716 5.983 0.185
15.3872 6.177 0.188
15.4028 5.778 0.181
15.4184 5.858 0.183
15.4341 5.989 0.185
15.4497 6.274 0.189
15.4653 5.812 0.182
15.4809 5.920 0.184
15.4965 6.012 0.185
15.5121 5.818 0.182
15.5277 5.784 0.182
15.5434 5.692 0.180
15.5590 5.994 0.185
15.5746 6.000 0.185
15.5902 6.131 0.187
15.6058 5.704 0.180
15.6214 5.767 0.181
15.6371 5.556 0.178
15.6527 5.687 0.180
15.6683 5.544 0.178
15.6839 5.772 0.181
15.6995 5.761 0.181
15.7151 5.533 0.178
15.7307 5.829 0.182
15.7464 5.413 0.176
15.7620 5.715 0.180
15.7776 5.835 0.182
15.7932 5.823 0.182
15.8088 5.943 0.184
15.8244 5.698 0.180
15.8400 5.613 0.179
15.8557 6.148 0.187
15.8713 5.664 0.180
15.8869 5.920 0.184
15.9025 5.675 0.180
15.9181 5.966 0.184
15.9337 5.470 0.177
15.9494 5.937 0.184
15.9650 5.624 0.179
15.9806 5.801 0.182
15.9962 5.670 0.180
16.0118 6.222 0.188
16.0274 5.806 0.182
16.0430 6.291 0.189
16.0587 6.228 0.188
16.0743 6.143 0.187
16.0899 6.342 0.190
16.1055 6.200 0.188
16.1211 6.570 0.193
16.1367 6.137 0.187
16.1523 7.140 0.202
16.1680 6.678 0.195
16.1836 6.684 0.195
16.1992 5.909 0.183
16.2148 5.994 0.185
16.2304 5.920 0.184
16.2460 5.869 0.183
16.2617 5.373 0.175
16.2773 5.613 0.179
16.2929 5.584 0.178
16.3085 5.544 0.178
16.3241 5.521 0.177
16.3397 5.755 0.181
16.3553 5.607 0.179
16.3710 5.744 0.181
16.3866 5.812 0.182
16.4022 5.812 0.182
16.4178 5.590 0.178
16.4334 5.499 0.177
16.4490 5.710 0.180
16.4647 5.784 0.182
16.4803 5.339 0.174
16.4959 5.453 0.176
16.5115 5.533 0.178
16.5271 5.641 0.179
16.5427 5.670 0.180
16.5583 5.504 0.177
16.5740 5.499 0.177
16.5896 5.208 0.172
16.6052 5.282 0.173
16.6208 5.539 0.178
16.6364 5.442 0.176
16.6520 5.447 0.176
16.6676 5.482 0.177
16.6833 5.088 0.170
16.6989 5.288 0.174
16.7145 5.094 0.170
16.7301 5.442 0.176
16.7457 5.419 0.176
16.7613 5.339 0.174
16.7770 5.476 0.177
16.7926 5.385 0.175
16.8082 5.573 0.178
16.8238 5.368 0.175
16.8394 5.510 0.177
16.8550 5.174 0.172
16.8706 5.487 0.177
16.8863 5.214 0.172
16.9019 5.163 0.172
16.9175 4.986 0.169
16.9331 5.396 0.175
16.9487 5.385 0.175
16.9643 5.561 0.178
16.9799 5.573 0.178
16.9956 5.567 0.178
17.0112 5.425 0.176
17.0268 5.510 0.177
17.0424 5.379 0.175
17.0580 5.932 0.184
17.0736 5.767 0.181
17.0893 5.664 0.180
17.1049 5.704 0.180
17.1205 6.034 0.185
17.1361 5.613 0.179
17.1517 5.607 0.179
17.1673 5.470 0.177
17.1829 5.282 0.173
17.1986 5.641 0.179
17.2142 5.362 0.175
17.2298 5.248 0.173
17.2454 5.180 0.172
17.2610 5.470 0.177
17.2766 5.379 0.175
17.2923 5.134 0.171
17.3079 5.294 0.174
17.3235 5.140 0.171
17.3391 5.510 0.177
17.3547 4.980 0.168
17.3703 5.903 0.183
17.3859 5.322 0.174
17.4016 5.145 0.171
17.4172 5.316 0.174
17.4328 5.140 0.171
17.4484 5.373 0.175
17.4640 5.088 0.170
17.4796 5.373 0.175
17.4952 5.339 0.174
17.5109 5.100 0.170
17.5265 5.242 0.173
17.5421 5.379 0.175
17.5577 5.128 0.171
17.5733 5.419 0.176
17.5889 5.134 0.171
17.6046 5.134 0.171
17.6202 5.436 0.176
17.6358 5.174 0.172
17.6514 5.077 0.170
17.6670 4.843 0.166
17.6826 5.305 0.174
17.6982 5.066 0.170
17.7139 5.311 0.174
17.7295 5.413 0.176
17.7451 5.670 0.180
17.7607 5.396 0.175
17.7763 5.009 0.169
17.7919 5.134 0.171
17.8076 5.345 0.175
17.8232 5.276 0.173
17.8388 5.396 0.175
17.8544 5.242 0.173
17.8700 5.356 0.175
17.8856 4.946 0.168
17.9012 5.311 0.174
17.9169 5.077 0.170
17.9325 5.459 0.176
17.9481 5.197 0.172
17.9637 5.219 0.172
17.9793 5.185 0.172
17.9949 5.231 0.173
18.0105 5.493 0.177
18.0262 5.180 0.172
18.0418 5.419 0.176
18.0574 5.413 0.176
18.0730 5.590 0.178
18.0886 5.294 0.174
18.1042 5.396 0.175
18.1199 5.482 0.177
18.1355 5.408 0.176
18.1511 5.037 0.169
18.1667 5.020 0.169
18.1823 5.396 0.175
18.1979 5.373 0.175
18.2135 5.157 0.171
18.2292 4.838 0.166
18.2448 5.288 0.174
18.2604 5.328 0.174
18.2760 5.214 0.172
18.2916 5.237 0.173
18.3072 5.066 0.170
18.3228 5.390 0.175
18.3385 5.237 0.173
18.3541 4.923 0.167
18.3697 5.185 0.172
18.3853 5.191 0.172
18.4009 5.219 0.172
18.4165 4.929 0.168
18.4322 4.798 0.165
18.4478 4.883 0.167
18.4634 4.969 0.168
18.4790 4.872 0.167
18.4946 4.992 0.169
18.5102 5.117 0.171
18.5258 5.054 0.170
18.5415 5.231 0.173
18.5571 4.855 0.166
18.5727 5.151 0.171
18.5883 5.185 0.172
18.6039 5.596 0.179
18.6195 5.003 0.169
18.6352 4.912 0.167
18.6508 5.026 0.169
18.6664 5.151 0.171
18.6820 4.861 0.166
18.6976 5.305 0.174
18.7132 5.077 0.170
18.7288 5.043 0.170
18.7445 5.071 0.170
18.7601 5.339 0.174
18.7757 4.929 0.168
18.7913 5.168 0.172
18.8069 5.106 0.171
18.8225 4.872 0.167
18.8381 4.866 0.167
18.8538 4.786 0.165
18.8694 5.163 0.172
18.8850 4.752 0.165
18.9006 5.060 0.170
18.9162 5.003 0.169
18.9318 5.066 0.170
18.9475 5.237 0.173
18.9631 5.510 0.177
18.9787 5.180 0.172
18.9943 5.151 0.171
19.0099 5.299 0.174
19.0255 5.145 0.171
19.0411 5.578 0.178
19.0568 5.630 0.179
19.0724 5.276 0.173
19.0880 5.408 0.176
19.1036 5.185 0.172
19.1192 4.940 0.168
19.1348 5.111 0.171
19.1504 5.117 0.171
19.1661 4.952 0.168
19.1817 5.134 0.171
19.1973 5.083 0.170
19.2129 5.077 0.170
19.2285 5.049 0.170
19.2441 5.111 0.171
19.2598 5.106 0.171
19.2754 4.878 0.167
19.2910 5.037 0.169
19.3066 5.031 0.169
19.3222 4.935 0.168
19.3378 5.060 0.170
19.3534 4.781 0.165
19.3691 4.672 0.163
19.3847 5.066 0.170
19.4003 4.792 0.165
19.4159 4.821 0.166
19.4315 4.997 0.169
19.4471 4.593 0.162
19.4628 4.997 0.169
19.4784 4.758 0.165
19.4940 4.826 0.166
19.5096 4.741 0.164
19.5252 4.559 0.161
19.5408 4.929 0.168
19.5564 4.906 0.167
19.5721 4.678 0.163
19.5877 4.912 0.167
19.6033 4.878 0.167
19.6189 4.786 0.165
19.6345 4.695 0.164
19.6501 4.576 0.161
19.6657 4.992 0.169
19.6814 4.604 0.162
19.6970 4.633 0.162
19.7126 4.684 0.163
19.7282 4.832 0.166
19.7438 4.815 0.166
19.7594 4.832 0.166
19.7751 4.855 0.166
19.7907 5.299 0.174
19.8063 4.433 0.159
19.8219 4.781 0.165
19.8375 4.912 0.167
19.8531 4.878 0.167
19.8687 4.969 0.168
19.8844 4.712 0.164
19.9000 4.747 0.164
19.9156 4.690 0.163
19.9312 4.564 0.161
19.9468 4.638 0.163
19.9624 4.467 0.160
19.9780 4.638 0.163
19.9937 4.513 0.160
20.0093 4.684 0.163
20.0249 4.940 0.168
20.0405 4.923 0.167
20.0561 4.929 0.168
20.0717 4.906 0.167
20.0874 5.031 0.169
20.1030 4.935 0.168
20.1186 4.872 0.167
20.1342 4.365 0.158
20.1498 4.781 0.165
20.1654 4.986 0.169
20.1810 4.775 0.165
20.1967 4.695 0.164
20.2123 5.088 0.170
20.2279 4.786 0.165
20.2435 4.712 0.164
20.2591 4.769 0.165
20.2747 4.690 0.163
20.2904 5.083 0.170
20.3060 4.769 0.165
20.3216 4.895 0.167
20.3372 5.031 0.169
20.3528 4.826 0.166
20.3684 5.140 0.171
20.3840 5.094 0.170
20.3997 4.781 0.165
20.4153 4.638 0.163
20.4309 4.610 0.162
20.4465 4.712 0.164
20.4621 4.804 0.165
20.4777 4.861 0.166
20.4933 4.798 0.165
20.5090 4.940 0.168
20.5246 5.054 0.170
20.5402 4.809 0.166
20.5558 4.929 0.168
20.5714 4.946 0.168
20.5870 4.878 0.167
20.6027 4.786 0.165
20.6183 4.678 0.163
20.6339 4.724 0.164
20.6495 4.593 0.162
20.6651 4.502 0.160
20.6807 5.014 0.169
20.6963 4.935 0.168
20.7120 4.684 0.163
20.7276 4.952 0.168
20.7432 4.883 0.167
20.7588 4.992 0.169
20.7744 4.729 0.164
20.7900 4.866 0.167
20.8056 4.809 0.166
20.8213 4.872 0.167
20.8369 4.758 0.165
20.8525 4.729 0.164
20.8681 4.610 0.162
20.8837 4.604 0.162
20.8993 4.792 0.165
20.9150 4.695 0.164
20.9306 4.843 0.166
20.9462 4.764 0.165
20.9618 4.735 0.164
20.9774 5.248 0.173
20.9930 4.906 0.167
21.0086 4.963 0.168
21.0243 5.088 0.170
21.0399 4.997 0.169
21.0555 5.168 0.172
21.0711 4.889 0.167
21.0867 5.060 0.170
21.1023 4.889 0.167
21.1180 5.094 0.170
21.1336 4.849 0.166
21.1492 5.060 0.170
21.1648 4.564 0.161
21.1804 4.735 0.164
21.1960 4.940 0.168
21.2116 4.348 0.157
21.2273 4.627 0.162
21.2429 4.974 0.168
21.2585 4.992 0.169
21.2741 4.524 0.161
21.2897 4.764 0.165
21.3053 5.031 0.169
21.3209 4.684 0.163
21.3366 5.071 0.170
21.3522 4.507 0.160
21.3678 5.106 0.171
21.3834 4.684 0.163
21.3990 4.564 0.161
21.4146 4.935 0.168
21.4303 4.809 0.166
21.4459 4.792 0.165
21.4615 4.490 0.160
21.4771 5.054 0.170
21.4927 4.786 0.165
21.5083 4.832 0.166
21.5239 4.667 0.163
21.5396 4.690 0.163
21.5552 4.536 0.161
21.5708 4.462 0.159
21.5864 4.764 0.165
21.6020 4.598 0.162
21.6176 4.695 0.164
21.6332 4.769 0.165
21.6489 4.832 0.166
21.6645 4.878 0.167
21.6801 4.456 0.159
21.6957 4.587 0.162
21.7113 4.593 0.162
21.7269 5.066 0.170
21.7426 4.826 0.166
21.7582 4.889 0.167
21.7738 4.946 0.168
21.7894 4.980 0.168
21.8050 5.003 0.169
21.8206 4.838 0.166
21.8362 4.895 0.167
21.8519 4.752 0.165
21.8675 4.963 0.168
21.8831 4.707 0.164
21.8987 4.690 0.163
21.9143 4.815 0.166
21.9299 4.769 0.165
21.9456 4.764 0.165
21.9612 4.866 0.167
21.9768 4.747 0.164
21.9924 4.832 0.166
22.0080 4.724 0.164
22.0236 4.308 0.157
22.0392 4.553 0.161
22.0549 4.638 0.163
22.0705 4.610 0.162
22.0861 4.872 0.167
22.1017 4.729 0.164
22.1173 4.672 0.163
22.1329 4.604 0.162
22.1485 4.729 0.164
22.1642 4.422 0.159
22.1798 4.473 0.160
22.1954 4.530 0.161
22.2110 4.502 0.160
22.2266 4.798 0.165
22.2422 4.615 0.162
22.2579 4.690 0.163
22.2735 4.427 0.159
22.2891 4.376 0.158
22.3047 4.724 0.164
22.3203 4.553 0.161
22.3359 4.912 0.167
22.3515 4.895 0.167
22.3672 4.633 0.162
22.3828 4.821 0.166
22.3984 4.319 0.157
22.4140 4.467 0.160
22.4296 4.467 0.160
22.4452 4.758 0.165
22.4608 4.781 0.165
22.4765 4.667 0.163
22.4921 4.388 0.158
22.5077 4.741 0.164
22.5233 4.655 0.163
22.5389 4.274 0.156
22.5545 4.838 0.166
22.5702 4.718 0.164
22.5858 4.467 0.160
22.6014 4.644 0.163
22.6170 4.593 0.162
22.6326 4.695 0.164
22.6482 4.980 0.168
22.6638 4.644 0.163
22.6795 4.752 0.165
22.6951 4.564 0.161
22.7107 5.174 0.172
22.7263 4.644 0.163
22.7419 4.718 0.164
22.7575 4.667 0.163
22.7732 5.009 0.169
22.7888 5.043 0.170
22.8044 4.900 0.167
22.8200 5.088 0.170
22.8356 5.368 0.175
22.8512 5.453 0.176
22.8668 5.630 0.179
22.8825 5.704 0.180
22.8981 5.806 0.182
22.9137 6.433 0.191
22.9293 6.764 0.196
22.9449 7.408 0.205
22.9605 7.316 0.204
22.9761 7.539 0.207
22.9918 7.504 0.207
23.0074 7.442 0.206
23.0230 6.889 0.198
23.0386 6.849 0.198
23.0542 6.570 0.193
23.0698 6.074 0.186
23.0855 6.274 0.189
23.1011 5.687 0.180
23.1167 5.311 0.174
23.1323 5.596 0.179
23.1479 5.180 0.172
23.1635 5.487 0.177
23.1791 4.974 0.168
23.1948 5.054 0.170
23.2104 5.054 0.170
23.2260 5.009 0.169
23.2416 5.071 0.170
23.2572 5.214 0.172
23.2728 4.752 0.165
23.2885 4.855 0.166
23.3041 4.615 0.162
23.3197 4.826 0.166
23.3353 4.473 0.160
23.3509 4.610 0.162
23.3665 4.633 0.162
23.3821 4.889 0.167
23.3978 5.265 0.173
23.4134 4.690 0.163
23.4290 4.393 0.158
23.4446 4.547 0.161
23.4602 4.712 0.164
23.4758 4.422 0.159
23.4914 4.462 0.159
23.5071 4.895 0.167
23.5227 4.752 0.165
23.5383 5.003 0.169
23.5539 4.559 0.161
23.5695 4.405 0.158
23.5851 4.775 0.165
23.6008 4.883 0.167
23.6164 4.513 0.160
23.6320 4.359 0.158
23.6476 4.513 0.160
23.6632 4.627 0.162
23.6788 4.752 0.165
23.6944 4.627 0.162
23.7101 4.644 0.163
23.7257 5.168 0.172
23.7413 4.781 0.165
23.7569 4.786 0.165
23.7725 4.644 0.163
23.7881 4.764 0.165
23.8037 4.479 0.160
23.8194 4.775 0.165
23.8350 4.883 0.167
23.8506 4.809 0.166
23.8662 4.473 0.160
23.8818 4.336 0.157
23.8974 4.952 0.168
23.9131 4.576 0.161
23.9287 5.009 0.169
23.9443 4.741 0.164
23.9599 4.826 0.166
23.9755 4.815 0.166
23.9911 4.564 0.161
24.0067 4.638 0.163
24.0224 4.946 0.168
24.0380 4.957 0.168
24.0536 5.202 0.172
24.0692 4.855 0.166
24.0848 4.866 0.167
24.1004 4.661 0.163
24.1161 4.764 0.165
24.1317 5.111 0.171
24.1473 4.872 0.167
24.1629 5.157 0.171
24.1785 4.912 0.167
24.1941 5.088 0.170
24.2097 5.003 0.169
24.2254 5.521 0.177
24.2410 5.653 0.179
24.2566 5.749 0.181
24.2722 5.818 0.182
24.2878 5.880 0.183
24.3034 5.801 0.182
24.3190 6.291 0.189
24.3347 6.348 0.190
24.3503 6.342 0.190
24.3659 5.863 0.183
24.3815 6.245 0.189
24.3971 5.635 0.179
24.4127 5.841 0.182
24.4284 5.778 0.181
24.4440 5.430 0.176
24.4596 5.168 0.172
24.4752 5.191 0.172
24.4908 4.747 0.164
24.5064 4.883 0.167
24.5220 4.843 0.166
24.5377 4.484 0.160
24.5533 4.547 0.161
24.5689 4.997 0.169
24.5845 4.764 0.165
24.6001 4.445 0.159
24.6157 4.462 0.159
24.6313 4.547 0.161
24.6470 4.644 0.163
24.6626 4.439 0.159
24.6782 4.541 0.161
24.6938 4.165 0.154
24.7094 4.541 0.161
24.7250 4.496 0.160
24.7407 4.422 0.159
24.7563 4.257 0.156
24.7719 4.541 0.161
24.7875 4.570 0.161
24.8031 4.171 0.154
24.8187 4.564 0.161
24.8343 4.405 0.158
24.8500 4.530 0.161
24.8656 4.405 0.158
24.8812 4.502 0.160
24.8968 4.735 0.164
24.9124 4.587 0.162
24.9280 4.798 0.165
24.9437 4.268 0.156
24.9593 4.576 0.161
24.9749 4.593 0.162
24.9905 4.917 0.167
25.0061 4.422 0.159
25.0217 4.661 0.163
25.0373 4.427 0.159
25.0530 4.473 0.160
25.0686 4.798 0.165
25.0842 5.060 0.170
25.0998 4.809 0.166
25.1154 5.003 0.169
25.1310 5.094 0.170
25.1466 5.453 0.176
25.1623 5.875 0.183
25.1779 6.211 0.188
25.1935 6.148 0.187
25.2091 6.872 0.198
25.2247 6.826 0.197
25.2403 6.291 0.189
25.2560 6.171 0.188
25.2716 6.296 0.189
25.2872 6.342 0.190
25.3028 5.738 0.181
25.3184 5.664 0.180
25.3340 5.282 0.173
25.3496 4.781 0.165
25.3653 4.940 0.168
25.3809 4.775 0.165
25.3965 4.883 0.167
25.4121 4.564 0.161
25.4277 4.490 0.160
25.4433 4.615 0.162
25.4589 4.547 0.161
25.4746 4.456 0.159
25.4902 4.729 0.164
25.5058 4.752 0.165
25.5214 4.604 0.162
25.5370 4.484 0.160
25.5526 4.855 0.166
25.5683 4.587 0.162
25.5839 4.581 0.162
25.5995 4.638 0.163
25.6151 4.405 0.158
25.6307 4.490 0.160
25.6463 4.712 0.164
25.6619 4.234 0.155
25.6776 4.331 0.157
25.6932 4.462 0.159
25.7088 4.559 0.161
25.7244 4.541 0.161
25.7400 4.507 0.160
25.7556 4.427 0.159
25.7713 4.427 0.159
25.7869 4.615 0.162
25.8025 4.655 0.163
25.8181 4.399 0.158
25.8337 4.798 0.165
25.8493 4.684 0.163
25.8649 4.484 0.160
25.8806 4.650 0.163
25.8962 4.359 0.158
25.9118 4.655 0.163
25.9274 4.496 0.160
25.9430 4.257 0.156
25.9586 4.416 0.159
25.9742 4.296 0.156
25.9899 4.650 0.163
26.0055 4.467 0.160
26.0211 4.479 0.160
26.0367 4.456 0.159
26.0523 4.581 0.162
26.0679 4.804 0.165
26.0836 4.479 0.160
26.0992 4.650 0.163
26.1148 4.826 0.166
26.1304 4.775 0.165
26.1460 4.445 0.159
26.1616 4.724 0.164
26.1772 4.764 0.165
26.1929 4.707 0.164
26.2085 4.667 0.163
26.2241 4.917 0.167
26.2397 4.883 0.167
26.2553 4.786 0.165
26.2709 5.219 0.172
26.2865 5.197 0.172
26.3022 4.861 0.166
26.3178 5.128 0.171
26.3334 4.969 0.168
26.3490 4.701 0.164
26.3646 5.014 0.169
26.3802 4.957 0.168
26.3959 4.946 0.168
26.4115 4.792 0.165
26.4271 4.695 0.164
26.4427 4.695 0.164
26.4583 4.370 0.158
26.4739 4.524 0.161
26.4895 4.633 0.162
26.5052 4.661 0.163
26.5208 4.473 0.160
26.5364 4.576 0.161
26.5520 4.627 0.162
26.5676 4.843 0.166
26.5832 4.707 0.164
26.5989 4.519 0.160
26.6145 4.861 0.166
26.6301 4.695 0.164
26.6457 4.570 0.161
26.6613 4.342 0.157
26.6769 4.490 0.160
26.6925 4.598 0.162
26.7082 4.695 0.164
26.7238 4.576 0.161
26.7394 4.490 0.160
26.7550 4.513 0.160
26.7706 4.376 0.158
26.7862 4.536 0.161
26.8018 4.576 0.161
26.8175 4.564 0.161
26.8331 4.222 0.155
26.8487 4.695 0.164
26.8643 4.262 0.156
26.8799 4.502 0.160
26.8955 4.581 0.162
26.9112 4.513 0.160
26.9268 4.359 0.158
26.9424 4.188 0.154
26.9580 4.581 0.162
26.9736 4.370 0.158
26.9892 4.684 0.163
27.0048 4.433 0.159
27.0205 4.416 0.159
27.0361 4.427 0.159
27.0517 4.519 0.160
27.0673 4.245 0.156
27.0829 4.587 0.162
27.0985 4.615 0.162
27.1141 4.598 0.162
27.1298 4.650 0.163
27.1454 4.638 0.163
27.1610 4.507 0.160
27.1766 4.672 0.163
27.1922 4.598 0.162
27.2078 4.462 0.159
27.2235 4.593 0.162
27.2391 4.735 0.164
27.2547 4.661 0.163
27.2703 4.946 0.168
27.2859 4.388 0.158
27.3015 4.729 0.164
27.3171 4.661 0.163
27.3328 4.883 0.167
27.3484 4.513 0.160
27.3640 4.929 0.168
27.3796 5.049 0.170
27.3952 5.482 0.177
27.4108 5.613 0.179
27.4265 5.487 0.177
27.4421 5.732 0.181
27.4577 5.567 0.178
27.4733 5.886 0.183
27.4889 5.208 0.172
27.5045 5.322 0.174
27.5201 5.670 0.180
27.5358 5.550 0.178
27.5514 5.328 0.174
27.5670 5.254 0.173
27.5826 5.202 0.172
27.5982 4.957 0.168
27.6138 5.288 0.174
27.6294 5.282 0.173
27.6451 4.878 0.167
27.6607 5.248 0.173
27.6763 5.083 0.170
27.6919 5.242 0.173
27.7075 5.163 0.172
27.7231 5.373 0.175
27.7388 5.128 0.171
27.7544 5.385 0.175
27.7700 5.573 0.178
27.7856 5.311 0.174
27.8012 5.721 0.181
27.8168 5.396 0.175
27.8324 5.345 0.175
27.8481 5.436 0.176
27.8637 5.533 0.178
27.8793 5.561 0.178
27.8949 5.613 0.179
27.9105 5.692 0.180
27.9261 5.801 0.182
27.9417 5.767 0.181
27.9574 6.348 0.190
27.9730 6.484 0.192
27.9886 6.365 0.190
28.0042 6.479 0.192
28.0198 6.388 0.191
28.0354 6.245 0.189
28.0511 6.074 0.186
28.0667 5.903 0.183
28.0823 5.567 0.178
28.0979 5.584 0.178
28.1135 5.601 0.179
28.1291 4.997 0.169
28.1447 4.946 0.168
28.1604 5.168 0.172
28.1760 4.855 0.166
28.1916 4.861 0.166
28.2072 4.838 0.166
28.2228 5.077 0.170
28.2384 4.809 0.166
28.2541 4.980 0.168
28.2697 4.923 0.167
28.2853 4.878 0.167
28.3009 4.678 0.163
28.3165 4.393 0.158
28.3321 4.724 0.164
28.3477 4.695 0.164
28.3634 4.399 0.158
28.3790 4.672 0.163
28.3946 4.672 0.163
28.4102 4.644 0.163
28.4258 4.929 0.168
28.4414 4.832 0.166
28.4570 4.855 0.166
28.4727 4.952 0.168
28.4883 4.815 0.166
28.5039 4.747 0.164
28.5195 4.821 0.166
28.5351 4.553 0.161
28.5507 4.843 0.166
28.5664 4.536 0.161
28.5820 4.729 0.164
28.5976 4.741 0.164
28.6132 4.843 0.166
28.6288 4.997 0.169
28.6444 4.524 0.161
28.6600 4.804 0.165
28.6757 4.576 0.161
28.6913 5.031 0.169
28.7069 4.917 0.167
28.7225 4.855 0.166
28.7381 4.906 0.167
28.7537 5.003 0.169
28.7694 4.906 0.167
28.7850 4.826 0.166
28.8006 5.031 0.169
28.8162 4.872 0.167
28.8318 5.145 0.171
28.8474 5.066 0.170
28.8630 5.066 0.170
28.8787 5.248 0.173
28.8943 5.419 0.176
28.9099 5.088 0.170
28.9255 5.242 0.173
28.9411 5.430 0.176
28.9567 5.402 0.175
28.9723 5.470 0.177
28.9880 5.333 0.174
29.0036 5.630 0.179
29.0192 5.749 0.181
29.0348 5.516 0.177
29.0504 6.029 0.185
29.0660 5.960 0.184
29.0817 5.710 0.180
29.0973 5.932 0.184
29.1129 6.245 0.189
29.1285 6.188 0.188
29.1441 6.211 0.188
29.1597 6.405 0.191
29.1753 6.484 0.192
29.1910 6.690 0.195
29.2066 7.111 0.201
29.2222 7.271 0.204
29.2378 7.550 0.207
29.2534 8.108 0.215
29.2690 8.604 0.221
29.2846 9.071 0.227
29.3003 11.493 0.256
29.3159 12.502 0.267
29.3315 15.539 0.298
29.3471 18.810 0.327
29.3627 21.693 0.352
29.3783 23.015 0.362
29.3940 24.946 0.377
29.4096 26.468 0.388
29.4252 28.229 0.401
29.4408 30.781 0.419
29.4564 35.875 0.452
29.4720 37.687 0.463
29.4876 38.103 0.466
29.5033 34.667 0.444
29.5189 30.320 0.416
29.5345 26.360 0.388
29.5501 23.180 0.363
29.5657 21.391 0.349
29.5813 17.767 0.318
29.5970 14.479 0.287
29.6126 11.334 0.254
29.6282 9.254 0.230
29.6438 8.183 0.216
29.6594 7.573 0.208
29.6750 7.191 0.202
29.6906 7.191 0.202
29.7063 6.952 0.199
29.7219 6.633 0.194
29.7375 6.308 0.190
29.7531 6.393 0.191
29.7687 6.143 0.187
29.7843 6.456 0.192
29.7999 6.086 0.186
29.8156 6.228 0.188
29.8312 5.789 0.182
29.8468 6.086 0.186
29.8624 6.239 0.189
29.8780 6.314 0.190
29.8936 6.222 0.188
29.9093 6.125 0.187
29.9249 6.502 0.192
29.9405 6.775 0.196
29.9561 7.123 0.201
29.9717 7.675 0.209
29.9873 7.806 0.211
30.0029 8.627 0.222
30.0186 9.402 0.231
30.0342 11.208 0.253
30.0498 11.812 0.259
30.0654 12.479 0.267
30.0810 13.140 0.274
30.0966 13.562 0.278
30.1122 14.297 0.285
30.1279 15.157 0.294
30.1435 14.770 0.290
30.1591 13.305 0.275
30.1747 11.784 0.259
30.1903 10.929 0.250
30.2059 9.459 0.232
30.2216 9.277 0.230
30.2372 8.331 0.218
30.2528 7.675 0.209
30.2684 6.832 0.197
30.2840 6.325 0.190
30.2996 5.704 0.180
30.3152 5.846 0.183
30.3309 5.499 0.177
30.3465 5.841 0.182
30.3621 5.653 0.179
30.3777 5.647 0.179
30.3933 6.257 0.189
30.4089 5.715 0.180
30.4246 5.590 0.178
30.4402 5.721 0.181
30.4558 5.482 0.177
30.4714 5.282 0.173
30.4870 5.732 0.181
30.5026 5.316 0.174
30.5182 5.442 0.176
30.5339 5.385 0.175
30.5495 5.356 0.175
30.5651 4.838 0.166
30.5807 5.128 0.171
30.5963 5.225 0.173
30.6119 4.980 0.168
30.6275 5.396 0.175
30.6432 4.969 0.168
30.6588 5.157 0.171
30.6744 4.923 0.167
30.6900 4.912 0.167
30.7056 5.117 0.171
30.7212 4.929 0.168
30.7369 5.197 0.172
30.7525 5.088 0.170
30.7681 5.288 0.174
30.7837 5.009 0.169
30.7993 5.117 0.171
30.8149 5.265 0.173
30.8305 5.333 0.174
30.8462 5.219 0.172
30.8618 5.299 0.174
30.8774 5.465 0.176
30.8930 5.447 0.176
30.9086 5.920 0.184
30.9242 5.470 0.177
30.9398 5.453 0.176
30.9555 5.806 0.182
30.9711 5.727 0.181
30.9867 5.710 0.180
31.0023 6.314 0.190
31.0179 6.131 0.187
31.0335 6.291 0.189
31.0492 5.869 0.183
31.0648 5.966 0.184
31.0804 5.932 0.184
31.0960 5.960 0.184
31.1116 5.903 0.183
31.1272 5.436 0.176
31.1428 5.459 0.176
31.1585 5.402 0.175
31.1741 5.111 0.171
31.1897 5.556 0.178
31.2053 5.316 0.174
31.2209 5.390 0.175
31.2365 5.254 0.173
31.2522 5.197 0.172
31.2678 5.185 0.172
31.2834 5.527 0.177
31.2990 5.544 0.178
31.3146 5.504 0.177
31.3302 5.556 0.178
31.3458 5.687 0.180
31.3615 5.784 0.182
31.3771 5.977 0.185
31.3927 5.994 0.185
31.4083 5.789 0.182
31.4239 5.858 0.183
31.4395 6.034 0.185
31.4551 6.046 0.186
31.4708 5.949 0.184
31.4864 6.034 0.185
31.5020 6.690 0.195
31.5176 6.638 0.194
31.5332 6.388 0.191
31.5488 6.650 0.195
31.5645 6.729 0.196
31.5801 6.593 0.194
31.5957 6.399 0.191
31.6113 6.559 0.193
31.6269 6.661 0.195
31.6425 6.872 0.198
31.6581 6.667 0.195
31.6738 7.351 0.205
31.6894 6.889 0.198
31.7050 6.462 0.192
31.7206 7.151 0.202
31.7362 7.117 0.201
31.7518 7.191 0.202
31.7674 7.088 0.201
31.7831 6.992 0.200
31.7987 7.390 0.205
31.8143 7.636 0.209
31.8299 7.744 0.210
31.8455 7.841 0.211
31.8611 7.977 0.213
31.8768 8.530 0.220
31.8924 8.359 0.218
31.9080 9.128 0.228
31.9236 9.653 0.235
31.9392 9.453 0.232
31.9548 10.006 0.239
31.9704 10.234 0.241
31.9861 10.530 0.245
32.0017 11.744 0.259
32.0173 12.297 0.265
32.0329 12.718 0.269
32.0485 13.636 0.279
32.0641 14.473 0.287
32.0798 14.980 0.292
32.0954 16.963 0.311
32.1110 18.040 0.321
32.1266 19.516 0.333
32.1422 21.300 0.348
32.1578 24.872 0.376
32.1734 28.200 0.401
32.1891 34.132 0.441
32.2047 40.423 0.480
32.2203 48.434 0.525
32.2359 55.306 0.561
32.2515 58.919 0.579
32.2671 57.620 0.573
32.2827 49.642 0.532
32.2984 42.878 0.494
32.3140 39.984 0.477
32.3296 38.331 0.467
32.3452 35.465 0.450
32.3608 30.491 0.417
32.3764 24.587 0.374
32.3921 21.755 0.352
32.4077 19.596 0.334
32.4233 17.539 0.316
32.4389 18.433 0.324
32.4545 19.123 0.330
32.4701 20.781 0.344
32.4857 23.072 0.363
32.5014 26.445 0.388
32.5170 30.052 0.414
32.5326 31.397 0.423
32.5482 33.357 0.436
32.5638 33.431 0.436
32.5794 34.742 0.445
32.5950 36.029 0.453
32.6107 38.098 0.466
32.6263 42.331 0.491
32.6419 44.827 0.505
32.6575 45.824 0.511
32.6731 45.887 0.511
32.6887 40.668 0.481
32.7044 35.910 0.452
32.7200 31.021 0.420
32.7356 28.645 0.404
32.7512 26.348 0.387
32.7668 23.784 0.368
32.7824 20.086 0.338
32.7980 16.074 0.303
32.8137 13.516 0.278
32.8293 12.411 0.266
32.8449 11.322 0.254
32.8605 11.140 0.252
32.8761 10.599 0.246
32.8917 10.154 0.241
32.9074 9.675 0.235
32.9230 9.932 0.238
32.9386 9.465 0.232
32.9542 9.379 0.231
32.9698 8.883 0.225
32.9854 8.997 0.226
33.0010 8.787 0.224
33.0167 8.935 0.226
33.0323 9.185 0.229
33.0479 8.519 0.220
33.0635 8.935 0.226
33.0791 8.513 0.220
33.0947 8.428 0.219
33.1103 8.268 0.217
33.1260 8.450 0.219
33.1416 8.410 0.219
33.1572 8.855 0.225
33.1728 9.032 0.227
33.1884 9.738 0.236
33.2040 9.898 0.237
33.2197 10.194 0.241
33.2353 10.564 0.245
33.2509 11.334 0.254
33.2665 11.482 0.256
33.2821 11.607 0.257
33.2977 11.658 0.258
33.3133 11.203 0.253
33.3290 10.963 0.250
33.3446 11.134 0.252
33.3602 10.690 0.247
33.3758 10.542 0.245
33.3914 10.889 0.249
33.4070 10.542 0.245
33.4227 10.428 0.244
33.4383 10.069 0.240
33.4539 10.097 0.240
33.4695 9.715 0.235
33.4851 9.909 0.238
33.5007 9.710 0.235
33.5163 10.023 0.239
33.5320 9.983 0.239
33.5476 9.869 0.237
33.5632 9.419 0.232
33.5788 9.938 0.238
33.5944 9.863 0.237
33.6100 10.581 0.246
33.6256 10.524 0.245
33.6413 10.906 0.249
33.6569 10.787 0.248
33.6725 11.522 0.256
33.6881 11.618 0.257
33.7037 11.864 0.260
33.7193 12.667 0.269
33.7350 13.174 0.274
33.7506 13.562 0.278
33.7662 13.926 0.282
33.7818 14.530 0.288
33.7974 14.297 0.285
33.8130 14.650 0.289
33.8286 15.174 0.294
33.8443 14.245 0.285
33.8599 14.741 0.290
33.8755 14.593 0.288
33.8911 14.861 0.291
33.9067 14.228 0.285
33.9223 13.767 0.280
33.9379 13.413 0.276
33.9536 13.590 0.278
33.9692 12.644 0.268
33.9848 11.789 0.259
34.0004 12.023 0.262
34.0160 11.636 0.257
34.0316 11.100 0.251
34.0473 10.986 0.250
34.0629 10.581 0.246
34.0785 10.228 0.241
34.0941 10.279 0.242
34.1097 10.160 0.241
34.1253 10.205 0.241
34.1409 9.835 0.237
34.1566 10.012 0.239
34.1722 9.932 0.238
34.1878 10.564 0.245
34.2034 10.980 0.250
34.2190 10.627 0.246
34.2346 12.137 0.263
34.2503 12.827 0.270
34.2659 13.750 0.280
34.2815 15.425 0.296
34.2971 17.516 0.316
34.3127 21.602 0.351
34.3283 26.342 0.387
34.3439 32.747 0.432
34.3596 38.212 0.467
34.3752 43.716 0.499
34.3908 47.659 0.521
34.4064 50.115 0.534
34.4220 48.759 0.527
34.4376 44.679 0.505
34.4532 40.873 0.483
34.4689 36.856 0.458
34.4845 32.388 0.430
34.5001 28.804 0.405
34.5157 25.294 0.380
34.5313 21.408 0.349
34.5469 16.912 0.310
34.5626 14.046 0.283
34.5782 11.681 0.258
34.5938 10.433 0.244
34.6094 9.413 0.232
34.6250 8.963 0.226
34.6406 8.485 0.220
34.6562 8.245 0.217
34.6719 7.658 0.209
34.6875 7.692 0.209
34.7031 7.687 0.209
34.7187 7.299 0.204
34.7343 7.311 0.204
34.7499 7.128 0.202
34.7655 7.094 0.201
34.7812 6.975 0.199
34.7968 6.940 0.199
34.8124 6.616 0.194
34.8280 6.422 0.191
34.8436 6.969 0.199
34.8592 6.473 0.192
34.8749 6.063 0.186
34.8905 6.228 0.188
34.9061 5.955 0.184
34.9217 6.034 0.185
34.9373 6.182 0.188
34.9529 5.909 0.183
34.9685 5.578 0.178
34.9842 5.920 0.184
34.9998 5.550 0.178
35.0154 5.704 0.180
35.0310 5.561 0.178
35.0466 5.333 0.174
35.0622 5.880 0.183
35.0779 5.858 0.183
35.0935 5.641 0.179
35.1091 5.322 0.174
35.1247 5.322 0.174
35.1403 5.960 0.184
35.1559 5.670 0.180
35.1715 5.465 0.176
35.1872 5.539 0.178
35.2028 5.607 0.179
35.2184 5.818 0.182
35.2340 5.618 0.179
35.2496 5.163 0.172
35.2652 5.658 0.180
35.2808 5.544 0.178
35.2965 5.607 0.179
35.3121 5.191 0.172
35.3277 5.425 0.176
35.3433 5.276 0.173
35.3589 5.368 0.175
35.3745 5.322 0.174
35.3902 5.123 0.171
35.4058 5.470 0.177
35.4214 4.872 0.167
35.4370 4.895 0.167
35.4526 4.672 0.163
35.4682 5.100 0.170
35.4838 5.100 0.170
35.4995 4.946 0.168
35.5151 4.861 0.166
35.5307 5.299 0.174
35.5463 5.037 0.169
35.5619 4.957 0.168
35.5775 4.923 0.167
35.5931 4.758 0.165
35.6088 4.826 0.166
35.6244 4.963 0.168
35.6400 4.935 0.168
35.6556 4.917 0.167
35.6712 4.758 0.165
35.6868 4.547 0.161
35.7025 4.747 0.164
35.7181 5.026 0.169
35.7337 4.843 0.166
35.7493 4.473 0.160
35.7649 4.952 0.168
35.7805 4.895 0.167
35.7961 4.741 0.164
35.8118 4.804 0.165
35.8274 5.094 0.170
35.8430 5.077 0.170
35.8586 5.020 0.169
35.8742 5.100 0.170
35.8898 5.328 0.174
35.9055 5.231 0.173
35.9211 5.351 0.175
35.9367 5.140 0.171
35.9523 5.362 0.175
35.9679 5.447 0.176
35.9835 5.163 0.172
35.9991 5.368 0.175
36.0148 5.276 0.173
36.0304 5.328 0.174
36.0460 5.299 0.174
36.0616 4.912 0.167
36.0772 4.986 0.169
36.0928 5.088 0.170
36.1084 5.049 0.170
36.1241 4.718 0.164
36.1397 4.946 0.168
36.1553 5.185 0.172
36.1709 4.786 0.165
36.1865 4.718 0.164
36.2021 4.798 0.165
36.2178 4.769 0.165
36.2334 4.940 0.168
36.2490 4.638 0.163
36.2646 4.957 0.168
36.2802 4.610 0.162
36.2958 4.741 0.164
36.3114 4.866 0.167
36.3271 5.191 0.172
36.3427 5.054 0.170
36.3583 4.826 0.166
36.3739 5.145 0.171
36.3895 5.390 0.175
36.4051 4.530 0.161
36.4207 5.413 0.176
36.4364 5.106 0.171
36.4520 5.100 0.170
36.4676 5.202 0.172
36.4832 5.299 0.174
36.4988 5.561 0.178
36.5144 5.231 0.173
36.5301 5.761 0.181
36.5457 5.499 0.177
36.5613 5.704 0.180
36.5769 5.624 0.179
36.5925 5.875 0.183
36.6081 5.784 0.182
36.6237 6.302 0.190
36.6394 6.217 0.188
36.6550 6.946 0.199
36.6706 7.088 0.201
36.6862 7.863 0.212
36.7018 8.462 0.220
36.7174 9.083 0.227
36.7331 9.670 0.235
36.7487 9.784 0.236
36.7643 9.516 0.233
36.7799 9.732 0.235
36.7955 8.644 0.222
36.8111 8.479 0.220
36.8267 8.308 0.218
36.8424 7.755 0.210
36.8580 7.886 0.212
36.8736 7.618 0.208
36.8892 7.379 0.205
36.9048 6.980 0.199
36.9204 6.650 0.195
36.9360 6.239 0.189
36.9517 6.154 0.187
36.9673 6.148 0.187
36.9829 6.450 0.192
36.9985 5.681 0.180
37.0141 5.447 0.176
37.0297 5.880 0.183
37.0454 5.607 0.179
37.0610 5.453 0.176
37.0766 5.356 0.175
37.0922 5.311 0.174
37.1078 5.322 0.174
37.1234 5.749 0.181
37.1390 5.402 0.175
37.1547 5.550 0.178
37.1703 5.305 0.174
37.1859 5.482 0.177
37.2015 5.316 0.174
37.2171 5.288 0.174
37.2327 5.351 0.175
37.2483 5.237 0.173
37.2640 5.715 0.180
37.2796 5.145 0.171
37.2952 5.465 0.176
37.3108 5.430 0.176
37.3264 5.635 0.179
37.3420 5.373 0.175
37.3577 5.795 0.182
37.3733 5.408 0.176
37.3889 5.476 0.177
37.4045 5.248 0.173
37.4201 5.379 0.175
37.4357 5.390 0.175
37.4513 5.413 0.176
37.4670 5.294 0.174
37.4826 5.578 0.178
37.4982 5.123 0.171
37.5138 4.855 0.166
37.5294 5.208 0.172
37.5450 5.248 0.173
37.5607 4.798 0.165
37.5763 4.815 0.166
37.5919 4.957 0.168
37.6075 5.242 0.173
37.6231 4.883 0.167
37.6387 4.701 0.164
37.6543 4.815 0.166
37.6700 5.191 0.172
37.6856 5.088 0.170
37.7012 4.969 0.168
37.7168 4.969 0.168
37.7324 4.969 0.168
37.7480 5.020 0.169
37.7636 4.695 0.164
37.7793 5.014 0.169
37.7949 4.935 0.168
37.8105 4.940 0.168
37.8261 4.775 0.165
37.8417 5.071 0.170
37.8573 5.242 0.173
37.8730 4.861 0.166
37.8886 4.900 0.167
37.9042 4.923 0.167
37.9198 5.020 0.169
37.9354 4.792 0.165
37.9510 5.100 0.170
37.9666 5.168 0.172
37.9823 5.259 0.173
37.9979 5.225 0.173
38.0135 4.849 0.166
38.0291 5.322 0.174
38.0447 4.923 0.167
38.0603 5.060 0.170
38.0759 5.026 0.169
38.0916 4.781 0.165
38.1072 5.265 0.173
38.1228 4.883 0.167
38.1384 5.037 0.169
38.1540 5.163 0.172
38.1696 4.712 0.164
38.1853 5.049 0.170
38.2009 4.553 0.161
38.2165 4.422 0.159
38.2321 4.792 0.165
38.2477 5.259 0.173
38.2633 4.804 0.165
38.2789 4.604 0.162
38.2946 4.627 0.162
38.3102 4.604 0.162
38.3258 4.764 0.165
38.3414 4.832 0.166
38.3570 4.980 0.168
38.3726 4.627 0.162
38.3883 4.621 0.162
38.4039 5.049 0.170
38.4195 4.952 0.168
38.4351 4.804 0.165
38.4507 4.781 0.165
38.4663 4.929 0.168
38.4819 4.747 0.164
38.4976 5.225 0.173
38.5132 5.077 0.170
38.5288 4.650 0.163
38.5444 4.895 0.167
38.5600 5.322 0.174
38.5756 5.208 0.172
38.5912 5.465 0.176
38.6069 5.527 0.177
38.6225 5.835 0.182
38.6381 6.422 0.191
38.6537 6.798 0.197
38.6693 7.305 0.204
38.6849 7.670 0.209
38.7006 8.866 0.225
38.7162 9.294 0.230
38.7318 9.117 0.228
38.7474 9.089 0.228
38.7630 9.191 0.229
38.7786 9.601 0.234
38.7942 11.094 0.251
38.8099 11.789 0.259
38.8255 12.838 0.270
38.8411 12.650 0.268
38.8567 12.690 0.269
38.8723 11.966 0.261
38.8879 10.798 0.248
38.9036 10.433 0.244
38.9192 10.131 0.240
38.9348 10.148 0.240
38.9504 10.034 0.239
38.9660 8.849 0.225
38.9816 8.023 0.214
38.9972 7.983 0.213
39.0129 7.504 0.207
39.0285 6.650 0.195
39.0441 6.502 0.192
39.0597 6.496 0.192
39.0753 6.228 0.188
39.0909 6.319 0.190
39.1065 6.228 0.188
39.1222 6.120 0.187
39.1378 6.034 0.185
39.1534 6.268 0.189
39.1690 6.182 0.188
39.1846 6.182 0.188
39.2002 5.806 0.182
39.2159 6.217 0.188
39.2315 6.553 0.193
39.2471 6.131 0.187
39.2627 6.125 0.187
39.2783 6.536 0.193
39.2939 6.143 0.187
39.3095 6.353 0.190
39.3252 6.308 0.190
39.3408 6.427 0.191
39.3564 6.490 0.192
39.3720 6.433 0.191
39.3876 6.217 0.188
39.4032 6.598 0.194
39.4188 6.371 0.191
39.4345 6.587 0.194
39.4501 6.410 0.191
39.4657 6.690 0.195
39.4813 5.835 0.182
39.4969 6.034 0.185
39.5125 6.177 0.188
39.5282 5.818 0.182
39.5438 6.057 0.186
39.5594 5.744 0.181
39.5750 5.869 0.183
39.5906 5.624 0.179
39.6062 5.681 0.180
39.6218 5.527 0.177
39.6375 5.823 0.182
39.6531 5.795 0.182
39.6687 5.949 0.184
39.6843 5.823 0.182
39.6999 5.584 0.178
39.7155 5.396 0.175
39.7312 5.550 0.178
39.7468 5.396 0.175
39.7624 5.539 0.178
39.7780 5.254 0.173
39.7936 5.453 0.176
39.8092 4.923 0.167
39.8248 4.786 0.165
39.8405 5.174 0.172
39.8561 4.912 0.167
39.8717 4.832 0.166
39.8873 4.952 0.168
39.9029 5.031 0.169
39.9185 4.997 0.169
39.9341 4.792 0.165
39.9498 4.940 0.168
39.9654 4.678 0.163
39.9810 4.604 0.162
39.9966 4.758 0.165
40.0122 4.821 0.166
40.0278 4.832 0.166
40.0435 4.690 0.163
40.0591 4.798 0.165
40.0747 4.678 0.163
40.0903 4.513 0.160
40.1059 4.878 0.167
40.1215 4.929 0.168
40.1371 4.467 0.160
40.1528 4.701 0.164
40.1684 4.484 0.160
40.1840 4.724 0.164
40.1996 4.610 0.162
40.2152 4.541 0.161
40.2308 4.467 0.160
40.2464 4.513 0.160
40.2621 4.587 0.162
40.2777 4.382 0.158
40.2933 4.547 0.161
40.3089 4.576 0.161
40.3245 4.524 0.161
40.3401 4.331 0.157
40.3558 4.291 0.156
40.3714 4.490 0.160
40.3870 4.633 0.162
40.4026 4.484 0.160
40.4182 4.564 0.161
40.4338 4.940 0.168
40.4494 4.963 0.168
40.4651 4.388 0.158
40.4807 4.502 0.160
40.4963 4.878 0.167
40.5119 4.627 0.162
40.5275 4.747 0.164
40.5431 4.615 0.162
40.5588 4.866 0.167
40.5744 4.587 0.162
40.5900 4.798 0.165
40.6056 4.598 0.162
40.6212 4.861 0.166
40.6368 4.758 0.165
40.6524 4.712 0.164
40.6681 5.060 0.170
40.6837 4.940 0.168
40.6993 4.940 0.168
40.7149 5.026 0.169
40.7305 5.168 0.172
40.7461 5.197 0.172
40.7617 5.259 0.173
40.7774 5.465 0.176
40.7930 5.852 0.183
40.8086 5.937 0.184
40.8242 5.630 0.179
40.8398 5.789 0.182
40.8554 6.171 0.188
40.8711 6.365 0.190
40.8867 6.143 0.187
40.9023 6.490 0.192
40.9179 6.365 0.190
40.9335 6.484 0.192
40.9491 7.134 0.202
40.9647 7.049 0.200
40.9804 7.413 0.206
40.9960 7.083 0.201
41.0116 6.940 0.199
41.0272 7.322 0.204
41.0428 7.328 0.204
41.0584 7.476 0.206
41.0740 7.784 0.211
41.0897 8.137 0.215
41.1053 8.183 0.216
41.1209 8.502 0.220
41.1365 9.026 0.227
41.1521 9.573 0.234
41.1677 9.442 0.232
41.1834 9.311 0.230
41.1990 9.915 0.238
41.2146 11.014 0.251
41.2302 11.305 0.254
41.2458 13.185 0.274
41.2614 14.342 0.286
41.2770 16.103 0.303
41.2927 19.938 0.337
41.3083 22.519 0.358
41.3239 26.907 0.392
41.3395 26.588 0.389
41.3551 26.662 0.390
41.3707 25.636 0.382
41.3864 24.149 0.371
41.4020 21.858 0.353
41.4176 21.488 0.350
41.4332 20.610 0.343
41.4488 19.938 0.337
41.4644 18.456 0.324
41.4800 16.428 0.306
41.4957 14.633 0.289
41.5113 12.553 0.267
41.5269 11.715 0.258
41.5425 10.519 0.245
41.5581 10.234 0.241
41.5737 9.476 0.232
41.5893 9.824 0.237
41.6050 10.029 0.239
41.6206 10.222 0.241
41.6362 10.952 0.250
41.6518 11.191 0.253
41.6674 10.940 0.250
41.6830 10.564 0.245
41.6987 9.989 0.239
41.7143 10.114 0.240
41.7299 9.442 0.232
41.7455 10.650 0.246
41.7611 10.274 0.242
41.7767 9.704 0.235
41.7923 9.191 0.229
41.8080 8.200 0.216
41.8236 8.188 0.216
41.8392 7.630 0.209
41.8548 7.396 0.205
41.8704 6.855 0.198
41.8860 6.655 0.195
41.9016 6.673 0.195
41.9173 6.171 0.188
41.9329 6.228 0.188
41.9485 5.926 0.184
41.9641 5.949 0.184
41.9797 5.704 0.180
41.9953 5.704 0.180
42.0110 5.607 0.179
42.0266 5.618 0.179
42.0422 5.812 0.182
42.0578 5.618 0.179
42.0734 5.465 0.176
42.0890 5.140 0.171
42.1046 5.071 0.170
42.1203 5.294 0.174
42.1359 5.071 0.170
42.1515 5.322 0.174
42.1671 5.117 0.171
42.1827 5.043 0.170
42.1983 4.798 0.165
42.2140 5.328 0.174
42.2296 5.208 0.172
42.2452 5.157 0.171
42.2608 5.345 0.175
42.2764 5.043 0.170
42.2920 4.992 0.169
42.3076 4.969 0.168
42.3233 5.100 0.170
42.3389 5.197 0.172
42.3545 4.957 0.168
42.3701 5.476 0.177
42.3857 5.100 0.170
42.4013 4.861 0.166
42.4169 5.202 0.172
42.4326 5.009 0.169
42.4482 5.202 0.172
42.4638 4.912 0.167
42.4794 5.100 0.170
42.4950 5.094 0.170
42.5106 4.798 0.165
42.5263 5.066 0.170
42.5419 5.168 0.172
42.5575 4.729 0.164
42.5731 5.225 0.173
42.5887 4.878 0.167
42.6043 4.764 0.165
42.6199 5.066 0.170
42.6356 4.917 0.167
42.6512 5.003 0.169
42.6668 5.482 0.177
42.6824 5.430 0.176
42.6980 5.368 0.175
42.7136 5.254 0.173
42.7292 5.527 0.177
42.7449 6.000 0.185
42.7605 6.086 0.186
42.7761 6.376 0.191
42.7917 6.530 0.193
42.8073 7.390 0.205
42.8229 7.920 0.212
42.8386 8.900 0.225
42.8542 9.624 0.234
42.8698 10.946 0.250
42.8854 11.174 0.252
42.9010 11.408 0.255
42.9166 10.889 0.249
42.9322 10.171 0.241
42.9479 9.852 0.237
42.9635 9.231 0.229
42.9791 9.425 0.232
42.9947 9.339 0.231
43.0103 9.391 0.231
43.0259 8.718 0.223
43.0416 8.490 0.220
43.0572 7.806 0.211
43.0728 7.482 0.206
43.0884 7.168 0.202
43.1040 6.878 0.198
43.1196 6.450 0.192
43.1352 6.690 0.195
43.1509 6.604 0.194
43.1665 6.502 0.192
43.1821 6.673 0.195
43.1977 6.359 0.190
43.2133 6.422 0.191
43.2289 6.336 0.190
43.2445 6.097 0.186
43.2602 6.211 0.188
43.2758 5.892 0.183
43.2914 6.097 0.186
43.3070 5.818 0.182
43.3226 5.755 0.181
43.3382 5.100 0.170
43.3539 5.465 0.176
43.3695 5.789 0.182
43.3851 5.202 0.172
43.4007 5.465 0.176
43.4163 5.066 0.170
43.4319 5.077 0.170
43.4475 4.866 0.167
43.4632 5.094 0.170
43.4788 5.208 0.172
43.4944 4.866 0.167
43.5100 5.049 0.170
43.5256 5.014 0.169
43.5412 4.735 0.164
43.5568 4.969 0.168
43.5725 5.094 0.170
43.5881 5.373 0.175
43.6037 5.100 0.170
43.6193 4.861 0.166
43.6349 5.111 0.171
43.6505 4.866 0.167
43.6662 5.174 0.172
43.6818 5.294 0.174
43.6974 4.861 0.166
43.7130 5.402 0.175
43.7286 5.624 0.179
43.7442 5.442 0.176
43.7598 5.869 0.183
43.7755 5.732 0.181
43.7911 5.653 0.179
43.8067 5.550 0.178
43.8223 5.915 0.184
43.8379 6.171 0.188
43.8535 6.365 0.190
43.8692 5.994 0.185
43.8848 6.148 0.187
43.9004 6.154 0.187
43.9160 6.410 0.191
43.9316 6.251 0.189
43.9472 6.422 0.191
43.9628 6.074 0.186
43.9785 6.667 0.195
43.9941 6.798 0.197
44.0097 6.524 0.193
44.0253 6.655 0.195
44.0409 6.758 0.196
44.0565 6.091 0.186
44.0721 6.695 0.195
44.0878 6.490 0.192
44.1034 6.348 0.190
44.1190 6.570 0.193
44.1346 6.405 0.191
44.1502 6.621 0.194
44.1658 6.245 0.189
44.1815 5.858 0.183
44.1971 6.239 0.189
44.2127 6.388 0.191
44.2283 6.046 0.186
44.2439 6.160 0.187
44.2595 5.977 0.185
44.2751 5.920 0.184
44.2908 5.949 0.184
44.3064 5.892 0.183
44.3220 5.710 0.180
44.3376 5.653 0.179
44.3532 5.624 0.179
44.3688 5.430 0.176
44.3845 5.054 0.170
44.4001 5.385 0.175
44.4157 5.254 0.173
44.4313 5.499 0.177
44.4469 5.151 0.171
44.4625 5.425 0.176
44.4781 5.231 0.173
44.4938 5.584 0.178
44.5094 5.459 0.176
44.5250 5.311 0.174
44.5406 5.527 0.177
44.5562 5.413 0.176
44.5718 5.316 0.174
44.5874 5.470 0.177
44.6031 5.362 0.175
44.6187 5.345 0.175
44.6343 4.974 0.168
44.6499 5.294 0.174
44.6655 5.111 0.171
44.6811 5.259 0.173
44.6968 5.168 0.172
44.7124 5.106 0.171
44.7280 4.861 0.166
44.7436 5.140 0.171
44.7592 5.094 0.170
44.7748 5.106 0.171
44.7904 4.644 0.163
44.8061 4.752 0.165
44.8217 4.598 0.162
44.8373 4.729 0.164
44.8529 4.946 0.168
44.8685 4.741 0.164
44.8841 4.963 0.168
44.8997 4.507 0.160
44.9154 4.370 0.158
44.9310 4.690 0.163
44.9466 4.570 0.161
44.9622 4.160 0.154
44.9778 4.262 0.156
44.9934 4.234 0.155
45.0091 4.336 0.157
45.0247 4.445 0.159
45.0403 4.217 0.155
45.0559 4.182 0.154
45.0715 4.370 0.158
45.0871 4.502 0.160
45.1027 4.353 0.157
45.1184 4.479 0.160
45.1340 4.274 0.156
45.1496 4.376 0.158
45.1652 4.815 0.166
45.1808 4.524 0.161
45.1964 4.462 0.159
45.2121 4.917 0.167
45.2277 4.804 0.165
45.2433 4.496 0.160
45.2589 4.684 0.163
45.2745 4.581 0.162
45.2901 4.758 0.165
45.3057 4.416 0.159
45.3214 4.416 0.159
45.3370 4.724 0.164
45.3526 4.217 0.155
45.3682 4.781 0.165
45.3838 4.992 0.169
45.3994 4.712 0.164
45.4150 4.889 0.167
45.4307 4.342 0.157
45.4463 4.661 0.163
45.4619 4.598 0.162
45.4775 4.410 0.159
45.4931 4.792 0.165
45.5087 4.929 0.168
45.5244 4.661 0.163
45.5400 4.593 0.162
45.5556 4.815 0.166
45.5712 4.912 0.167
45.5868 4.957 0.168
45.6024 4.815 0.166
45.6180 4.832 0.166
45.6337 5.168 0.172
45.6493 5.368 0.175
45.6649 5.202 0.172
45.6805 5.670 0.180
45.6961 6.103 0.186
45.7117 6.673 0.195
45.7273 7.100 0.201
45.7430 6.610 0.194
45.7586 6.775 0.196
45.7742 7.128 0.202
45.7898 7.163 0.202
45.8054 6.655 0.195
45.8210 6.786 0.197
45.8367 7.373 0.205
45.8523 7.225 0.203
45.8679 7.442 0.206
45.8835 8.114 0.215
45.8991 8.148 0.215
45.9147 8.376 0.218
45.9303 7.749 0.210
45.9460 7.550 0.207
45.9616 6.775 0.196
45.9772 6.712 0.196
45.9928 6.781 0.197
46.0084 5.920 0.184
46.0240 6.245 0.189
46.0397 6.160 0.187
46.0553 5.675 0.180
46.0709 5.749 0.181
46.0865 5.202 0.172
46.1021 4.849 0.166
46.1177 4.917 0.167
46.1333 4.678 0.163
46.1490 4.747 0.164
46.1646 4.627 0.162
46.1802 4.684 0.163
46.1958 4.416 0.159
46.2114 4.661 0.163
46.2270 4.439 0.159
46.2426 4.473 0.160
46.2583 4.154 0.154
46.2739 4.171 0.154
46.2895 4.370 0.158
46.3051 4.370 0.158
46.3207 4.741 0.164
46.3363 4.313 0.157
46.3520 4.370 0.158
46.3676 4.211 0.155
46.3832 4.319 0.157
46.3988 4.496 0.160
46.4144 4.553 0.161
46.4300 4.365 0.158
46.4456 4.621 0.162
46.4613 4.439 0.159
46.4769 4.125 0.153
46.4925 4.388 0.158
46.5081 4.279 0.156
46.5237 4.502 0.160
46.5393 4.450 0.159
46.5549 4.553 0.161
46.5706 4.593 0.162
46.5862 4.519 0.160
46.6018 4.747 0.164
46.6174 4.747 0.164
46.6330 4.866 0.167
46.6486 4.581 0.162
46.6643 4.690 0.163
46.6799 4.838 0.166
46.6955 4.627 0.162
46.7111 4.741 0.164
46.7267 4.644 0.163
46.7423 4.889 0.167
46.7579 5.060 0.170
46.7736 4.775 0.165
46.7892 5.402 0.175
46.8048 5.356 0.175
46.8204 5.664 0.180
46.8360 5.710 0.180
46.8516 6.644 0.195
46.8673 6.769 0.196
46.8829 6.861 0.198
46.8985 7.071 0.201
46.9141 7.704 0.210
46.9297 7.522 0.207
46.9453 7.994 0.213
46.9609 8.485 0.220
46.9766 8.758 0.223
46.9922 9.715 0.235
47.0078 10.450 0.244
47.0234 11.083 0.251
47.0390 10.912 0.249
47.0546 11.248 0.253
47.0702 9.835 0.237
47.0859 8.923 0.225
47.1015 9.117 0.228
47.1171 8.946 0.226
47.1327 8.821 0.224
47.1483 9.396 0.231
47.1639 9.146 0.228
47.1796 8.889 0.225
47.1952 9.163 0.228
47.2108 8.194 0.216
47.2264 7.949 0.213
47.2420 7.835 0.211
47.2576 7.385 0.205
47.2732 7.305 0.204
47.2889 7.687 0.209
47.3045 7.242 0.203
47.3201 6.912 0.198
47.3357 7.145 0.202
47.3513 7.442 0.206
47.3669 6.906 0.198
47.3825 7.265 0.203
47.3982 6.758 0.196
47.4138 6.895 0.198
47.4294 6.781 0.197
47.4450 6.217 0.188
47.4606 6.661 0.195
47.4762 6.262 0.189
47.4919 6.205 0.188
47.5075 5.721 0.181
47.5231 6.148 0.187
47.5387 6.131 0.187
47.5543 5.504 0.177
47.5699 5.282 0.173
47.5855 5.504 0.177
47.6012 5.248 0.173
47.6168 5.476 0.177
47.6324 4.900 0.167
47.6480 4.963 0.168
47.6636 5.197 0.172
47.6792 4.980 0.168
47.6949 5.259 0.173
47.7105 4.992 0.169
47.7261 4.900 0.167
47.7417 4.963 0.168
47.7573 5.020 0.169
47.7729 5.202 0.172
47.7885 4.610 0.162
47.8042 4.678 0.163
47.8198 4.633 0.162
47.8354 4.655 0.163
47.8510 4.900 0.167
47.8666 4.986 0.169
47.8822 4.593 0.162
47.8978 4.530 0.161
47.9135 4.707 0.164
47.9291 4.661 0.163
47.9447 4.154 0.154
47.9603 4.718 0.164
47.9759 4.308 0.157
47.9915 4.336 0.157
48.0072 4.239 0.155
48.0228 4.291 0.156
48.0384 4.228 0.155
48.0540 4.331 0.157
48.0696 4.160 0.154
48.0852 4.279 0.156
48.1008 4.325 0.157
48.1165 4.103 0.153
48.1321 4.433 0.159
48.1477 4.131 0.153
48.1633 4.251 0.156
48.1789 4.336 0.157
48.1945 4.644 0.163
48.2101 4.382 0.158
48.2258 4.513 0.160
48.2414 4.125 0.153
48.2570 4.274 0.156
48.2726 3.932 0.150
48.2882 4.011 0.151
48.3038 4.450 0.159
48.3195 4.120 0.153
48.3351 4.433 0.159
48.3507 4.165 0.154
48.3663 3.972 0.150
48.3819 3.880 0.149
48.3975 4.308 0.157
48.4131 3.898 0.149
48.4288 3.875 0.149
48.4444 4.188 0.154
48.4600 4.086 0.153
48.4756 3.977 0.151
48.4912 4.200 0.155
48.5068 3.898 0.149
48.5225 4.205 0.155
48.5381 4.017 0.151
48.5537 3.977 0.151
48.5693 3.829 0.148
48.5849 4.108 0.153
48.6005 4.074 0.152
48.6161 3.829 0.148
48.6318 3.801 0.147
48.6474 3.960 0.150
48.6630 3.744 0.146
48.6786 4.080 0.152
48.6942 4.200 0.155
48.7098 4.051 0.152
48.7254 3.960 0.150
48.7411 4.313 0.157
48.7567 4.154 0.154
48.7723 4.097 0.153
48.7879 4.279 0.156
48.8035 4.245 0.156
48.8191 4.422 0.159
48.8348 4.433 0.159
48.8504 4.205 0.155
48.8660 4.416 0.159
48.8816 4.393 0.158
48.8972 4.661 0.163
48.9128 4.724 0.164
48.9284 4.741 0.164
48.9441 4.661 0.163
48.9597 4.792 0.165
48.9753 4.667 0.163
48.9909 4.781 0.165
49.0065 4.376 0.158
49.0221 4.741 0.164
49.0378 4.690 0.163
49.0534 4.690 0.163
49.0690 4.553 0.161
49.0846 4.878 0.167
49.1002 5.003 0.169
49.1158 4.530 0.161
49.1314 4.308 0.157
49.1471 4.553 0.161
49.1627 4.593 0.162
49.1783 4.604 0.162
49.1939 4.559 0.161
49.2095 4.815 0.166
49.2251 4.450 0.159
49.2407 4.319 0.157
49.2564 4.644 0.163
49.2720 4.547 0.161
49.2876 4.633 0.162
49.3032 4.644 0.163
49.3188 4.279 0.156
49.3344 4.473 0.160
49.3501 4.399 0.158
49.3657 4.547 0.161
49.3813 4.502 0.160
49.3969 4.433 0.159
49.4125 4.439 0.159
49.4281 4.906 0.167
49.4437 4.268 0.156
49.4594 4.473 0.160
49.4750 4.855 0.166
49.4906 4.792 0.165
49.5062 4.895 0.167
49.5218 4.786 0.165
49.5374 4.604 0.162
49.5530 5.094 0.170
49.5687 5.453 0.176
49.5843 5.316 0.174
49.5999 5.248 0.173
49.6155 6.012 0.185
49.6311 6.012 0.185
49.6467 6.125 0.187
49.6624 6.382 0.191
49.6780 6.450 0.192
49.6936 6.729 0.196
49.7092 6.889 0.198
49.7248 7.083 0.201
49.7404 6.393 0.191
49.7560 6.439 0.192
49.7717 6.752 0.196
49.7873 6.547 0.193
49.8029 6.621 0.194
49.8185 6.473 0.192
49.8341 6.661 0.195
49.8497 6.969 0.199
49.8654 7.237 0.203
49.8810 7.043 0.200
49.8966 6.889 0.198
49.9122 6.929 0.199
49.9278 6.957 0.199
49.9434 6.997 0.200
49.9590 6.581 0.194
49.9747 6.900 0.198
49.9903 6.838 0.197
50.0059 7.054 0.200
50.0215 7.060 0.201
50.0371 7.539 0.207
50.0527 7.413 0.206
50.0683 6.935 0.199
50.0840 6.957 0.199
50.0996 6.456 0.192
50.1152 6.621 0.194
50.1308 6.160 0.187
50.1464 5.880 0.183
50.1620 6.057 0.186
50.1777 5.858 0.183
50.1933 5.681 0.180
50.2089 5.584 0.178
50.2245 5.550 0.178
50.2401 5.254 0.173
50.2557 4.821 0.166
50.2713 4.923 0.167
50.2870 5.009 0.169
50.3026 4.576 0.161
50.3182 4.843 0.166
50.3338 4.695 0.164
50.3494 4.627 0.162
50.3650 4.467 0.160
50.3806 4.108 0.153
50.3963 4.450 0.159
50.4119 4.348 0.157
50.4275 4.610 0.162
50.4431 4.507 0.160
50.4587 4.576 0.161
50.4743 4.878 0.167
50.4900 4.291 0.156
50.5056 4.541 0.161
50.5212 4.496 0.160
50.5368 4.450 0.159
50.5524 4.393 0.158
50.5680 4.308 0.157
50.5836 4.462 0.159
50.5993 4.661 0.163
50.6149 4.456 0.159
50.6305 4.581 0.162
50.6461 4.661 0.163
50.6617 4.279 0.156
50.6773 4.353 0.157
50.6930 4.148 0.154
50.7086 4.257 0.156
50.7242 3.977 0.151
50.7398 4.342 0.157
50.7554 4.336 0.157
50.7710 4.194 0.155
50.7866 4.370 0.158
50.8023 4.467 0.160
50.8179 4.519 0.160
50.8335 4.524 0.161
50.8491 4.279 0.156
50.8647 4.399 0.158
50.8803 4.519 0.160
50.8959 4.450 0.159
50.9116 4.917 0.167
50.9272 4.422 0.159
50.9428 4.861 0.166
50.9584 4.559 0.161
50.9740 4.707 0.164
50.9896 4.718 0.164
51.0053 4.416 0.159
51.0209 4.581 0.162
51.0365 4.724 0.164
51.0521 4.336 0.157
51.0677 4.171 0.154
51.0833 4.154 0.154
51.0989 4.234 0.155
51.1146 4.359 0.158
51.1302 4.519 0.160
51.1458 4.217 0.155
51.1614 4.615 0.162
51.1770 4.040 0.152
51.1926 4.342 0.157
51.2082 4.427 0.159
51.2239 4.359 0.158
51.2395 4.257 0.156
51.2551 4.245 0.156
51.2707 4.655 0.163
51.2863 4.313 0.157
51.3019 4.245 0.156
51.3176 4.393 0.158
51.3332 4.348 0.157
51.3488 4.291 0.156
51.3644 4.604 0.162
51.3800 4.866 0.167
51.3956 4.701 0.164
51.4112 4.752 0.165
51.4269 5.151 0.171
51.4425 4.741 0.164
51.4581 5.066 0.170
51.4737 5.117 0.171
51.4893 5.168 0.172
51.5049 5.442 0.176
51.5206 5.504 0.177
51.5362 5.521 0.177
51.5518 5.516 0.177
51.5674 5.966 0.184
51.5830 6.382 0.191
51.5986 6.530 0.193
51.6142 6.792 0.197
51.6299 7.225 0.203
51.6455 7.994 0.213
51.6611 9.465 0.232
51.6767 10.872 0.249
51.6923 12.490 0.267
51.7079 15.225 0.295
51.7235 17.516 0.316
51.7392 19.841 0.336
51.7548 21.767 0.352
51.7704 22.291 0.356
51.7860 20.963 0.346
51.8016 18.302 0.323
51.8172 18.103 0.321
51.8329 16.274 0.305
51.8485 16.718 0.309
51.8641 16.969 0.311
51.8797 17.545 0.316
51.8953 18.553 0.325
51.9109 18.912 0.328
51.9265 18.610 0.326
51.9422 17.943 0.320
51.9578 16.918 0.310
51.9734 15.733 0.299
51.9890 13.613 0.279
52.0046 12.678 0.269
52.0202 11.100 0.251
52.0358 10.308 0.242
52.0515 9.425 0.232
52.0671 9.470 0.232
52.0827 9.567 0.233
52.0983 9.140 0.228
52.1139 8.946 0.226
52.1295 8.069 0.214
52.1452 7.470 0.206
52.1608 6.975 0.199
52.1764 6.405 0.191
52.1920 5.504 0.177
52.2076 5.573 0.178
52.2232 5.316 0.174
52.2388 5.168 0.172
52.2545 5.123 0.171
52.2701 4.974 0.168
52.2857 4.906 0.167
52.3013 4.775 0.165
52.3169 4.798 0.165
52.3325 4.633 0.162
52.3482 4.735 0.164
52.3638 4.747 0.164
52.3794 4.661 0.163
52.3950 4.416 0.159
52.4106 4.507 0.160
52.4262 4.456 0.159
52.4418 4.536 0.161
52.4575 4.450 0.159
52.4731 4.490 0.160
52.4887 4.445 0.159
52.5043 4.547 0.161
52.5199 4.553 0.161
52.5355 4.353 0.157
52.5511 4.257 0.156
52.5668 4.074 0.152
52.5824 4.410 0.159
52.5980 4.536 0.161
52.6136 4.000 0.151
52.6292 4.171 0.154
52.6448 4.148 0.154
52.6605 4.148 0.154
52.6761 4.114 0.153
52.6917 4.017 0.151
52.7073 4.245 0.156
52.7229 4.143 0.154
52.7385 4.302 0.157
52.7541 4.051 0.152
52.7698 4.376 0.158
52.7854 3.920 0.149
52.8010 4.342 0.157
52.8166 4.188 0.154
52.8322 4.399 0.158
52.8478 4.239 0.155
52.8634 4.308 0.157
52.8791 4.393 0.158
52.8947 4.479 0.160
52.9103 4.456 0.159
52.9259 4.313 0.157
52.9415 4.547 0.161
52.9571 4.701 0.164
52.9728 4.598 0.162
52.9884 4.593 0.162
53.0040 4.490 0.160
53.0196 4.883 0.167
53.0352 4.843 0.166
53.0508 4.992 0.169
53.0664 4.861 0.166
53.0821 4.502 0.160
53.0977 4.849 0.166
53.1133 4.234 0.155
53.1289 4.507 0.160
53.1445 4.530 0.161
53.1601 4.524 0.161
53.1758 4.764 0.165
53.1914 4.655 0.163
53.2070 4.638 0.163
53.2226 4.701 0.164
53.2382 4.370 0.158
53.2538 4.416 0.159
53.2694 4.382 0.158
53.2851 4.462 0.159
53.3007 4.467 0.160
53.3163 4.650 0.163
53.3319 4.433 0.159
53.3475 4.479 0.160
53.3631 4.308 0.157
53.3787 4.348 0.157
53.3944 4.604 0.162
53.4100 4.507 0.160
53.4256 4.439 0.159
53.4412 4.114 0.153
53.4568 4.285 0.156
53.4724 4.308 0.157
53.4881 4.661 0.163
53.5037 4.462 0.159
53.5193 4.376 0.158
53.5349 4.268 0.156
53.5505 4.319 0.157
53.5661 4.154 0.154
53.5817 4.433 0.159
53.5974 4.234 0.155
53.6130 4.228 0.155
53.6286 4.091 0.153
53.6442 4.462 0.159
53.6598 4.308 0.157
53.6754 3.960 0.150
53.6910 4.200 0.155
53.7067 4.068 0.152
53.7223 4.057 0.152
53.7379 4.154 0.154
53.7535 4.063 0.152
53.7691 4.063 0.152
53.7847 4.011 0.151
53.8004 4.205 0.155
53.8160 3.943 0.150
53.8316 4.222 0.155
53.8472 4.376 0.158
53.8628 4.228 0.155
53.8784 4.165 0.154
53.8940 4.365 0.158
53.9097 4.530 0.161
53.9253 4.393 0.158
53.9409 4.222 0.155
53.9565 4.433 0.159
53.9721 4.285 0.156
53.9877 4.348 0.157
54.0034 4.627 0.162
54.0190 4.610 0.162
54.0346 4.906 0.167
54.0502 4.633 0.162
54.0658 4.946 0.168
54.0814 4.917 0.167
54.0970 4.935 0.168
54.1127 4.821 0.166
54.1283 4.644 0.163
54.1439 4.490 0.160
54.1595 4.758 0.165
54.1751 4.821 0.166
54.1907 4.667 0.163
54.2063 4.638 0.163
54.2220 4.752 0.165
54.2376 4.564 0.161
54.2532 4.370 0.158
54.2688 4.940 0.168
54.2844 4.707 0.164
54.3000 4.804 0.165
54.3157 4.781 0.165
54.3313 4.861 0.166
54.3469 4.564 0.161
54.3625 4.536 0.161
54.3781 4.325 0.157
54.3937 4.365 0.158
54.4093 4.228 0.155
54.4250 4.006 0.151
54.4406 4.405 0.158
54.4562 4.205 0.155
54.4718 4.302 0.157
54.4874 3.835 0.148
54.5030 4.450 0.159
54.5187 4.063 0.152
54.5343 4.262 0.156
54.5499 4.000 0.151
54.5655 4.205 0.155
54.5811 3.943 0.150
54.5967 4.006 0.151
54.6123 3.630 0.144
54.6280 3.647 0.144
54.6436 3.994 0.151
54.6592 3.709 0.145
54.6748 4.165 0.154
54.6904 3.590 0.143
54.7060 4.029 0.152
54.7216 3.744 0.146
54.7373 4.000 0.151
54.7529 4.017 0.151
54.7685 3.886 0.149
54.7841 4.200 0.155
54.7997 3.937 0.150
54.8153 3.806 0.147
54.8310 3.618 0.144
54.8466 3.778 0.147
54.8622 3.823 0.148
54.8778 3.653 0.144
54.8934 3.727 0.146
54.9090 3.624 0.144
54.9246 4.017 0.151
54.9403 3.932 0.150
54.9559 3.812 0.147
54.9715 3.932 0.150
54.9871 4.177 0.154
55.0027 3.738 0.146
55.0183 4.080 0.152
55.0339 3.681 0.145
55.0496 3.989 0.151
55.0652 3.709 0.145
55.0808 4.211 0.155
55.0964 3.892 0.149
55.1120 3.915 0.149
55.1276 3.966 0.150
55.1433 4.228 0.155
55.1589 3.949 0.150
55.1745 4.148 0.154
55.1901 4.080 0.152
55.2057 3.829 0.148
55.2213 4.011 0.151
55.2369 3.983 0.151
55.2526 4.103 0.153
55.2682 4.011 0.151
55.2838 3.613 0.143
55.2994 4.143 0.154
55.3150 3.772 0.147
55.3306 4.023 0.151
55.3463 3.499 0.141
55.3619 3.875 0.149
55.3775 3.869 0.148
55.3931 4.006 0.151
55.4087 4.154 0.154
55.4243 3.926 0.150
55.4399 3.960 0.150
55.4556 3.920 0.149
55.4712 3.909 0.149
55.4868 3.937 0.150
55.5024 3.926 0.150
55.5180 3.675 0.145
55.5336 4.063 0.152
55.5492 3.801 0.147
55.5649 4.091 0.153
55.5805 3.835 0.148
55.5961 4.222 0.155
55.6117 4.348 0.157
55.6273 4.011 0.151
55.6429 4.120 0.153
55.6586 3.863 0.148
55.6742 4.006 0.151
55.6898 4.336 0.157
55.7054 3.886 0.149
55.7210 3.920 0.149
55.7366 3.943 0.150
55.7522 3.915 0.149
55.7679 3.926 0.150
55.7835 4.325 0.157
55.7991 4.217 0.155
55.8147 3.972 0.150
55.8303 4.262 0.156
55.8459 4.610 0.162
55.8615 4.222 0.155
55.8772 4.097 0.153
55.8928 4.707 0.164
55.9084 4.331 0.157
55.9240 4.570 0.161
55.9396 4.804 0.165
55.9552 5.049 0.170
55.9709 4.992 0.169
55.9865 5.077 0.170
56.0021 5.157 0.171
56.0177 5.185 0.172
56.0333 5.208 0.172
56.0489 5.316 0.174
56.0645 5.339 0.174
56.0802 5.111 0.171
56.0958 5.259 0.173
56.1114 5.339 0.174
56.1270 5.288 0.174
56.1426 5.168 0.172
56.1582 5.294 0.174
56.1739 5.271 0.173
56.1895 5.145 0.171
56.2051 5.106 0.171
56.2207 5.060 0.170
56.2363 5.402 0.175
56.2519 5.544 0.178
56.2675 5.721 0.181
56.2832 5.373 0.175
56.2988 5.647 0.179
56.3144 5.339 0.174
56.3300 5.584 0.178
56.3456 6.080 0.186
56.3612 6.302 0.190
56.3768 6.097 0.186
56.3925 6.205 0.188
56.4081 6.655 0.195
56.4237 7.009 0.200
56.4393 7.898 0.212
56.4549 8.633 0.222
56.4705 8.513 0.220
56.4862 9.527 0.233
56.5018 10.057 0.239
56.5174 10.297 0.242
56.5330 9.983 0.239
56.5486 10.069 0.240
56.5642 10.450 0.244
56.5798 10.997 0.250
56.5955 11.607 0.257
56.6111 12.576 0.268
56.6267 13.032 0.272
56.6423 12.536 0.267
56.6579 12.530 0.267
56.6735 11.732 0.259
56.6891 10.217 0.241
56.7048 9.727 0.235
56.7204 8.861 0.225
56.7360 8.513 0.220
56.7516 8.730 0.223
56.7672 8.661 0.222
56.7828 8.268 0.217
56.7985 8.165 0.216
56.8141 7.949 0.213
56.8297 7.094 0.201
56.8453 7.088 0.201
56.8609 6.040 0.186
56.8765 5.823 0.182
56.8921 5.402 0.175
56.9078 5.396 0.175
56.9234 5.316 0.174
56.9390 5.128 0.171
56.9546 5.026 0.169
56.9702 4.866 0.167
56.9858 4.655 0.163
57.0015 4.712 0.164
57.0171 4.513 0.160
57.0327 4.701 0.164
57.0483 4.775 0.165
57.0639 4.559 0.161
57.0795 4.450 0.159
57.0951 4.906 0.167
57.1108 4.422 0.159
57.1264 4.576 0.161
57.1420 4.519 0.160
57.1576 4.576 0.161
57.1732 4.268 0.156
57.1888 4.393 0.158
57.2044 4.325 0.157
57.2201 4.695 0.164
57.2357 4.353 0.157
57.2513 4.473 0.160
57.2669 4.598 0.162
57.2825 4.445 0.159
57.2981 4.684 0.163
57.3138 4.764 0.165
57.3294 4.484 0.160
57.3450 4.405 0.158
57.3606 4.553 0.161
57.3762 4.211 0.155
57.3918 4.701 0.164
57.4074 4.576 0.161
57.4231 4.479 0.160
57.4387 4.564 0.161
57.4543 4.393 0.158
57.4699 4.171 0.154
57.4855 4.410 0.159
57.5011 4.576 0.161
57.5167 4.410 0.159
57.5324 4.291 0.156
57.5480 4.388 0.158
57.5636 4.405 0.158
57.5792 4.456 0.159
57.5948 4.587 0.162
57.6104 4.530 0.161
57.6261 4.405 0.158
57.6417 4.251 0.156
57.6573 4.764 0.165
57.6729 4.621 0.162
57.6885 4.513 0.160
57.7041 4.393 0.158
57.7197 4.741 0.164
57.7354 4.530 0.161
57.7510 4.376 0.158
57.7666 4.188 0.154
57.7822 4.684 0.163
57.7978 4.171 0.154
57.8134 4.678 0.163
57.8291 4.462 0.159
57.8447 4.262 0.156
57.8603 4.638 0.163
57.8759 4.992 0.169
57.8915 4.513 0.160
57.9071 4.752 0.165
57.9227 4.376 0.158
57.9384 4.655 0.163
57.9540 4.786 0.165
57.9696 4.610 0.162
57.9852 4.524 0.161
58.0008 4.439 0.159
58.0164 4.917 0.167
58.0320 4.559 0.161
58.0477 4.695 0.164
58.0633 4.741 0.164
58.0789 4.587 0.162
58.0945 4.445 0.159
58.1101 4.393 0.158
58.1257 4.633 0.162
58.1414 4.604 0.162
58.1570 4.319 0.157
58.1726 4.667 0.163
58.1882 4.678 0.163
58.2038 4.308 0.157
58.2194 4.667 0.163
58.2350 4.553 0.161
58.2507 4.370 0.158
58.2663 4.342 0.157
58.2819 4.382 0.158
58.2975 4.405 0.158
58.3131 4.502 0.160
58.3287 4.735 0.164
58.3443 4.655 0.163
58.3600 4.296 0.156
58.3756 4.593 0.162
58.3912 4.724 0.164
58.4068 4.786 0.165
58.4224 4.866 0.167
58.4380 5.031 0.169
58.4537 4.957 0.168
58.4693 5.128 0.171
58.4849 5.282 0.173
58.5005 5.037 0.169
58.5161 5.163 0.172
58.5317 5.333 0.174
58.5473 5.288 0.174
58.5630 5.106 0.171
58.5786 5.106 0.171
58.5942 5.031 0.169
58.6098 5.003 0.169
58.6254 5.385 0.175
58.6410 5.259 0.173
58.6567 5.202 0.172
58.6723 5.100 0.170
58.6879 5.214 0.172
58.7035 5.248 0.173
58.7191 5.037 0.169
58.7347 4.843 0.166
58.7503 4.821 0.166
58.7660 5.163 0.172
58.7816 4.821 0.166
58.7972 4.786 0.165
58.8128 4.855 0.166
58.8284 4.832 0.166
58.8440 4.570 0.161
58.8596 4.462 0.159
58.8753 4.462 0.159
58.8909 4.462 0.159
58.9065 4.279 0.156
58.9221 4.507 0.160
58.9377 4.473 0.160
58.9533 4.257 0.156
58.9690 4.222 0.155
58.9846 4.348 0.157
59.0002 4.559 0.161
59.0158 4.342 0.157
59.0314 4.205 0.155
59.0470 4.291 0.156
59.0626 4.496 0.160
59.0783 4.353 0.157
59.0939 4.194 0.155
59.1095 4.507 0.160
59.1251 4.427 0.159
59.1407 4.245 0.156
59.1563 4.821 0.166
59.1720 4.496 0.160
59.1876 4.285 0.156
59.2032 4.462 0.159
59.2188 4.279 0.156
59.2344 4.536 0.161
59.2500 4.576 0.161
59.2656 4.291 0.156
59.2813 4.661 0.163
59.2969 4.843 0.166
59.3125 4.980 0.168
59.3281 4.650 0.163
59.3437 4.650 0.163
59.3593 4.547 0.161
59.3749 4.883 0.167
59.3906 4.610 0.162
59.4062 4.786 0.165
59.4218 4.638 0.163
59.4374 4.712 0.164
59.4530 4.456 0.159
59.4686 4.963 0.168
59.4843 4.621 0.162
59.4999 4.752 0.165
59.5155 4.610 0.162
59.5311 4.370 0.158
59.5467 4.257 0.156
59.5623 4.895 0.167
59.5779 4.484 0.160
59.5936 4.370 0.158
59.6092 4.450 0.159
59.6248 4.615 0.162
59.6404 4.900 0.167
59.6560 4.308 0.157
59.6716 4.547 0.161
59.6872 4.775 0.165
59.7029 4.872 0.167
59.7185 4.308 0.157
59.7341 4.336 0.157
59.7497 4.786 0.165
59.7653 4.536 0.161
59.7809 4.826 0.166
59.7966 5.163 0.172
59.8122 5.014 0.169
59.8278 4.992 0.169
59.8434 5.128 0.171
59.8590 5.134 0.171
59.8746 5.248 0.173
59.8902 5.681 0.180
59.9059 5.630 0.179
59.9215 6.234 0.188
59.9371 6.604 0.194
59.9527 6.872 0.198
59.9683 7.675 0.209
59.9839 8.074 0.214
59.9996 8.849 0.225
60.0152 10.074 0.240
60.0308 10.513 0.245
60.0464 10.866 0.249
60.0620 11.032 0.251
60.0776 10.228 0.241
60.0932 9.590 0.234
60.1089 8.371 0.218
60.1245 8.296 0.217
60.1401 8.017 0.214
60.1557 7.675 0.209
60.1713 8.000 0.214
60.1869 8.006 0.214
60.2025 8.120 0.215
60.2182 7.892 0.212
60.2338 8.291 0.217
60.2494 7.379 0.205
60.2650 7.242 0.203
60.2806 6.279 0.189
60.2962 5.806 0.182
60.3119 5.789 0.182
60.3275 5.436 0.176
60.3431 5.231 0.173
60.3587 5.442 0.176
60.3743 5.066 0.170
60.3899 5.453 0.176
60.4055 5.163 0.172
60.4212 5.083 0.170
60.4368 4.849 0.166
60.4524 5.225 0.173
60.4680 4.980 0.168
60.4836 5.026 0.169
60.4992 5.219 0.172
60.5148 4.935 0.168
60.5305 4.712 0.164
60.5461 5.026 0.169
60.5617 5.060 0.170
60.5773 5.163 0.172
60.5929 5.014 0.169
60.6085 5.020 0.169
60.6242 4.638 0.163
60.6398 5.054 0.170
60.6554 4.929 0.168
60.6710 5.060 0.170
60.6866 4.490 0.160
60.7022 5.259 0.173
60.7178 5.026 0.169
60.7335 4.986 0.169
60.7491 5.009 0.169
60.7647 5.043 0.170
60.7803 5.282 0.173
60.7959 5.368 0.175
60.8115 5.425 0.176
60.8272 5.225 0.173
60.8428 5.248 0.173
60.8584 5.231 0.173
60.8740 5.180 0.172
60.8896 5.191 0.172
60.9052 4.718 0.164
60.9208 4.752 0.165
60.9365 4.815 0.166
60.9521 4.883 0.167
60.9677 5.060 0.170
60.9833 4.553 0.161
60.9989 4.798 0.165
61.0145 4.769 0.165
61.0301 4.764 0.165
61.0458 4.718 0.164
61.0614 4.690 0.163
61.0770 4.559 0.161
61.0926 4.604 0.162
61.1082 4.747 0.164
61.1238 4.439 0.159
61.1395 4.690 0.163
61.1551 4.615 0.162
61.1707 4.638 0.163
61.1863 4.718 0.164
61.2019 4.638 0.163
61.2175 4.633 0.162
61.2331 4.547 0.161
61.2488 4.712 0.164
61.2644 4.644 0.163
61.2800 4.479 0.160
61.2956 4.644 0.163
61.3112 4.735 0.164
61.3268 4.507 0.160
61.3424 4.370 0.158
61.3581 4.490 0.160
61.3737 4.701 0.164
61.3893 4.427 0.159
61.4049 4.507 0.160
61.4205 4.678 0.163
61.4361 4.331 0.157
61.4518 4.228 0.155
61.4674 4.296 0.156
61.4830 4.456 0.159
61.4986 4.570 0.161
61.5142 4.564 0.161
61.5298 4.610 0.162
61.5454 4.604 0.162
61.5611 4.479 0.160
61.5767 4.325 0.157
61.5923 4.484 0.160
61.6079 4.319 0.157
61.6235 4.211 0.155
61.6391 4.598 0.162
61.6548 4.353 0.157
61.6704 4.610 0.162
61.6860 4.285 0.156
61.7016 4.262 0.156
61.7172 4.627 0.162
61.7328 4.234 0.155
61.7484 4.576 0.161
61.7641 4.507 0.160
61.7797 4.587 0.162
61.7953 4.667 0.163
61.8109 4.672 0.163
61.8265 4.376 0.158
61.8421 4.439 0.159
61.8577 4.638 0.163
61.8734 5.003 0.169
61.8890 4.764 0.165
61.9046 4.861 0.166
61.9202 4.872 0.167
61.9358 5.043 0.170
61.9514 5.276 0.173
61.9671 5.088 0.170
61.9827 5.134 0.171
61.9983 5.413 0.176
62.0139 5.049 0.170
62.0295 5.425 0.176
62.0451 5.168 0.172
62.0607 5.470 0.177
62.0764 5.402 0.175
62.0920 5.784 0.182
62.1076 5.801 0.182
62.1232 6.684 0.195
62.1388 6.821 0.197
62.1544 6.963 0.199
62.1700 7.567 0.208
62.1857 7.886 0.212
62.2013 8.918 0.225
62.2169 9.527 0.233
62.2325 10.257 0.242
62.2481 11.237 0.253
62.2637 11.898 0.260
62.2794 12.787 0.270
62.2950 12.958 0.272
62.3106 13.750 0.280
62.3262 13.334 0.276
62.3418 14.052 0.283
62.3574 14.103 0.283
62.3730 14.388 0.286
62.3887 14.029 0.283
62.4043 14.547 0.288
62.4199 14.439 0.287
62.4355 13.949 0.282
62.4511 14.354 0.286
62.4667 14.365 0.286
62.4824 14.006 0.283
62.4980 14.992 0.292
62.5136 13.955 0.282
62.5292 12.980 0.272
62.5448 12.564 0.268
62.5604 11.744 0.259
62.5760 11.596 0.257
62.5917 10.872 0.249
62.6073 10.376 0.243
62.6229 10.365 0.243
62.6385 10.359 0.243
62.6541 10.416 0.244
62.6697 10.000 0.239
62.6853 9.789 0.236
62.7010 9.237 0.229
62.7166 8.353 0.218
62.7322 7.784 0.211
62.7478 6.690 0.195
62.7634 6.655 0.195
62.7790 6.063 0.186
62.7947 6.177 0.188
62.8103 5.977 0.185
62.8259 6.405 0.191
62.8415 5.972 0.184
62.8571 5.892 0.183
62.8727 5.590 0.178
62.8883 5.641 0.179
62.9040 5.390 0.175
62.9196 5.049 0.170
62.9352 5.117 0.171
62.9508 5.088 0.170
62.9664 5.031 0.169
62.9820 4.826 0.166
62.9976 4.940 0.168
63.0133 4.684 0.163
63.0289 4.547 0.161
63.0445 4.832 0.166
63.0601 4.992 0.169
63.0757 4.758 0.165
63.0913 4.581 0.162
63.1070 4.701 0.164
63.1226 4.274 0.156
63.1382 4.439 0.159
63.1538 4.467 0.160
63.1694 4.786 0.165
63.1850 4.559 0.161
63.2006 4.559 0.161
63.2163 4.427 0.159
63.2319 4.598 0.162
63.2475 4.274 0.156
63.2631 4.433 0.159
63.2787 4.393 0.158
63.2943 4.182 0.154
63.3100 4.137 0.154
63.3256 4.353 0.157
63.3412 4.165 0.154
63.3568 4.319 0.157
63.3724 4.416 0.159
63.3880 4.143 0.154
63.4036 4.103 0.153
63.4193 4.370 0.158
63.4349 4.564 0.161
63.4505 4.325 0.157
63.4661 4.695 0.164
63.4817 4.821 0.166
63.4973 5.145 0.171
63.5129 5.049 0.170
63.5286 4.923 0.167
63.5442 4.957 0.168
63.5598 5.031 0.169
63.5754 4.786 0.165
63.5910 4.912 0.167
63.6066 5.140 0.171
63.6223 5.071 0.170
63.6379 4.786 0.165
63.6535 5.248 0.173
63.6691 5.698 0.180
63.6847 5.493 0.177
63.7003 5.607 0.179
63.7159 5.823 0.182
63.7316 5.903 0.183
63.7472 6.325 0.190
63.7628 6.513 0.193
63.7784 6.655 0.195
63.7940 6.838 0.197
63.8096 6.792 0.197
63.8252 6.519 0.193
63.8409 6.239 0.189
63.8565 5.960 0.184
63.8721 5.539 0.178
63.8877 5.482 0.177
63.9033 5.157 0.171
63.9189 5.242 0.173
63.9346 5.339 0.174
63.9502 5.738 0.181
63.9658 5.744 0.181
63.9814 5.789 0.182
63.9970 5.892 0.183
64.0126 5.459 0.176
64.0282 5.254 0.173
64.0439 4.900 0.167
64.0595 4.650 0.163
64.0751 4.536 0.161
64.0907 4.331 0.157
64.1063 4.262 0.156
64.1219 4.684 0.163
64.1376 4.331 0.157
64.1532 4.103 0.153
64.1688 4.114 0.153
64.1844 4.211 0.155
64.2000 4.182 0.154
64.2156 4.143 0.154
64.2312 3.915 0.149
64.2469 4.313 0.157
64.2625 4.125 0.153
64.2781 3.869 0.148
64.2937 4.234 0.155
64.3093 4.086 0.153
64.3249 3.966 0.150
64.3405 3.841 0.148
64.3562 3.692 0.145
64.3718 4.029 0.152
64.3874 3.795 0.147
64.4030 4.000 0.151
64.4186 3.749 0.146
64.4342 3.915 0.149
64.4499 3.983 0.151
64.4655 3.687 0.145
64.4811 3.858 0.148
64.4967 3.601 0.143
64.5123 3.738 0.146
64.5279 3.447 0.140
64.5435 3.989 0.151
64.5592 3.721 0.146
64.5748 3.755 0.146
64.5904 3.476 0.141
64.6060 3.584 0.143
64.6216 3.681 0.145
64.6372 3.493 0.141
64.6529 3.732 0.146
64.6685 3.806 0.147
64.6841 3.407 0.139
64.6997 3.430 0.140
64.7153 3.681 0.145
64.7309 3.852 0.148
64.7465 3.903 0.149
64.7622 3.544 0.142
64.7778 3.561 0.142
64.7934 3.618 0.144
64.8090 3.664 0.144
64.8246 3.624 0.144
64.8402 3.653 0.144
64.8558 3.590 0.143
64.8715 3.573 0.143
64.8871 3.761 0.146
64.9027 3.835 0.148
64.9183 3.351 0.138
64.9339 3.823 0.148
64.9495 3.670 0.145
64.9652 3.692 0.145
64.9808 3.692 0.145
64.9964 3.977 0.151
65.0120 3.681 0.145
65.0276 3.744 0.146
65.0432 3.778 0.147
65.0588 3.863 0.148
65.0745 3.744 0.146
65.0901 3.675 0.145
65.1057 3.795 0.147
65.1213 3.727 0.146
65.1369 3.584 0.143
65.1525 4.000 0.151
65.1681 3.909 0.149
65.1838 3.994 0.151
65.1994 3.994 0.151
65.2150 3.926 0.150
65.2306 4.086 0.153
65.2462 3.955 0.150
65.2618 4.029 0.152
65.2775 4.177 0.154
65.2931 4.365 0.158
65.3087 3.932 0.150
65.3243 4.177 0.154
65.3399 4.234 0.155
65.3555 4.274 0.156
65.3711 4.086 0.153
65.3868 4.274 0.156
65.4024 4.125 0.153
65.4180 4.040 0.152
65.4336 4.308 0.157
65.4492 3.880 0.149
65.4648 4.393 0.158
65.4805 4.365 0.158
65.4961 4.239 0.155
65.5117 4.097 0.153
65.5273 4.177 0.154
65.5429 4.097 0.153
65.5585 4.234 0.155
65.5741 4.074 0.152
65.5898 4.000 0.151
65.6054 3.880 0.149
65.6210 3.983 0.151
65.6366 3.829 0.148
65.6522 3.915 0.149
65.6678 3.806 0.147
65.6834 4.000 0.151
65.6991 4.057 0.152
65.7147 4.040 0.152
65.7303 3.880 0.149
65.7459 4.046 0.152
65.7615 3.846 0.148
65.7771 3.835 0.148
65.7928 3.721 0.146
65.8084 3.812 0.147
65.8240 3.943 0.150
65.8396 3.829 0.148
65.8552 4.057 0.152
65.8708 4.006 0.151
65.8864 3.835 0.148
65.9021 3.926 0.150
65.9177 3.989 0.151
65.9333 3.732 0.146
65.9489 3.698 0.145
65.9645 3.772 0.147
65.9801 3.761 0.146
65.9957 3.778 0.147
66.0114 3.778 0.147
66.0270 3.841 0.148
66.0426 3.841 0.148
66.0582 3.727 0.146
66.0738 3.727 0.146
66.0894 3.892 0.149
66.1051 3.892 0.149
66.1207 3.681 0.145
66.1363 3.687 0.145
66.1519 3.835 0.148
66.1675 3.795 0.147
66.1831 3.755 0.146
66.1987 3.675 0.145
66.2144 4.125 0.153
66.2300 3.687 0.145
66.2456 3.721 0.146
66.2612 3.413 0.139
66.2768 3.772 0.147
66.2924 3.578 0.143
66.3081 3.493 0.141
66.3237 3.761 0.146
66.3393 3.818 0.147
66.3549 3.823 0.148
66.3705 4.046 0.152
66.3861 3.692 0.145
66.4017 3.892 0.149
66.4174 3.687 0.145
66.4330 4.086 0.153
66.4486 4.006 0.151
66.4642 3.761 0.146
66.4798 3.806 0.147
66.4954 4.046 0.152
66.5110 4.068 0.152
66.5267 3.766 0.146
66.5423 3.909 0.149
66.5579 4.074 0.152
66.5735 4.006 0.151
66.5891 4.154 0.154
66.6047 4.319 0.157
66.6204 4.114 0.153
66.6360 3.920 0.149
66.6516 3.653 0.144
66.6672 3.977 0.151
66.6828 4.131 0.153
66.6984 4.245 0.156
66.7140 4.086 0.153
66.7297 3.875 0.149
66.7453 3.692 0.145
66.7609 3.880 0.149
66.7765 3.795 0.147
66.7921 3.715 0.145
66.8077 3.977 0.151
66.8233 4.097 0.153
66.8390 3.738 0.146
66.8546 3.653 0.144
66.8702 3.806 0.147
66.8858 3.647 0.144
66.9014 3.749 0.146
66.9170 3.829 0.148
66.9327 3.835 0.148
66.9483 3.766 0.146
66.9639 3.915 0.149
66.9795 3.920 0.149
66.9951 3.550 0.142
67.0107 3.966 0.150
67.0263 3.852 0.148
67.0420 3.818 0.147
67.0576 3.778 0.147
67.0732 3.983 0.151
67.0888 3.994 0.151
67.1044 3.989 0.151
67.1200 3.835 0.148
67.1357 3.846 0.148
67.1513 4.040 0.152
67.1669 3.898 0.149
67.1825 4.046 0.152
67.1981 4.114 0.153
67.2137 3.778 0.147
67.2293 3.892 0.149
67.2450 3.721 0.146
67.2606 3.920 0.149
67.2762 4.017 0.151
67.2918 3.835 0.148
67.3074 3.835 0.148
67.3230 4.382 0.158
67.3386 4.308 0.157
67.3543 4.228 0.155
67.3699 4.496 0.160
67.3855 4.285 0.156
67.4011 4.097 0.153
67.4167 4.758 0.165
67.4323 4.775 0.165
67.4480 4.997 0.169
67.4636 5.271 0.173
67.4792 5.043 0.170
67.4948 5.043 0.170
67.5104 5.351 0.175
67.5260 5.094 0.170
67.5416 5.282 0.173
67.5573 4.838 0.166
67.5729 4.729 0.164
67.5885 4.388 0.158
67.6041 4.257 0.156
67.6197 4.353 0.157
67.6353 4.405 0.158
67.6509 4.541 0.161
67.6666 4.211 0.155
67.6822 4.621 0.162
67.6978 4.615 0.162
67.7134 4.353 0.157
67.7290 4.239 0.155
67.7446 4.325 0.157
67.7603 4.143 0.154
67.7759 3.960 0.150
67.7915 3.852 0.148
67.8071 3.886 0.149
67.8227 3.789 0.147
67.8383 3.841 0.148
67.8539 3.687 0.145
67.8696 3.658 0.144
67.8852 3.476 0.141
67.9008 3.823 0.148
67.9164 3.590 0.143
67.9320 3.846 0.148
67.9476 3.732 0.146
67.9633 3.601 0.143
67.9789 3.772 0.147
67.9945 3.812 0.147
68.0101 3.727 0.146
68.0257 3.898 0.149
68.0413 3.892 0.149
68.0569 4.006 0.151
68.0726 3.955 0.150
68.0882 3.898 0.149
68.1038 3.898 0.149
68.1194 3.875 0.149
68.1350 3.886 0.149
68.1506 4.017 0.151
68.1662 4.068 0.152
68.1819 3.994 0.151
68.1975 3.892 0.149
68.2131 4.011 0.151
68.2287 4.205 0.155
68.2443 3.966 0.150
68.2599 4.171 0.154
68.2756 4.148 0.154
68.2912 3.932 0.150
68.3068 4.006 0.151
68.3224 4.245 0.156
68.3380 3.926 0.150
68.3536 4.274 0.156
68.3692 4.228 0.155
68.3849 4.479 0.160
68.4005 4.559 0.161
68.4161 4.325 0.157
68.4317 4.838 0.166
68.4473 4.690 0.163
68.4629 4.564 0.161
68.4785 4.872 0.167
68.4942 4.786 0.165
68.5098 4.530 0.161
68.5254 4.598 0.162
68.5410 4.285 0.156
68.5566 4.365 0.158
68.5722 4.131 0.153
68.5879 4.262 0.156
68.6035 4.148 0.154
68.6191 4.331 0.157
68.6347 4.188 0.154
68.6503 4.251 0.156
68.6659 4.331 0.157
68.6815 4.091 0.153
68.6972 4.627 0.162
68.7128 4.188 0.154
68.7284 4.000 0.151
68.7440 3.943 0.150
68.7596 4.313 0.157
68.7752 3.835 0.148
68.7909 4.011 0.151
68.8065 3.898 0.149
68.8221 4.029 0.152
68.8377 4.006 0.151
68.8533 3.778 0.147
68.8689 4.034 0.152
68.8845 3.721 0.146
68.9002 3.829 0.148
68.9158 3.721 0.146
68.9314 3.841 0.148
68.9470 3.647 0.144
68.9626 3.721 0.146
68.9782 3.795 0.147
68.9938 3.789 0.147
69.0095 3.624 0.144
69.0251 3.681 0.145
69.0407 3.630 0.144
69.0563 4.125 0.153
69.0719 3.670 0.145
69.0875 3.613 0.143
69.1032 3.898 0.149
69.1188 3.709 0.145
69.1344 3.493 0.141
69.1500 3.624 0.144
69.1656 3.584 0.143
69.1812 3.715 0.145
69.1968 3.390 0.139
69.2125 3.801 0.147
69.2281 3.493 0.141
69.2437 3.715 0.145
69.2593 3.396 0.139
69.2749 3.567 0.143
69.2905 3.670 0.145
69.3061 3.601 0.143
69.3218 3.333 0.138
69.3374 3.744 0.146
69.3530 3.670 0.145
69.3686 3.675 0.145
69.3842 3.527 0.142
69.3998 3.425 0.140
69.4155 3.698 0.145
69.4311 3.670 0.145
69.4467 3.413 0.139
69.4623 3.715 0.145
69.4779 3.368 0.139
69.4935 3.761 0.146
69.5091 3.425 0.140
69.5248 3.590 0.143
69.5404 3.983 0.151
69.5560 3.396 0.139
69.5716 3.578 0.143
69.5872 3.345 0.138
69.6028 3.709 0.145
69.6185 3.544 0.142
69.6341 3.675 0.145
69.6497 3.687 0.145
69.6653 3.635 0.144
69.6809 3.698 0.145
69.6965 3.482 0.141
69.7121 3.618 0.144
69.7278 3.892 0.149
69.7434 3.880 0.149
69.7590 3.533 0.142
69.7746 3.960 0.150
69.7902 4.063 0.152
69.8058 3.898 0.149
69.8214 3.744 0.146
69.8371 3.744 0.146
69.8527 3.675 0.145
69.8683 4.000 0.151
69.8839 3.755 0.146
69.8995 3.504 0.141
69.9151 3.761 0.146
69.9308 3.920 0.149
69.9464 4.097 0.153
69.9620 3.390 0.139
69.9776 3.801 0.147
69.9932 3.573 0.143
70.0088 3.761 0.146
70.0244 3.715 0.145
70.0401 3.482 0.141
70.0557 3.766 0.146
70.0713 3.937 0.150
70.0869 3.482 0.141
70.1025 3.823 0.148
70.1181 3.584 0.143
70.1338 3.402 0.139
70.1494 3.624 0.144
70.1650 3.744 0.146
70.1806 3.578 0.143
70.1962 3.396 0.139
70.2118 3.624 0.144
70.2274 3.550 0.142
70.2431 3.596 0.143
70.2587 3.487 0.141
70.2743 3.487 0.141
70.2899 3.681 0.145
70.3055 3.430 0.140
70.3211 3.573 0.143
70.3367 3.453 0.140
70.3524 3.607 0.143
70.3680 3.459 0.140
70.3836 3.613 0.143
70.3992 3.214 0.135
70.4148 3.698 0.145
70.4304 3.561 0.142
70.4461 3.664 0.144
70.4617 3.379 0.139
70.4773 3.653 0.144
70.4929 3.510 0.141
70.5085 3.567 0.143
70.5241 3.373 0.139
70.5397 3.550 0.142
70.5554 3.647 0.144
70.5710 3.584 0.143
70.5866 3.618 0.144
70.6022 3.641 0.144
70.6178 3.635 0.144
70.6334 3.544 0.142
70.6490 3.425 0.140
70.6647 3.658 0.144
70.6803 3.447 0.140
70.6959 3.875 0.149
70.7115 3.966 0.150
70.7271 3.533 0.142
70.7427 3.681 0.145
70.7584 3.556 0.142
70.7740 3.653 0.144
70.7896 3.510 0.141
70.8052 3.658 0.144
70.8208 3.533 0.142
70.8364 3.675 0.145
70.8520 3.556 0.142
70.8677 3.761 0.146
70.8833 3.630 0.144
70.8989 3.761 0.146
70.9145 3.727 0.146
70.9301 3.909 0.149
70.9457 3.681 0.145
70.9614 3.630 0.144
70.9770 3.795 0.147
70.9926 4.137 0.154
71.0082 3.664 0.144
71.0238 3.994 0.151
71.0394 3.823 0.148
71.0550 4.040 0.152
71.0707 3.932 0.150
71.0863 3.949 0.150
71.1019 4.268 0.156
71.1175 3.943 0.150
71.1331 4.217 0.155
71.1487 4.205 0.155
71.1643 3.943 0.150
71.1800 4.029 0.152
71.1956 4.171 0.154
71.2112 4.040 0.152
71.2268 4.120 0.153
71.2424 3.937 0.150
71.2580 4.422 0.159
71.2737 3.977 0.151
71.2893 4.051 0.152
71.3049 4.239 0.155
71.3205 3.823 0.148
71.3361 3.863 0.148
71.3517 4.057 0.152
71.3673 3.994 0.151
71.3830 4.274 0.156
71.3986 3.915 0.149
71.4142 4.228 0.155
71.4298 3.755 0.146
71.4454 3.909 0.149
71.4610 4.165 0.154
71.4766 3.898 0.149
71.4923 4.262 0.156
71.5079 4.063 0.152
71.5235 4.063 0.152
71.5391 3.647 0.144
71.5547 3.898 0.149
71.5703 3.892 0.149
71.5860 3.658 0.144
71.6016 3.766 0.146
71.6172 3.926 0.150
71.6328 3.687 0.145
71.6484 3.727 0.146
71.6640 3.983 0.151
71.6796 3.658 0.144
71.6953 3.949 0.150
71.7109 3.738 0.146
71.7265 3.886 0.149
71.7421 4.000 0.151
71.7577 3.766 0.146
71.7733 3.687 0.145
71.7890 3.647 0.144
71.8046 3.829 0.148
71.8202 3.829 0.148
71.8358 3.641 0.144
71.8514 3.909 0.149
71.8670 3.943 0.150
71.8826 3.219 0.135
71.8983 3.635 0.144
71.9139 3.470 0.141
71.9295 3.658 0.144
71.9451 3.482 0.141
71.9607 3.556 0.142
71.9763 3.385 0.139
71.9919 3.356 0.138
72.0076 3.390 0.139
72.0232 3.419 0.140
72.0388 3.436 0.140
72.0544 3.550 0.142
72.0700 3.613 0.143
72.0856 3.373 0.139
72.1013 3.413 0.139
72.1169 3.339 0.138
72.1325 3.208 0.135
72.1481 3.596 0.143
72.1637 3.379 0.139
72.1793 3.419 0.140
72.1949 3.117 0.133
72.2106 3.550 0.142
72.2262 3.259 0.136
72.2418 3.493 0.141
72.2574 3.356 0.138
72.2730 3.578 0.143
72.2886 3.578 0.143
72.3042 3.493 0.141
72.3199 3.231 0.136
72.3355 3.419 0.140
72.3511 3.453 0.140
72.3667 3.499 0.141
72.3823 3.459 0.140
72.3979 3.596 0.143
72.4136 3.618 0.144
72.4292 3.732 0.146
72.4448 3.510 0.141
72.4604 3.607 0.143
72.4760 3.749 0.146
72.4916 3.556 0.142
72.5072 3.601 0.143
72.5229 3.670 0.145
72.5385 3.886 0.149
72.5541 3.727 0.146
72.5697 3.772 0.147
72.5853 3.624 0.144
72.6009 3.539 0.142
72.6166 3.647 0.144
72.6322 3.618 0.144
72.6478 3.573 0.143
72.6634 3.533 0.142
72.6790 3.886 0.149
72.6946 3.766 0.146
72.7102 3.499 0.141
72.7259 3.493 0.141
72.7415 3.647 0.144
72.7571 3.647 0.144
72.7727 3.601 0.143
72.7883 3.601 0.143
72.8039 3.766 0.146
72.8195 3.658 0.144
72.8352 3.539 0.142
72.8508 3.476 0.141
72.8664 3.464 0.141
72.8820 3.442 0.140
72.8976 3.214 0.135
72.9132 3.345 0.138
72.9289 3.504 0.141
72.9445 3.351 0.138
72.9601 3.299 0.137
72.9757 3.311 0.137
72.9913 3.311 0.137
73.0069 3.368 0.139
73.0225 3.333 0.138
73.0382 3.242 0.136
73.0538 3.311 0.137
73.0694 3.470 0.141
73.0850 3.242 0.136
73.1006 3.305 0.137
73.1162 3.208 0.135
73.1318 3.419 0.140
73.1475 3.180 0.135
73.1631 3.242 0.136
73.1787 3.225 0.136
73.1943 3.219 0.135
73.2099 3.282 0.137
73.2255 3.140 0.134
73.2412 3.311 0.137
73.2568 3.351 0.138
73.2724 3.402 0.139
73.2880 3.396 0.139
73.3036 3.402 0.139
73.3192 3.174 0.134
73.3348 3.385 0.139
73.3505 3.237 0.136
73.3661 3.499 0.141
73.3817 3.333 0.138
73.3973 3.077 0.132
73.4129 3.328 0.138
73.4285 3.088 0.133
73.4442 3.288 0.137
73.4598 3.499 0.141
73.4754 3.162 0.134
73.4910 3.191 0.135
73.5066 3.527 0.142
73.5222 3.379 0.139
73.5378 3.590 0.143
73.5535 3.123 0.133
73.5691 3.419 0.140
73.5847 3.288 0.137
73.6003 3.105 0.133
73.6159 3.140 0.134
73.6315 3.254 0.136
73.6471 3.453 0.140
73.6628 3.288 0.137
73.6784 3.020 0.131
73.6940 3.276 0.137
73.7096 3.162 0.134
73.7252 3.100 0.133
73.7408 3.305 0.137
73.7565 3.504 0.141
73.7721 3.231 0.136
73.7877 3.009 0.131
73.8033 3.276 0.137
73.8189 3.128 0.134
73.8345 3.254 0.136
73.8501 3.470 0.141
73.8658 3.145 0.134
73.8814 3.071 0.132
73.8970 3.407 0.139
73.9126 3.242 0.136
73.9282 3.191 0.135
73.9438 3.402 0.139
73.9594 3.311 0.137
73.9751 3.219 0.135
73.9907 3.425 0.140
74.0063 3.168 0.134
74.0219 2.883 0.128
74.0375 3.105 0.133
74.0531 3.407 0.139
74.0688 3.157 0.134
74.0844 3.237 0.136
74.1000 3.191 0.135
74.1156 3.066 0.132
74.1312 3.299 0.137
74.1468 3.145 0.134
74.1624 3.362 0.138
74.1781 3.328 0.138
74.1937 3.299 0.137
74.2093 3.180 0.135
74.2249 3.174 0.134
74.2405 3.402 0.139
74.2561 3.060 0.132
74.2718 3.345 0.138
74.2874 3.282 0.137
74.3030 3.248 0.136
74.3186 3.214 0.135
74.3342 3.356 0.138
74.3498 3.174 0.134
74.3654 3.282 0.137
74.3811 3.140 0.134
74.3967 3.100 0.133
74.4123 3.385 0.139
74.4279 3.362 0.138
74.4435 3.351 0.138
74.4591 3.294 0.137
74.4747 3.362 0.138
74.4904 3.333 0.138
74.5060 3.351 0.138
74.5216 3.322 0.138
74.5372 3.162 0.134
74.5528 3.561 0.142
74.5684 3.482 0.141
74.5841 3.624 0.144
74.5997 3.618 0.144
74.6153 3.624 0.144
74.6309 3.305 0.137
74.6465 3.596 0.143
74.6621 3.413 0.139
74.6777 3.573 0.143
74.6934 3.601 0.143
74.7090 3.493 0.141
74.7246 3.493 0.141
74.7402 3.459 0.140
74.7558 3.442 0.140
74.7714 3.499 0.141
74.7871 3.453 0.140
74.8027 3.356 0.138
74.8183 3.248 0.136
74.8339 3.225 0.136
74.8495 3.447 0.140
74.8651 3.322 0.138
74.8807 3.305 0.137
74.8964 3.567 0.143
74.9120 3.242 0.136
74.9276 3.715 0.145
74.9432 3.390 0.139
74.9588 3.436 0.140
74.9744 3.539 0.142
74.9900 3.459 0.140
75.0057 3.214 0.135
75.0213 3.373 0.139
75.0369 3.413 0.139
75.0525 3.351 0.138
75.0681 3.430 0.140
75.0837 3.476 0.141
75.0994 3.447 0.140
75.1150 3.174 0.134
75.1306 3.311 0.137
75.1462 3.259 0.136
75.1618 3.305 0.137
75.1774 3.168 0.134
75.1930 3.077 0.132
75.2087 3.316 0.137
75.2243 3.105 0.133
75.2399 3.265 0.136
75.2555 3.185 0.135
75.2711 3.362 0.138
75.2867 3.180 0.135
75.3023 3.379 0.139
75.3180 3.447 0.140
75.3336 3.288 0.137
75.3492 3.271 0.137
75.3648 3.333 0.138
75.3804 3.254 0.136
75.3960 3.174 0.134
75.4117 3.242 0.136
75.4273 3.254 0.136
75.4429 3.254 0.136
75.4585 3.128 0.134
75.4741 2.940 0.129
75.4897 3.202 0.135
75.5053 3.168 0.134
75.5210 3.225 0.136
75.5366 3.237 0.136
75.5522 3.305 0.137
75.5678 3.368 0.139
75.5834 3.202 0.135
75.5990 3.299 0.137
75.6147 3.333 0.138
75.6303 3.174 0.134
75.6459 3.168 0.134
75.6615 3.214 0.135
75.6771 3.054 0.132
75.6927 3.083 0.133
75.7083 3.020 0.131
75.7240 3.254 0.136
75.7396 3.162 0.134
75.7552 2.974 0.130
75.7708 3.054 0.132
75.7864 2.952 0.130
75.8020 3.202 0.135
75.8176 3.379 0.139
75.8333 3.294 0.137
75.8489 3.362 0.138
75.8645 3.009 0.131
75.8801 3.117 0.133
75.8957 3.185 0.135
75.9113 3.009 0.131
75.9270 3.373 0.139
75.9426 3.049 0.132
75.9582 3.145 0.134
75.9738 3.345 0.138
75.9894 3.123 0.133
76.0050 2.895 0.128
76.0206 3.140 0.134
76.0363 3.083 0.133
76.0519 2.821 0.127
76.0675 3.225 0.136
76.0831 3.157 0.134
76.0987 3.299 0.137
76.1143 3.351 0.138
76.1299 3.271 0.137
76.1456 3.031 0.131
76.1612 3.202 0.135
76.1768 3.202 0.135
76.1924 2.906 0.129
76.2080 3.180 0.135
76.2236 3.185 0.135
76.2393 3.185 0.135
76.2549 3.254 0.136
76.2705 3.282 0.137
76.2861 3.254 0.136
76.3017 3.254 0.136
76.3173 3.294 0.137
76.3329 3.134 0.134
76.3486 3.111 0.133
76.3642 3.197 0.135
76.3798 3.162 0.134
76.3954 3.351 0.138
76.4110 3.316 0.137
76.4266 3.425 0.140
76.4423 3.180 0.135
76.4579 3.123 0.133
76.4735 3.322 0.138
76.4891 3.248 0.136
76.5047 3.259 0.136
76.5203 3.225 0.136
76.5359 3.214 0.135
76.5516 3.105 0.133
76.5672 3.088 0.133
76.5828 3.077 0.132
76.5984 3.305 0.137
76.6140 3.282 0.137
76.6296 3.151 0.134
76.6452 3.214 0.135
76.6609 2.997 0.131
76.6765 3.219 0.135
76.6921 3.208 0.135
76.7077 3.168 0.134
76.7233 2.957 0.130
76.7389 3.219 0.135
76.7546 3.316 0.137
76.7702 3.180 0.135
76.7858 3.043 0.132
76.8014 3.077 0.132
76.8170 3.271 0.137
76.8326 3.180 0.135
76.8482 3.305 0.137
76.8639 3.345 0.138
76.8795 3.157 0.134
76.8951 3.174 0.134
76.9107 3.294 0.137
76.9263 3.140 0.134
76.9419 3.231 0.136
76.9575 3.003 0.131
76.9732 3.294 0.137
76.9888 3.413 0.139
77.0044 3.237 0.136
