'Id: "" Comment: "" Operator: "Lab Manager" Anode: "Cu" Scantype: "Locked Coupled" TimePerStep: "30.8" X: "9999" Y: "9999" Z: "9999" 
4.9987 32.338 1.025
5.0189 31.948 1.018
5.0391 32.500 1.027
5.0593 33.864 1.049
5.0795 31.948 1.018
5.0997 28.864 0.968
5.1199 31.623 1.013
5.1401 29.383 0.977
5.1603 31.948 1.018
5.1805 33.636 1.045
5.2007 30.974 1.003
5.2209 30.162 0.990
5.2411 29.935 0.986
5.2613 32.013 1.020
5.2815 30.455 0.994
5.3017 31.558 1.012
5.3219 29.578 0.980
5.3421 28.701 0.965
5.3623 29.870 0.985
5.3825 28.344 0.959
5.4027 30.357 0.993
5.4229 28.734 0.966
5.4431 29.188 0.973
5.4633 30.000 0.987
5.4835 29.026 0.971
5.5037 28.831 0.968
5.5238 27.143 0.939
5.5440 28.019 0.954
5.5642 27.175 0.939
5.5844 26.721 0.931
5.6046 28.571 0.963
5.6248 28.896 0.969
5.6450 28.669 0.965
5.6652 28.766 0.966
5.6854 27.597 0.947
5.7056 29.026 0.971
5.7258 27.045 0.937
5.7460 28.636 0.964
5.7662 27.240 0.940
5.7864 24.838 0.898
5.8066 28.052 0.954
5.8268 25.162 0.904
5.8470 25.455 0.909
5.8672 26.266 0.923
5.8874 28.636 0.964
5.9076 27.760 0.949
5.9278 26.104 0.921
5.9480 26.136 0.921
5.9682 27.532 0.945
5.9884 25.877 0.917
6.0086 26.396 0.926
6.0288 24.156 0.886
6.0490 27.045 0.937
6.0692 26.656 0.930
6.0894 26.201 0.922
6.1096 27.305 0.942
6.1298 23.864 0.880
6.1500 22.825 0.861
6.1702 25.390 0.908
6.1904 26.006 0.919
6.2106 23.377 0.871
6.2308 25.617 0.912
6.2510 26.234 0.923
6.2712 26.201 0.922
6.2914 23.377 0.871
6.3116 24.610 0.894
6.3318 26.234 0.923
6.3520 24.058 0.884
6.3721 26.169 0.922
6.3923 23.052 0.865
6.4125 22.890 0.862
6.4327 25.130 0.903
6.4529 25.909 0.917
6.4731 24.188 0.886
6.4933 23.571 0.875
6.5135 22.078 0.847
6.5337 23.539 0.874
6.5539 22.273 0.850
6.5741 24.578 0.893
6.5943 23.247 0.869
6.6145 24.058 0.884
6.6347 24.481 0.892
6.6549 22.597 0.857
6.6751 21.558 0.837
6.6953 22.565 0.856
6.7155 22.857 0.861
6.7357 22.792 0.860
6.7559 23.766 0.878
6.7761 21.136 0.828
6.7963 21.721 0.840
6.8165 22.468 0.854
6.8367 20.519 0.816
6.8569 21.461 0.835
6.8771 21.364 0.833
6.8973 21.364 0.833
6.9175 21.494 0.835
6.9377 22.305 0.851
6.9579 21.948 0.844
6.9781 22.500 0.855
6.9983 20.065 0.807
7.0185 22.013 0.845
7.0387 18.442 0.774
7.0589 21.883 0.843
7.0791 20.519 0.816
7.0993 19.935 0.805
7.1195 19.773 0.801
7.1397 20.909 0.824
7.1599 20.162 0.809
7.1801 20.422 0.814
7.2003 20.325 0.812
7.2205 19.318 0.792
7.2406 20.942 0.825
7.2608 20.747 0.821
7.2810 20.422 0.814
7.3012 20.552 0.817
7.3214 19.481 0.795
7.3416 18.182 0.768
7.3618 18.961 0.785
7.3820 18.442 0.774
7.4022 19.545 0.797
7.4224 19.968 0.805
7.4426 18.864 0.783
7.4628 18.506 0.775
7.4830 18.084 0.766
7.5032 17.792 0.760
7.5234 18.279 0.770
7.5436 19.156 0.789
7.5638 18.929 0.784
7.5840 18.571 0.777
7.6042 18.929 0.784
7.6244 17.760 0.759
7.6446 18.149 0.768
7.6648 20.065 0.807
7.6850 16.818 0.739
7.7052 16.299 0.727
7.7254 17.370 0.751
7.7456 16.753 0.738
7.7658 17.597 0.756
7.7860 17.532 0.754
7.8062 16.786 0.738
7.8264 18.669 0.779
7.8466 15.714 0.714
7.8668 16.721 0.737
7.8870 16.364 0.729
7.9072 17.890 0.762
7.9274 17.565 0.755
7.9476 16.201 0.725
7.9678 17.532 0.754
7.9880 17.045 0.744
8.0082 18.831 0.782
8.0284 17.175 0.747
8.0486 17.078 0.745
8.0688 16.851 0.740
8.0890 16.494 0.732
8.1091 16.688 0.736
8.1293 17.045 0.744
8.1495 16.299 0.727
8.1697 15.682 0.714
8.1899 15.227 0.703
8.2101 17.338 0.750
8.2303 16.526 0.733
8.2505 15.390 0.707
8.2707 16.006 0.721
8.2909 14.221 0.679
8.3111 16.494 0.732
8.3313 15.195 0.702
8.3515 16.006 0.721
8.3717 15.097 0.700
8.3919 13.766 0.669
8.4121 14.773 0.693
8.4323 15.195 0.702
8.4525 15.877 0.718
8.4727 15.000 0.698
8.4929 15.260 0.704
8.5131 16.299 0.727
8.5333 14.838 0.694
8.5535 15.682 0.714
8.5737 16.071 0.722
8.5939 14.318 0.682
8.6141 14.935 0.696
8.6343 14.675 0.690
8.6545 13.279 0.657
8.6747 14.318 0.682
8.6949 15.714 0.714
8.7151 14.903 0.696
8.7353 14.838 0.694
8.7555 14.156 0.678
8.7757 14.968 0.697
8.7959 13.636 0.665
8.8161 13.734 0.668
8.8363 13.799 0.669
8.8565 13.377 0.659
8.8767 12.435 0.635
8.8969 14.253 0.680
8.9171 15.292 0.705
8.9373 14.838 0.694
8.9575 13.506 0.662
8.9776 14.773 0.693
8.9978 14.351 0.683
9.0180 13.442 0.661
9.0382 13.506 0.662
9.0584 14.058 0.676
9.0786 13.377 0.659
9.0988 14.318 0.682
9.1190 14.026 0.675
9.1392 15.487 0.709
9.1594 12.468 0.636
9.1796 14.253 0.680
9.1998 13.117 0.653
9.2200 13.279 0.657
9.2402 12.825 0.645
9.2604 12.338 0.633
9.2806 14.123 0.677
9.3008 13.636 0.665
9.3210 13.442 0.661
9.3412 13.604 0.665
9.3614 13.896 0.672
9.3816 13.994 0.674
9.4018 12.727 0.643
9.4220 13.896 0.672
9.4422 14.643 0.690
9.4624 13.474 0.661
9.4826 12.338 0.633
9.5028 12.955 0.649
9.5230 13.831 0.670
9.5432 13.929 0.672
9.5634 13.149 0.653
9.5836 13.669 0.666
9.6038 13.117 0.653
9.6240 12.955 0.649
9.6442 13.701 0.667
9.6644 13.604 0.665
9.6846 13.929 0.672
9.7048 13.247 0.656
9.7250 14.026 0.675
9.7452 12.955 0.649
9.7654 12.143 0.628
9.7856 13.214 0.655
9.8058 13.312 0.657
9.8260 12.662 0.641
9.8461 12.987 0.649
9.8663 13.312 0.657
9.8865 12.760 0.644
9.9067 12.078 0.626
9.9269 12.403 0.635
9.9471 11.169 0.602
9.9673 12.630 0.640
9.9875 13.442 0.661
10.0077 12.695 0.642
10.0279 12.825 0.645
10.0481 12.630 0.640
10.0683 12.273 0.631
10.0885 13.442 0.661
10.1087 12.630 0.640
10.1289 12.532 0.638
10.1491 13.474 0.661
10.1693 12.922 0.648
10.1895 12.955 0.649
10.2097 11.721 0.617
10.2299 11.786 0.619
10.2501 11.916 0.622
10.2703 11.916 0.622
10.2905 11.851 0.620
10.3107 12.305 0.632
10.3309 13.279 0.657
10.3511 11.916 0.622
10.3713 11.981 0.624
10.3915 11.721 0.617
10.4117 12.922 0.648
10.4319 11.331 0.607
10.4521 13.052 0.651
10.4723 11.558 0.613
10.4925 13.084 0.652
10.5127 11.981 0.624
10.5329 11.623 0.614
10.5531 10.812 0.592
10.5733 12.110 0.627
10.5935 12.500 0.637
10.6137 12.273 0.631
10.6339 11.786 0.619
10.6541 13.019 0.650
10.6743 12.240 0.630
10.6945 12.305 0.632
10.7146 11.201 0.603
10.7348 11.656 0.615
10.7550 12.143 0.628
10.7752 12.013 0.625
10.7954 11.656 0.615
10.8156 13.766 0.669
10.8358 11.948 0.623
10.8560 12.370 0.634
10.8762 10.487 0.584
10.8964 11.526 0.612
10.9166 10.552 0.585
10.9368 12.662 0.641
10.9570 11.558 0.613
10.9772 11.461 0.610
10.9974 12.273 0.631
11.0176 11.136 0.601
11.0378 11.851 0.620
11.0580 12.403 0.635
11.0782 11.396 0.608
11.0984 13.052 0.651
11.1186 10.682 0.589
11.1388 12.143 0.628
11.1590 11.169 0.602
11.1792 10.357 0.580
11.1994 10.942 0.596
11.2196 12.240 0.630
11.2398 11.526 0.612
11.2600 11.753 0.618
11.2802 12.013 0.625
11.3004 11.136 0.601
11.3206 12.273 0.631
11.3408 11.591 0.613
11.3610 10.974 0.597
11.3812 12.143 0.628
11.4014 11.656 0.615
11.4216 11.201 0.603
11.4418 10.487 0.584
11.4620 10.617 0.587
11.4822 10.974 0.597
11.5024 11.039 0.599
11.5226 10.812 0.592
11.5428 10.519 0.584
11.5629 10.812 0.592
11.5831 11.039 0.599
11.6033 9.286 0.549
11.6235 10.844 0.593
11.6437 11.299 0.606
11.6639 11.461 0.610
11.6841 11.169 0.602
11.7043 10.357 0.580
11.7245 11.558 0.613
11.7447 12.110 0.627
11.7649 10.942 0.596
11.7851 10.325 0.579
11.8053 10.909 0.595
11.8255 11.266 0.605
11.8457 10.519 0.584
11.8659 10.455 0.583
11.8861 10.519 0.584
11.9063 11.006 0.598
11.9265 11.818 0.619
11.9467 11.396 0.608
11.9669 10.292 0.578
11.9871 10.649 0.588
12.0073 11.753 0.618
12.0275 11.136 0.601
12.0477 10.487 0.584
12.0679 11.201 0.603
12.0881 10.390 0.581
12.1083 12.045 0.625
12.1285 10.325 0.579
12.1487 11.461 0.610
12.1689 10.487 0.584
12.1891 10.097 0.573
12.2093 10.097 0.573
12.2295 10.682 0.589
12.2497 9.188 0.546
12.2699 11.299 0.606
12.2901 10.812 0.592
12.3103 10.390 0.581
12.3305 10.649 0.588
12.3507 10.065 0.572
12.3709 10.779 0.592
12.3911 10.357 0.580
12.4113 10.032 0.571
12.4314 10.714 0.590
12.4516 11.916 0.622
12.4718 10.747 0.591
12.4920 10.844 0.593
12.5122 9.643 0.560
12.5324 10.455 0.583
12.5526 11.039 0.599
12.5728 10.357 0.580
12.5930 11.234 0.604
12.6132 9.351 0.551
12.6334 9.513 0.556
12.6536 10.162 0.574
12.6738 10.844 0.593
12.6940 10.584 0.586
12.7142 10.065 0.572
12.7344 9.286 0.549
12.7546 10.000 0.570
12.7748 10.682 0.589
12.7950 10.747 0.591
12.8152 9.123 0.544
12.8354 10.779 0.592
12.8556 10.519 0.584
12.8758 10.162 0.574
12.8960 10.649 0.588
12.9162 10.779 0.592
12.9364 9.416 0.553
12.9566 10.455 0.583
12.9768 10.000 0.570
12.9970 9.903 0.567
13.0172 10.065 0.572
13.0374 9.773 0.563
13.0576 9.286 0.549
13.0778 10.032 0.571
13.0980 10.357 0.580
13.1182 10.649 0.588
13.1384 10.617 0.587
13.1586 10.032 0.571
13.1788 9.448 0.554
13.1990 9.578 0.558
13.2192 11.364 0.607
13.2394 10.487 0.584
13.2596 10.357 0.580
13.2798 9.545 0.557
13.2999 10.325 0.579
13.3201 9.740 0.562
13.3403 9.578 0.558
13.3605 9.675 0.560
13.3807 10.455 0.583
13.4009 10.812 0.592
13.4211 9.740 0.562
13.4413 9.123 0.544
13.4615 10.714 0.590
13.4817 9.253 0.548
13.5019 10.682 0.589
13.5221 8.994 0.540
13.5423 10.649 0.588
13.5625 9.643 0.560
13.5827 9.578 0.558
13.6029 9.286 0.549
13.6231 8.669 0.531
13.6433 9.448 0.554
13.6635 10.032 0.571
13.6837 10.714 0.590
13.7039 9.481 0.555
13.7241 9.838 0.565
13.7443 8.571 0.528
13.7645 9.188 0.546
13.7847 9.903 0.567
13.8049 10.032 0.571
13.8251 9.903 0.567
13.8453 9.740 0.562
13.8655 8.409 0.523
13.8857 10.552 0.585
13.9059 10.487 0.584
13.9261 9.448 0.554
13.9463 9.091 0.543
13.9665 9.416 0.553
13.9867 9.773 0.563
14.0069 10.195 0.575
14.0271 8.896 0.537
14.0473 10.390 0.581
14.0675 9.578 0.558
14.0877 9.675 0.560
14.1079 10.390 0.581
14.1281 9.123 0.544
14.1483 8.312 0.519
14.1684 9.545 0.557
14.1886 9.545 0.557
14.2088 9.481 0.555
14.2290 9.318 0.550
14.2492 9.643 0.560
14.2694 8.994 0.540
14.2896 9.935 0.568
14.3098 9.708 0.561
14.3300 10.617 0.587
14.3502 8.929 0.538
14.3704 10.325 0.579
14.3906 9.740 0.562
14.4108 9.708 0.561
14.4310 9.416 0.553
14.4512 10.455 0.583
14.4714 9.026 0.541
14.4916 10.162 0.574
14.5118 9.545 0.557
14.5320 10.292 0.578
14.5522 9.091 0.543
14.5724 10.130 0.573
14.5926 8.377 0.522
14.6128 9.870 0.566
14.6330 9.221 0.547
14.6532 10.162 0.574
14.6734 10.422 0.582
14.6936 9.903 0.567
14.7138 9.773 0.563
14.7340 12.078 0.626
14.7542 12.565 0.639
14.7744 13.052 0.651
14.7946 14.578 0.688
14.8148 14.578 0.688
14.8350 18.052 0.766
14.8552 19.513 0.796
14.8754 21.623 0.838
14.8956 22.857 0.861
14.9158 22.565 0.856
14.9360 21.136 0.828
14.9562 18.377 0.772
14.9764 14.968 0.697
14.9966 11.851 0.620
15.0168 10.455 0.583
15.0369 9.156 0.545
15.0571 9.740 0.562
15.0773 9.773 0.563
15.0975 8.896 0.537
15.1177 9.643 0.560
15.1379 8.377 0.522
15.1581 9.740 0.562
15.1783 9.026 0.541
15.1985 10.844 0.593
15.2187 10.065 0.572
15.2389 9.026 0.541
15.2591 8.247 0.517
15.2793 8.117 0.513
15.2995 8.961 0.539
15.3197 8.831 0.535
15.3399 7.695 0.500
15.3601 8.831 0.535
15.3803 8.019 0.510
15.4005 9.318 0.550
15.4207 8.377 0.522
15.4409 8.149 0.514
15.4611 8.929 0.538
15.4813 8.052 0.511
15.5015 9.838 0.565
15.5217 7.695 0.500
15.5419 9.805 0.564
15.5621 9.351 0.551
15.5823 8.506 0.526
15.6025 8.701 0.532
15.6227 8.831 0.535
15.6429 8.539 0.527
15.6631 8.409 0.523
15.6833 9.058 0.542
15.7035 8.279 0.518
15.7237 8.604 0.529
15.7439 7.987 0.509
15.7641 7.890 0.506
15.7843 8.442 0.524
15.8045 9.383 0.552
15.8247 9.091 0.543
15.8449 8.442 0.524
15.8651 7.532 0.495
15.8853 9.156 0.545
15.9054 8.929 0.538
15.9256 9.253 0.548
15.9458 8.214 0.516
15.9660 8.994 0.540
15.9862 8.831 0.535
16.0064 9.903 0.567
16.0266 9.383 0.552
16.0468 10.584 0.586
16.0670 11.201 0.603
16.0872 11.136 0.601
16.1074 13.571 0.664
16.1276 13.019 0.650
16.1478 12.110 0.627
16.1680 10.942 0.596
16.1882 11.234 0.604
16.2084 10.584 0.586
16.2286 8.799 0.534
16.2488 8.669 0.531
16.2690 8.539 0.527
16.2892 7.695 0.500
16.3094 9.188 0.546
16.3296 8.669 0.531
16.3498 8.052 0.511
16.3700 8.539 0.527
16.3902 7.857 0.505
16.4104 7.435 0.491
16.4306 7.890 0.506
16.4508 7.175 0.483
16.4710 8.799 0.534
16.4912 8.377 0.522
16.5114 8.994 0.540
16.5316 8.279 0.518
16.5518 8.182 0.515
16.5720 7.565 0.496
16.5922 8.279 0.518
16.6124 8.636 0.530
16.6326 7.305 0.487
16.6528 8.474 0.525
16.6730 7.662 0.499
16.6932 9.058 0.542
16.7134 8.084 0.512
16.7336 8.149 0.514
16.7537 7.987 0.509
16.7739 8.052 0.511
16.7941 8.344 0.520
16.8143 8.474 0.525
16.8345 7.565 0.496
16.8547 8.312 0.519
16.8749 8.247 0.517
16.8951 8.214 0.516
16.9153 6.818 0.470
16.9355 7.597 0.497
16.9557 7.727 0.501
16.9759 7.045 0.478
16.9961 8.214 0.516
17.0163 8.052 0.511
17.0365 7.825 0.504
17.0567 8.117 0.513
17.0769 7.630 0.498
17.0971 7.468 0.492
17.1173 7.468 0.492
17.1375 7.045 0.478
17.1577 8.766 0.533
17.1779 7.468 0.492
17.1981 8.474 0.525
17.2183 7.565 0.496
17.2385 8.571 0.528
17.2587 7.565 0.496
17.2789 7.305 0.487
17.2991 7.695 0.500
17.3193 7.760 0.502
17.3395 7.597 0.497
17.3597 8.149 0.514
17.3799 9.935 0.568
17.4001 7.760 0.502
17.4203 7.175 0.483
17.4405 8.377 0.522
17.4607 7.370 0.489
17.4809 7.630 0.498
17.5011 7.695 0.500
17.5213 7.955 0.508
17.5415 7.468 0.492
17.5617 7.662 0.499
17.5819 6.981 0.476
17.6021 6.851 0.472
17.6222 8.409 0.523
17.6424 8.279 0.518
17.6626 7.890 0.506
17.6828 7.175 0.483
17.7030 6.916 0.474
17.7232 7.695 0.500
17.7434 8.182 0.515
17.7636 7.078 0.479
17.7838 8.019 0.510
17.8040 6.688 0.466
17.8242 7.500 0.493
17.8444 6.851 0.472
17.8646 6.331 0.453
17.8848 6.981 0.476
17.9050 6.851 0.472
17.9252 7.955 0.508
17.9454 7.305 0.487
17.9656 7.532 0.495
17.9858 7.273 0.486
18.0060 7.922 0.507
18.0262 6.266 0.451
18.0464 6.591 0.463
18.0666 7.338 0.488
18.0868 7.565 0.496
18.1070 6.688 0.466
18.1272 7.403 0.490
18.1474 7.890 0.506
18.1676 7.760 0.502
18.1878 7.403 0.490
18.2080 7.370 0.489
18.2282 6.721 0.467
18.2484 7.857 0.505
18.2686 7.565 0.496
18.2888 7.500 0.493
18.3090 6.753 0.468
18.3292 7.208 0.484
18.3494 8.117 0.513
18.3696 7.435 0.491
18.3898 6.656 0.465
18.4100 6.883 0.473
18.4302 6.071 0.444
18.4504 7.370 0.489
18.4706 7.857 0.505
18.4907 6.591 0.463
18.5109 7.500 0.493
18.5311 6.623 0.464
18.5513 7.078 0.479
18.5715 7.825 0.504
18.5917 7.890 0.506
18.6119 7.435 0.491
18.6321 7.500 0.493
18.6523 7.045 0.478
18.6725 7.110 0.480
18.6927 6.948 0.475
18.7129 6.883 0.473
18.7331 7.045 0.478
18.7533 5.812 0.434
18.7735 7.143 0.482
18.7937 7.955 0.508
18.8139 7.338 0.488
18.8341 6.299 0.452
18.8543 6.169 0.448
18.8745 7.208 0.484
18.8947 7.273 0.486
18.9149 6.136 0.446
18.9351 7.468 0.492
18.9553 7.695 0.500
18.9755 7.208 0.484
18.9957 8.019 0.510
19.0159 7.662 0.499
19.0361 8.636 0.530
19.0563 7.955 0.508
19.0765 8.117 0.513
19.0967 7.662 0.499
19.1169 7.273 0.486
19.1371 7.403 0.490
19.1573 6.526 0.460
19.1775 7.175 0.483
19.1977 7.045 0.478
19.2179 7.013 0.477
19.2381 6.981 0.476
19.2583 6.623 0.464
19.2785 6.916 0.474
19.2987 7.403 0.490
19.3189 6.623 0.464
19.3391 7.760 0.502
19.3592 7.338 0.488
19.3794 6.851 0.472
19.3996 7.662 0.499
19.4198 6.461 0.458
19.4400 6.948 0.475
19.4602 6.721 0.467
19.4804 7.403 0.490
19.5006 6.818 0.470
19.5208 5.812 0.434
19.5410 6.299 0.452
19.5612 6.591 0.463
19.5814 7.370 0.489
19.6016 7.987 0.509
19.6218 7.435 0.491
19.6420 6.688 0.466
19.6622 6.558 0.461
19.6824 6.461 0.458
19.7026 6.364 0.455
19.7228 5.487 0.422
19.7430 7.305 0.487
19.7632 6.753 0.468
19.7834 7.273 0.486
19.8036 7.597 0.497
19.8238 7.565 0.496
19.8440 5.877 0.437
19.8642 6.721 0.467
19.8844 5.974 0.440
19.9046 6.526 0.460
19.9248 6.688 0.466
19.9450 5.812 0.434
19.9652 6.786 0.469
19.9854 6.039 0.443
20.0056 6.396 0.456
20.0258 6.494 0.459
20.0460 6.429 0.457
20.0662 5.942 0.439
20.0864 6.461 0.458
20.1066 6.429 0.457
20.1268 6.948 0.475
20.1470 5.942 0.439
20.1672 6.721 0.467
20.1874 7.240 0.485
20.2076 6.916 0.474
20.2277 7.435 0.491
20.2479 7.273 0.486
20.2681 6.851 0.472
20.2883 6.494 0.459
20.3085 7.565 0.496
20.3287 7.370 0.489
20.3489 8.019 0.510
20.3691 6.981 0.476
20.3893 6.753 0.468
20.4095 7.175 0.483
20.4297 6.396 0.456
20.4499 5.942 0.439
20.4701 7.240 0.485
20.4903 7.273 0.486
20.5105 5.877 0.437
20.5307 6.006 0.442
20.5509 6.266 0.451
20.5711 6.623 0.464
20.5913 6.136 0.446
20.6115 6.299 0.452
20.6317 6.916 0.474
20.6519 6.331 0.453
20.6721 6.883 0.473
20.6923 6.266 0.451
20.7125 6.201 0.449
20.7327 7.403 0.490
20.7529 6.201 0.449
20.7731 5.357 0.417
20.7933 5.649 0.428
20.8135 6.656 0.465
20.8337 6.916 0.474
20.8539 7.338 0.488
20.8741 7.110 0.480
20.8943 7.045 0.478
20.9145 6.981 0.476
20.9347 6.558 0.461
20.9549 6.591 0.463
20.9751 6.299 0.452
20.9953 6.688 0.466
21.0155 6.721 0.467
21.0357 7.208 0.484
21.0559 6.656 0.465
21.0761 5.747 0.432
21.0962 7.240 0.485
21.1164 6.656 0.465
21.1366 6.721 0.467
21.1568 6.591 0.463
21.1770 6.169 0.448
21.1972 6.266 0.451
21.2174 5.649 0.428
21.2376 6.948 0.475
21.2578 7.045 0.478
21.2780 6.753 0.468
21.2982 5.844 0.436
21.3184 6.331 0.453
21.3386 5.909 0.438
21.3588 6.786 0.469
21.3790 7.240 0.485
21.3992 5.974 0.440
21.4194 5.747 0.432
21.4396 6.136 0.446
21.4598 6.558 0.461
21.4800 6.299 0.452
21.5002 6.786 0.469
21.5204 6.591 0.463
21.5406 6.331 0.453
21.5608 6.039 0.443
21.5810 6.396 0.456
21.6012 5.455 0.421
21.6214 6.364 0.455
21.6416 5.649 0.428
21.6618 6.429 0.457
21.6820 5.714 0.431
21.7022 6.071 0.444
21.7224 6.201 0.449
21.7426 6.266 0.451
21.7628 6.071 0.444
21.7830 7.045 0.478
21.8032 6.331 0.453
21.8234 6.039 0.443
21.8436 6.104 0.445
21.8638 5.584 0.426
21.8840 6.688 0.466
21.9042 6.331 0.453
21.9244 6.104 0.445
21.9445 7.078 0.479
21.9647 6.883 0.473
21.9849 6.526 0.460
22.0051 5.649 0.428
22.0253 6.039 0.443
22.0455 5.584 0.426
22.0657 6.201 0.449
22.0859 6.494 0.459
22.1061 5.227 0.412
22.1263 5.909 0.438
22.1465 5.877 0.437
22.1667 6.786 0.469
22.1869 6.201 0.449
22.2071 5.877 0.437
22.2273 5.682 0.430
22.2475 5.714 0.431
22.2677 6.851 0.472
22.2879 5.325 0.416
22.3081 6.494 0.459
22.3283 5.844 0.436
22.3485 5.260 0.413
22.3687 5.747 0.432
22.3889 5.390 0.418
22.4091 6.169 0.448
22.4293 6.656 0.465
22.4495 5.552 0.425
22.4697 6.981 0.476
22.4899 5.844 0.436
22.5101 6.494 0.459
22.5303 6.071 0.444
22.5505 6.558 0.461
22.5707 5.682 0.430
22.5909 6.201 0.449
22.6111 6.104 0.445
22.6313 6.169 0.448
22.6515 6.331 0.453
22.6717 5.682 0.430
22.6919 6.851 0.472
22.7121 5.812 0.434
22.7323 5.942 0.439
22.7525 7.045 0.478
22.7727 6.429 0.457
22.7929 6.558 0.461
22.8130 6.591 0.463
22.8332 8.701 0.532
22.8534 9.805 0.564
22.8736 9.091 0.543
22.8938 13.247 0.656
22.9140 13.571 0.664
22.9342 16.786 0.738
22.9544 16.461 0.731
22.9746 17.013 0.743
22.9948 16.039 0.722
23.0150 16.266 0.727
23.0352 12.013 0.625
23.0554 11.006 0.598
23.0756 10.195 0.575
23.0958 8.214 0.516
23.1160 7.143 0.482
23.1362 6.136 0.446
23.1564 6.818 0.470
23.1766 6.818 0.470
23.1968 6.396 0.456
23.2170 5.844 0.436
23.2372 5.974 0.440
23.2574 6.396 0.456
23.2776 6.429 0.457
23.2978 5.487 0.422
23.3180 6.136 0.446
23.3382 6.169 0.448
23.3584 5.909 0.438
23.3786 6.786 0.469
23.3988 6.006 0.442
23.4190 5.325 0.416
23.4392 5.584 0.426
23.4594 6.396 0.456
23.4796 5.747 0.432
23.4998 6.104 0.445
23.5200 5.130 0.408
23.5402 6.169 0.448
23.5604 5.357 0.417
23.5806 5.325 0.416
23.6008 5.617 0.427
23.6210 6.494 0.459
23.6412 5.422 0.420
23.6614 4.903 0.399
23.6815 6.039 0.443
23.7017 5.584 0.426
23.7219 5.779 0.433
23.7421 5.097 0.407
23.7623 4.968 0.402
23.7825 5.455 0.421
23.8027 5.390 0.418
23.8229 5.747 0.432
23.8431 6.786 0.469
23.8633 5.584 0.426
23.8835 6.201 0.449
23.9037 6.331 0.453
23.9239 6.006 0.442
23.9441 5.877 0.437
23.9643 6.104 0.445
23.9845 5.974 0.440
24.0047 5.552 0.425
24.0249 5.779 0.433
24.0451 5.714 0.431
24.0653 6.883 0.473
24.0855 5.974 0.440
24.1057 5.682 0.430
24.1259 5.812 0.434
24.1461 6.266 0.451
24.1663 6.071 0.444
24.1865 5.552 0.425
24.2067 5.844 0.436
24.2269 5.747 0.432
24.2471 5.682 0.430
24.2673 6.136 0.446
24.2875 5.617 0.427
24.3077 5.552 0.425
24.3279 5.519 0.423
24.3481 6.429 0.457
24.3683 5.714 0.431
24.3885 5.065 0.406
24.4087 5.357 0.417
24.4289 5.455 0.421
24.4491 5.455 0.421
24.4693 4.935 0.400
24.4895 5.422 0.420
24.5097 5.357 0.417
24.5299 6.461 0.458
24.5500 5.260 0.413
24.5702 5.942 0.439
24.5904 5.130 0.408
24.6106 5.779 0.433
24.6308 5.487 0.422
24.6510 5.422 0.420
24.6712 5.844 0.436
24.6914 4.805 0.395
24.7116 5.714 0.431
24.7318 5.617 0.427
24.7520 5.747 0.432
24.7722 5.487 0.422
24.7924 5.714 0.431
24.8126 6.364 0.455
24.8328 4.903 0.399
24.8530 6.364 0.455
24.8732 5.097 0.407
24.8934 5.260 0.413
24.9136 5.617 0.427
24.9338 5.844 0.436
24.9540 5.455 0.421
24.9742 6.071 0.444
24.9944 5.779 0.433
25.0146 5.455 0.421
25.0348 6.201 0.449
25.0550 7.045 0.478
25.0752 7.175 0.483
25.0954 7.435 0.491
25.1156 8.442 0.524
25.1358 9.773 0.563
25.1560 10.682 0.589
25.1762 13.636 0.665
25.1964 14.838 0.694
25.2166 14.253 0.680
25.2368 14.318 0.682
25.2570 11.688 0.616
25.2772 12.792 0.644
25.2974 11.104 0.600
25.3176 9.643 0.560
25.3378 8.766 0.533
25.3580 6.396 0.456
25.3782 7.500 0.493
25.3984 6.071 0.444
25.4185 5.942 0.439
25.4387 5.617 0.427
25.4589 6.136 0.446
25.4791 5.487 0.422
25.4993 5.584 0.426
25.5195 4.805 0.395
25.5397 5.844 0.436
25.5599 5.422 0.420
25.5801 6.623 0.464
25.6003 5.422 0.420
25.6205 5.390 0.418
25.6407 5.260 0.413
25.6609 5.357 0.417
25.6811 5.130 0.408
25.7013 6.266 0.451
25.7215 6.039 0.443
25.7417 4.740 0.392
25.7619 5.325 0.416
25.7821 4.773 0.394
25.8023 6.364 0.455
25.8225 4.286 0.373
25.8427 4.870 0.398
25.8629 5.162 0.409
25.8831 5.097 0.407
25.9033 5.487 0.422
25.9235 4.870 0.398
25.9437 5.747 0.432
25.9639 5.065 0.406
25.9841 4.935 0.400
26.0043 4.935 0.400
26.0245 5.649 0.428
26.0447 5.065 0.406
26.0649 5.455 0.421
26.0851 5.779 0.433
26.1053 5.000 0.403
26.1255 5.844 0.436
26.1457 5.779 0.433
26.1659 6.461 0.458
26.1861 5.552 0.425
26.2063 5.455 0.421
26.2265 5.877 0.437
26.2467 5.325 0.416
26.2669 6.201 0.449
26.2870 6.039 0.443
26.3072 5.682 0.430
26.3274 6.104 0.445
26.3476 5.844 0.436
26.3678 5.227 0.412
26.3880 5.487 0.422
26.4082 5.357 0.417
26.4284 5.260 0.413
26.4486 5.260 0.413
26.4688 5.617 0.427
26.4890 5.000 0.403
26.5092 5.162 0.409
26.5294 5.065 0.406
26.5496 4.968 0.402
26.5698 5.487 0.422
26.5900 4.838 0.396
26.6102 4.968 0.402
26.6304 5.747 0.432
26.6506 5.552 0.425
26.6708 5.649 0.428
26.6910 4.675 0.390
26.7112 5.552 0.425
26.7314 4.903 0.399
26.7516 5.519 0.423
26.7718 5.292 0.415
26.7920 5.812 0.434
26.8122 6.299 0.452
26.8324 5.617 0.427
26.8526 4.838 0.396
26.8728 4.870 0.398
26.8930 5.065 0.406
26.9132 5.974 0.440
26.9334 5.844 0.436
26.9536 4.903 0.399
26.9738 6.494 0.459
26.9940 5.390 0.418
27.0142 5.390 0.418
27.0344 5.617 0.427
27.0546 5.455 0.421
27.0748 6.299 0.452
27.0950 5.195 0.411
27.1152 5.357 0.417
27.1353 5.260 0.413
27.1555 5.714 0.431
27.1757 6.071 0.444
27.1959 5.909 0.438
27.2161 6.623 0.464
27.2363 5.390 0.418
27.2565 6.396 0.456
27.2767 6.396 0.456
27.2969 6.721 0.467
27.3171 6.688 0.466
27.3373 7.240 0.485
27.3575 6.786 0.469
27.3777 7.208 0.484
27.3979 8.084 0.512
27.4181 8.831 0.535
27.4383 8.019 0.510
27.4585 8.182 0.515
27.4787 9.545 0.557
27.4989 10.292 0.578
27.5191 8.701 0.532
27.5393 8.701 0.532
27.5595 8.864 0.536
27.5797 7.630 0.498
27.5999 8.214 0.516
27.6201 6.981 0.476
27.6403 7.338 0.488
27.6605 6.234 0.450
27.6807 6.851 0.472
27.7009 6.201 0.449
27.7211 8.442 0.524
27.7413 8.052 0.511
27.7615 8.149 0.514
27.7817 9.513 0.556
27.8019 10.584 0.586
27.8221 7.987 0.509
27.8423 9.740 0.562
27.8625 9.968 0.569
27.8827 9.188 0.546
27.9029 8.701 0.532
27.9231 10.032 0.571
27.9433 11.851 0.620
27.9635 12.532 0.638
27.9837 11.883 0.621
28.0038 11.948 0.623
28.0240 11.169 0.602
28.0442 9.968 0.569
28.0644 8.636 0.530
28.0846 8.539 0.527
28.1048 8.052 0.511
28.1250 7.468 0.492
28.1452 7.338 0.488
28.1654 7.305 0.487
28.1856 6.494 0.459
28.2058 6.591 0.463
28.2260 5.877 0.437
28.2462 5.747 0.432
28.2664 5.649 0.428
28.2866 5.714 0.431
28.3068 6.104 0.445
28.3270 5.812 0.434
28.3472 4.578 0.386
28.3674 5.584 0.426
28.3876 5.552 0.425
28.4078 5.974 0.440
28.4280 5.779 0.433
28.4482 6.721 0.467
28.4684 5.617 0.427
28.4886 6.721 0.467
28.5088 5.812 0.434
28.5290 5.649 0.428
28.5492 5.909 0.438
28.5694 5.747 0.432
28.5896 6.623 0.464
28.6098 5.974 0.440
28.6300 6.494 0.459
28.6502 6.786 0.469
28.6704 6.006 0.442
28.6906 6.364 0.455
28.7108 6.201 0.449
28.7310 6.721 0.467
28.7512 6.429 0.457
28.7714 5.877 0.437
28.7916 6.656 0.465
28.8118 6.851 0.472
28.8320 7.013 0.477
28.8522 6.981 0.476
28.8723 7.695 0.500
28.8925 6.656 0.465
28.9127 9.091 0.543
28.9329 7.792 0.503
28.9531 8.052 0.511
28.9733 7.532 0.495
28.9935 8.636 0.530
29.0137 7.955 0.508
29.0339 8.214 0.516
29.0541 8.377 0.522
29.0743 8.279 0.518
29.0945 9.026 0.541
29.1147 8.247 0.517
29.1349 9.545 0.557
29.1551 9.773 0.563
29.1753 9.643 0.560
29.1955 9.610 0.559
29.2157 11.656 0.615
29.2359 13.377 0.659
29.2561 16.169 0.725
29.2763 21.266 0.831
29.2965 31.104 1.005
29.3167 40.844 1.152
29.3369 52.175 1.302
29.3571 68.084 1.487
29.3773 83.182 1.643
29.3975 94.578 1.752
29.4177 109.253 1.883
29.4379 126.299 2.025
29.4581 145.552 2.174
29.4783 146.851 2.184
29.4985 129.578 2.051
29.5187 106.656 1.861
29.5389 91.429 1.723
29.5591 72.630 1.536
29.5793 53.799 1.322
29.5995 33.994 1.051
29.6197 23.961 0.882
29.6399 16.883 0.740
29.6601 13.084 0.652
29.6803 13.312 0.657
29.7005 11.039 0.599
29.7207 10.000 0.570
29.7408 9.935 0.568
29.7610 9.416 0.553
29.7812 8.604 0.529
29.8014 8.994 0.540
29.8216 8.831 0.535
29.8418 9.123 0.544
29.8620 8.636 0.530
29.8822 9.318 0.550
29.9024 9.773 0.563
29.9226 10.000 0.570
29.9428 12.110 0.627
29.9630 13.961 0.673
29.9832 17.045 0.744
30.0034 22.630 0.857
30.0236 29.448 0.978
30.0438 34.740 1.062
30.0640 37.760 1.107
30.0842 44.870 1.207
30.1044 46.461 1.228
30.1246 49.318 1.265
30.1448 43.669 1.191
30.1650 37.760 1.107
30.1852 29.968 0.986
30.2054 26.916 0.935
30.2256 20.065 0.807
30.2458 16.753 0.738
30.2660 11.818 0.619
30.2862 9.773 0.563
30.3064 8.377 0.522
30.3266 8.571 0.528
30.3468 7.370 0.489
30.3670 8.019 0.510
30.3872 7.825 0.504
30.4074 7.403 0.490
30.4276 7.370 0.489
30.4478 7.370 0.489
30.4680 6.818 0.470
30.4882 6.721 0.467
30.5084 5.844 0.436
30.5286 6.201 0.449
30.5488 6.786 0.469
30.5690 6.429 0.457
30.5892 6.396 0.456
30.6093 6.656 0.465
30.6295 6.104 0.445
30.6497 6.331 0.453
30.6699 5.552 0.425
30.6901 6.558 0.461
30.7103 6.494 0.459
30.7305 7.013 0.477
30.7507 6.494 0.459
30.7709 7.240 0.485
30.7911 6.623 0.464
30.8113 6.786 0.469
30.8315 6.786 0.469
30.8517 6.526 0.460
30.8719 6.948 0.475
30.8921 7.110 0.480
30.9123 7.013 0.477
30.9325 7.013 0.477
30.9527 6.786 0.469
30.9729 7.045 0.478
30.9931 7.208 0.484
31.0133 7.825 0.504
31.0335 7.370 0.489
31.0537 6.299 0.452
31.0739 7.565 0.496
31.0941 6.981 0.476
31.1143 5.455 0.421
31.1345 6.526 0.460
31.1547 7.175 0.483
31.1749 7.013 0.477
31.1951 7.143 0.482
31.2153 7.143 0.482
31.2355 6.916 0.474
31.2557 6.136 0.446
31.2759 7.013 0.477
31.2961 6.396 0.456
31.3163 7.727 0.501
31.3365 5.877 0.437
31.3567 6.656 0.465
31.3769 6.753 0.468
31.3971 6.006 0.442
31.4173 6.916 0.474
31.4375 6.526 0.460
31.4577 6.818 0.470
31.4778 6.948 0.475
31.4980 7.143 0.482
31.5182 7.630 0.498
31.5384 8.506 0.526
31.5586 8.149 0.514
31.5788 8.701 0.532
31.5990 8.864 0.536
31.6192 8.701 0.532
31.6394 9.610 0.559
31.6596 8.734 0.533
31.6798 10.487 0.584
31.7000 8.474 0.525
31.7202 11.039 0.599
31.7404 9.383 0.552
31.7606 10.552 0.585
31.7808 9.675 0.560
31.8010 8.994 0.540
31.8212 10.649 0.588
31.8414 10.097 0.573
31.8616 11.039 0.599
31.8818 10.097 0.573
31.9020 10.812 0.592
31.9222 11.364 0.607
31.9424 12.370 0.634
31.9626 13.117 0.653
31.9828 14.123 0.677
32.0030 16.753 0.738
32.0232 18.506 0.775
32.0434 21.331 0.832
32.0636 24.481 0.892
32.0838 28.669 0.965
32.1040 36.006 1.081
32.1242 44.221 1.198
32.1444 63.604 1.437
32.1646 83.279 1.644
32.1848 107.565 1.869
32.2050 139.968 2.132
32.2252 162.305 2.296
32.2454 162.500 2.297
32.2656 142.500 2.151
32.2858 116.786 1.947
32.3060 100.844 1.809
32.3261 84.123 1.653
32.3463 66.981 1.475
32.3665 44.578 1.203
32.3867 32.695 1.030
32.4069 27.630 0.947
32.4271 27.695 0.948
32.4473 32.630 1.029
32.4675 42.825 1.179
32.4877 54.383 1.329
32.5079 73.052 1.540
32.5281 88.344 1.694
32.5483 96.299 1.768
32.5685 98.377 1.787
32.5887 110.390 1.893
32.6089 128.539 2.043
32.6291 148.636 2.197
32.6493 163.896 2.307
32.6695 148.766 2.198
32.6897 130.130 2.055
32.7099 108.182 1.874
32.7301 89.091 1.701
32.7503 76.688 1.578
32.7705 57.922 1.371
32.7907 40.097 1.141
32.8109 28.864 0.968
32.8311 21.721 0.840
32.8513 17.760 0.759
32.8715 15.390 0.707
32.8917 15.097 0.700
32.9119 13.344 0.658
32.9321 12.468 0.636
32.9523 11.526 0.612
32.9725 9.578 0.558
32.9927 9.643 0.560
33.0129 9.773 0.563
33.0331 9.416 0.553
33.0533 8.864 0.536
33.0735 9.708 0.561
33.0937 8.571 0.528
33.1139 9.091 0.543
33.1341 9.675 0.560
33.1543 10.552 0.585
33.1745 11.201 0.603
33.1946 12.565 0.639
33.2148 15.390 0.707
33.2350 16.461 0.731
33.2552 18.117 0.767
33.2754 18.994 0.785
33.2956 18.831 0.782
33.3158 17.045 0.744
33.3360 18.052 0.766
33.3562 16.461 0.731
33.3764 14.643 0.690
33.3966 13.799 0.669
33.4168 12.468 0.636
33.4370 11.818 0.619
33.4572 9.903 0.567
33.4774 10.617 0.587
33.4976 10.649 0.588
33.5178 9.351 0.551
33.5380 8.571 0.528
33.5582 9.448 0.554
33.5784 9.481 0.555
33.5986 9.740 0.562
33.6188 7.987 0.509
33.6390 8.474 0.525
33.6592 9.448 0.554
33.6794 9.383 0.552
33.6996 7.760 0.502
33.7198 6.721 0.467
33.7400 7.273 0.486
33.7602 7.760 0.502
33.7804 7.403 0.490
33.8006 7.825 0.504
33.8208 8.279 0.518
33.8410 8.344 0.520
33.8612 7.597 0.497
33.8814 8.604 0.529
33.9016 8.701 0.532
33.9218 7.565 0.496
33.9420 9.253 0.548
33.9622 8.864 0.536
33.9824 9.123 0.544
34.0026 11.104 0.600
34.0228 10.487 0.584
34.0430 11.429 0.609
34.0631 10.844 0.593
34.0833 11.916 0.622
34.1035 12.630 0.640
34.1237 12.435 0.635
34.1439 13.799 0.669
34.1641 15.260 0.704
34.1843 16.818 0.739
34.2045 17.857 0.761
34.2247 22.013 0.845
34.2449 24.416 0.890
34.2651 36.266 1.085
34.2853 42.890 1.180
34.3055 65.779 1.461
34.3257 93.149 1.739
34.3459 128.182 2.040
34.3661 165.422 2.318
34.3863 190.877 2.489
34.4065 196.494 2.526
34.4267 182.890 2.437
34.4469 155.097 2.244
34.4671 132.987 2.078
34.4873 116.006 1.941
34.5075 90.130 1.711
34.5277 68.344 1.490
34.5479 43.701 1.191
34.5681 29.870 0.985
34.5883 21.883 0.843
34.6085 17.922 0.763
34.6287 14.383 0.683
34.6489 12.045 0.625
34.6691 11.461 0.610
34.6893 10.682 0.589
34.7095 11.169 0.602
34.7297 9.578 0.558
34.7499 8.831 0.535
34.7701 8.052 0.511
34.7903 8.247 0.517
34.8105 7.468 0.492
34.8307 7.987 0.509
34.8509 8.377 0.522
34.8711 8.084 0.512
34.8913 7.403 0.490
34.9115 8.669 0.531
34.9316 7.532 0.495
34.9518 7.370 0.489
34.9720 7.825 0.504
34.9922 8.084 0.512
35.0124 7.305 0.487
35.0326 6.948 0.475
35.0528 6.916 0.474
35.0730 6.786 0.469
35.0932 7.857 0.505
35.1134 7.013 0.477
35.1336 7.208 0.484
35.1538 7.305 0.487
35.1740 7.630 0.498
35.1942 7.143 0.482
35.2144 7.532 0.495
35.2346 6.818 0.470
35.2548 7.597 0.497
35.2750 7.240 0.485
35.2952 6.786 0.469
35.3154 7.338 0.488
35.3356 7.273 0.486
35.3558 7.045 0.478
35.3760 6.786 0.469
35.3962 5.844 0.436
35.4164 5.909 0.438
35.4366 7.110 0.480
35.4568 7.045 0.478
35.4770 7.500 0.493
35.4972 6.494 0.459
35.5174 6.234 0.450
35.5376 6.656 0.465
35.5578 6.169 0.448
35.5780 5.877 0.437
35.5982 6.396 0.456
35.6184 5.942 0.439
35.6386 6.526 0.460
35.6588 6.104 0.445
35.6790 6.461 0.458
35.6992 6.331 0.453
35.7194 6.429 0.457
35.7396 6.688 0.466
35.7598 6.818 0.470
35.7800 7.468 0.492
35.8001 6.266 0.451
35.8203 6.591 0.463
35.8405 6.526 0.460
35.8607 7.143 0.482
35.8809 8.084 0.512
35.9011 8.377 0.522
35.9213 8.149 0.514
35.9415 8.669 0.531
35.9617 8.571 0.528
35.9819 8.766 0.533
36.0021 8.279 0.518
36.0223 8.831 0.535
36.0425 8.734 0.533
36.0627 8.214 0.516
36.0829 7.013 0.477
36.1031 7.208 0.484
36.1233 6.851 0.472
36.1435 7.500 0.493
36.1637 7.013 0.477
36.1839 6.558 0.461
36.2041 6.364 0.455
36.2243 6.721 0.467
36.2445 6.136 0.446
36.2647 6.299 0.452
36.2849 6.786 0.469
36.3051 5.617 0.427
36.3253 6.461 0.458
36.3455 6.883 0.473
36.3657 7.240 0.485
36.3859 7.500 0.493
36.4061 7.565 0.496
36.4263 7.305 0.487
36.4465 6.851 0.472
36.4667 7.955 0.508
36.4869 7.597 0.497
36.5071 7.987 0.509
36.5273 8.182 0.515
36.5475 8.052 0.511
36.5677 7.597 0.497
36.5879 8.929 0.538
36.6081 9.805 0.564
36.6283 11.591 0.613
36.6485 14.383 0.683
36.6686 15.909 0.719
36.6888 19.675 0.799
36.7090 21.656 0.839
36.7292 23.539 0.874
36.7494 22.532 0.855
36.7696 20.000 0.806
36.7898 17.110 0.745
36.8100 16.006 0.721
36.8302 14.123 0.677
36.8504 12.435 0.635
36.8706 10.584 0.586
36.8908 9.188 0.546
36.9110 8.247 0.517
36.9312 7.468 0.492
36.9514 7.273 0.486
36.9716 7.338 0.488
36.9918 6.818 0.470
37.0120 5.877 0.437
37.0322 6.136 0.446
37.0524 6.721 0.467
37.0726 7.013 0.477
37.0928 6.688 0.466
37.1130 6.396 0.456
37.1332 5.974 0.440
37.1534 6.396 0.456
37.1736 6.526 0.460
37.1938 6.656 0.465
37.2140 6.104 0.445
37.2342 6.396 0.456
37.2544 7.305 0.487
37.2746 6.266 0.451
37.2948 6.136 0.446
37.3150 6.396 0.456
37.3352 6.721 0.467
37.3554 6.234 0.450
37.3756 6.948 0.475
37.3958 7.273 0.486
37.4160 6.656 0.465
37.4362 7.175 0.483
37.4564 6.883 0.473
37.4766 6.591 0.463
37.4968 6.331 0.453
37.5169 6.169 0.448
37.5371 6.721 0.467
37.5573 6.136 0.446
37.5775 6.721 0.467
37.5977 6.299 0.452
37.6179 6.851 0.472
37.6381 6.039 0.443
37.6583 6.688 0.466
37.6785 6.169 0.448
37.6987 5.617 0.427
37.7189 5.325 0.416
37.7391 6.136 0.446
37.7593 6.916 0.474
37.7795 7.500 0.493
37.7997 6.623 0.464
37.8199 7.045 0.478
37.8401 7.532 0.495
37.8603 6.818 0.470
37.8805 6.234 0.450
37.9007 6.136 0.446
37.9209 6.883 0.473
37.9411 6.429 0.457
37.9613 6.721 0.467
37.9815 7.468 0.492
38.0017 6.656 0.465
38.0219 8.409 0.523
38.0421 8.344 0.520
38.0623 7.532 0.495
38.0825 7.825 0.504
38.1027 7.110 0.480
38.1229 7.760 0.502
38.1431 7.955 0.508
38.1633 6.786 0.469
38.1835 6.299 0.452
38.2037 6.883 0.473
38.2239 5.747 0.432
38.2441 6.331 0.453
38.2643 6.266 0.451
38.2845 6.331 0.453
38.3047 5.649 0.428
38.3249 6.786 0.469
38.3451 6.494 0.459
38.3653 6.623 0.464
38.3854 6.656 0.465
38.4056 6.071 0.444
38.4258 6.461 0.458
38.4460 6.396 0.456
38.4662 6.299 0.452
38.4864 6.883 0.473
38.5066 7.305 0.487
38.5268 7.662 0.499
38.5470 7.013 0.477
38.5672 7.273 0.486
38.5874 8.409 0.523
38.6076 9.286 0.549
38.6278 11.234 0.604
38.6480 12.825 0.645
38.6682 16.753 0.738
38.6884 19.058 0.787
38.7086 22.240 0.850
38.7288 22.175 0.849
38.7490 25.487 0.910
38.7692 27.175 0.939
38.7894 32.338 1.025
38.8096 38.279 1.115
38.8298 41.688 1.163
38.8500 39.448 1.132
38.8702 36.104 1.083
38.8904 30.909 1.002
38.9106 32.792 1.032
38.9308 30.000 0.987
38.9510 26.234 0.923
38.9712 20.455 0.815
38.9914 17.792 0.760
39.0116 14.805 0.693
39.0318 14.091 0.676
39.0520 11.006 0.598
39.0722 12.208 0.630
39.0924 12.013 0.625
39.1126 12.175 0.629
39.1328 11.494 0.611
39.1530 10.617 0.587
39.1732 10.552 0.585
39.1934 10.455 0.583
39.2136 11.429 0.609
39.2338 11.818 0.619
39.2539 12.403 0.635
39.2741 11.104 0.600
39.2943 10.649 0.588
39.3145 10.552 0.585
39.3347 10.682 0.589
39.3549 10.747 0.591
39.3751 12.273 0.631
39.3953 11.136 0.601
39.4155 11.364 0.607
39.4357 11.526 0.612
39.4559 10.877 0.594
39.4761 9.578 0.558
39.4963 10.097 0.573
39.5165 10.195 0.575
39.5367 9.286 0.549
39.5569 8.734 0.533
39.5771 9.253 0.548
39.5973 9.675 0.560
39.6175 9.773 0.563
39.6377 10.292 0.578
39.6579 10.974 0.597
39.6781 10.357 0.580
39.6983 10.260 0.577
39.7185 9.091 0.543
39.7387 8.539 0.527
39.7589 9.610 0.559
39.7791 9.026 0.541
39.7993 7.240 0.485
39.8195 7.208 0.484
39.8397 7.597 0.497
39.8599 7.013 0.477
39.8801 6.981 0.476
39.9003 7.143 0.482
39.9205 6.429 0.457
39.9407 7.370 0.489
39.9609 7.240 0.485
39.9811 6.526 0.460
40.0013 7.240 0.485
40.0215 5.552 0.425
40.0417 6.169 0.448
40.0619 6.006 0.442
40.0821 6.234 0.450
40.1023 6.169 0.448
40.1224 6.201 0.449
40.1426 5.552 0.425
40.1628 5.714 0.431
40.1830 6.104 0.445
40.2032 5.649 0.428
40.2234 6.558 0.461
40.2436 5.487 0.422
40.2638 4.773 0.394
40.2840 5.779 0.433
40.3042 5.682 0.430
40.3244 5.325 0.416
40.3446 5.519 0.423
40.3648 5.909 0.438
40.3850 5.032 0.404
40.4052 5.942 0.439
40.4254 4.805 0.395
40.4456 5.812 0.434
40.4658 6.234 0.450
40.4860 5.584 0.426
40.5062 5.065 0.406
40.5264 5.877 0.437
40.5466 5.714 0.431
40.5668 6.266 0.451
40.5870 6.266 0.451
40.6072 5.519 0.423
40.6274 5.097 0.407
40.6476 6.201 0.449
40.6678 6.201 0.449
40.6880 6.299 0.452
40.7082 6.591 0.463
40.7284 6.558 0.461
40.7486 5.942 0.439
40.7688 5.877 0.437
40.7890 6.136 0.446
40.8092 5.227 0.412
40.8294 6.591 0.463
40.8496 6.299 0.452
40.8698 6.558 0.461
40.8900 7.468 0.492
40.9102 6.981 0.476
40.9304 7.240 0.485
40.9506 8.474 0.525
40.9708 8.344 0.520
40.9909 8.734 0.533
41.0111 8.766 0.533
41.0313 9.448 0.554
41.0515 9.156 0.545
41.0717 10.065 0.572
41.0919 9.903 0.567
41.1121 12.630 0.640
41.1323 12.857 0.646
41.1525 12.987 0.649
41.1727 14.805 0.693
41.1929 18.734 0.780
41.2131 24.188 0.886
41.2333 28.019 0.954
41.2535 39.481 1.132
41.2737 52.143 1.301
41.2939 66.396 1.468
41.3141 81.558 1.627
41.3343 93.214 1.740
41.3545 95.649 1.762
41.3747 87.078 1.681
41.3949 78.377 1.595
41.4151 71.558 1.524
41.4353 68.117 1.487
41.4555 63.247 1.433
41.4757 49.383 1.266
41.4959 40.942 1.153
41.5161 31.071 1.004
41.5363 25.097 0.903
41.5565 20.877 0.823
41.5767 21.039 0.826
41.5969 22.760 0.860
41.6171 25.032 0.902
41.6373 28.506 0.962
41.6575 30.942 1.002
41.6777 29.091 0.972
41.6979 28.149 0.956
41.7181 26.786 0.933
41.7383 26.883 0.934
41.7585 26.104 0.921
41.7787 25.357 0.907
41.7989 21.039 0.826
41.8191 17.273 0.749
41.8393 14.643 0.690
41.8594 14.383 0.683
41.8796 12.435 0.635
41.8998 10.487 0.584
41.9200 9.026 0.541
41.9402 8.344 0.520
41.9604 7.078 0.479
41.9806 6.201 0.449
42.0008 5.584 0.426
42.0210 5.974 0.440
42.0412 5.584 0.426
42.0614 5.909 0.438
42.0816 5.877 0.437
42.1018 6.331 0.453
42.1220 5.974 0.440
42.1422 6.981 0.476
42.1624 5.844 0.436
42.1826 6.786 0.469
42.2028 6.234 0.450
42.2230 6.396 0.456
42.2432 6.526 0.460
42.2634 7.143 0.482
42.2836 6.883 0.473
42.3038 7.435 0.491
42.3240 6.883 0.473
42.3442 6.948 0.475
42.3644 6.948 0.475
42.3846 6.526 0.460
42.4048 6.786 0.469
42.4250 7.565 0.496
42.4452 6.591 0.463
42.4654 6.396 0.456
42.4856 6.006 0.442
42.5058 6.526 0.460
42.5260 6.623 0.464
42.5462 6.234 0.450
42.5664 5.844 0.436
42.5866 5.130 0.408
42.6068 5.909 0.438
42.6270 5.779 0.433
42.6472 6.591 0.463
42.6674 5.714 0.431
42.6876 5.942 0.439
42.7077 6.656 0.465
42.7279 5.909 0.438
42.7481 7.143 0.482
42.7683 6.753 0.468
42.7885 7.305 0.487
42.8087 6.786 0.469
42.8289 6.558 0.461
42.8491 8.247 0.517
42.8693 8.117 0.513
42.8895 8.019 0.510
42.9097 7.922 0.507
42.9299 8.149 0.514
42.9501 8.669 0.531
42.9703 7.532 0.495
42.9905 8.279 0.518
43.0107 8.247 0.517
43.0309 10.032 0.571
43.0511 8.929 0.538
43.0713 8.669 0.531
43.0915 9.448 0.554
43.1117 9.643 0.560
43.1319 10.325 0.579
43.1521 9.481 0.555
43.1723 10.812 0.592
43.1925 11.234 0.604
43.2127 10.032 0.571
43.2329 10.909 0.595
43.2531 10.649 0.588
43.2733 9.318 0.550
43.2935 8.929 0.538
43.3137 8.799 0.534
43.3339 7.987 0.509
43.3541 8.442 0.524
43.3743 7.273 0.486
43.3945 7.045 0.478
43.4147 6.526 0.460
43.4349 5.877 0.437
43.4551 8.019 0.510
43.4753 6.948 0.475
43.4955 6.721 0.467
43.5157 6.981 0.476
43.5359 6.266 0.451
43.5561 6.364 0.455
43.5762 8.117 0.513
43.5964 7.435 0.491
43.6166 6.721 0.467
43.6368 7.500 0.493
43.6570 8.312 0.519
43.6772 7.955 0.508
43.6974 8.669 0.531
43.7176 8.247 0.517
43.7378 9.286 0.549
43.7580 9.578 0.558
43.7782 8.344 0.520
43.7984 9.318 0.550
43.8186 8.734 0.533
43.8388 9.123 0.544
43.8590 8.312 0.519
43.8792 7.987 0.509
43.8994 8.149 0.514
43.9196 7.273 0.486
43.9398 8.084 0.512
43.9600 6.851 0.472
43.9802 7.078 0.479
44.0004 6.266 0.451
44.0206 6.461 0.458
44.0408 6.136 0.446
44.0610 6.364 0.455
44.0812 6.299 0.452
44.1014 6.494 0.459
44.1216 6.753 0.468
44.1418 6.364 0.455
44.1620 6.558 0.461
44.1822 6.494 0.459
44.2024 6.071 0.444
44.2226 6.234 0.450
44.2428 6.623 0.464
44.2630 5.390 0.418
44.2832 5.844 0.436
44.3034 6.169 0.448
44.3236 6.169 0.448
44.3438 5.779 0.433
44.3640 5.747 0.432
44.3842 5.714 0.431
44.4044 6.786 0.469
44.4246 6.071 0.444
44.4447 6.071 0.444
44.4649 6.981 0.476
44.4851 6.818 0.470
44.5053 6.786 0.469
44.5255 6.948 0.475
44.5457 7.468 0.492
44.5659 6.688 0.466
44.5861 6.981 0.476
44.6063 7.532 0.495
44.6265 6.948 0.475
44.6467 6.883 0.473
44.6669 6.331 0.453
44.6871 6.169 0.448
44.7073 6.948 0.475
44.7275 6.526 0.460
44.7477 6.331 0.453
44.7679 6.818 0.470
44.7881 5.617 0.427
44.8083 6.006 0.442
44.8285 5.519 0.423
44.8487 5.032 0.404
44.8689 4.870 0.398
44.8891 5.162 0.409
44.9093 5.682 0.430
44.9295 4.870 0.398
44.9497 5.227 0.412
44.9699 4.935 0.400
44.9901 5.130 0.408
45.0103 4.708 0.391
45.0305 4.188 0.369
45.0507 5.584 0.426
45.0709 4.545 0.384
45.0911 5.065 0.406
45.1113 5.714 0.431
45.1315 5.130 0.408
45.1517 5.292 0.415
45.1719 5.747 0.432
45.1921 5.552 0.425
45.2123 6.006 0.442
45.2325 6.169 0.448
45.2527 5.812 0.434
45.2729 5.877 0.437
45.2931 6.688 0.466
45.3132 5.714 0.431
45.3334 5.162 0.409
45.3536 6.623 0.464
45.3738 5.974 0.440
45.3940 5.455 0.421
45.4142 5.357 0.417
45.4344 5.260 0.413
45.4546 5.519 0.423
45.4748 5.195 0.411
45.4950 5.325 0.416
45.5152 5.422 0.420
45.5354 5.812 0.434
45.5556 6.136 0.446
45.5758 6.104 0.445
45.5960 5.519 0.423
45.6162 5.292 0.415
45.6364 6.494 0.459
45.6566 7.370 0.489
45.6768 8.734 0.533
45.6970 9.318 0.550
45.7172 11.396 0.608
45.7374 11.948 0.623
45.7576 12.662 0.641
45.7778 12.500 0.637
45.7980 13.019 0.650
45.8182 14.448 0.685
45.8384 15.455 0.708
45.8586 16.786 0.738
45.8788 19.740 0.801
45.8990 21.299 0.832
45.9192 22.175 0.849
45.9394 19.610 0.798
45.9596 15.065 0.699
45.9798 15.032 0.699
46.0000 15.195 0.702
46.0202 13.604 0.665
46.0404 11.786 0.619
46.0606 10.909 0.595
46.0808 8.604 0.529
46.1010 8.279 0.518
46.1212 7.013 0.477
46.1414 6.364 0.455
46.1616 6.039 0.443
46.1817 5.649 0.428
46.2019 5.065 0.406
46.2221 4.416 0.379
46.2423 5.909 0.438
46.2625 5.292 0.415
46.2827 4.773 0.394
46.3029 4.838 0.396
46.3231 5.390 0.418
46.3433 4.416 0.379
46.3635 4.318 0.374
46.3837 4.675 0.390
46.4039 4.351 0.376
46.4241 5.130 0.408
46.4443 4.675 0.390
46.4645 4.123 0.366
46.4847 4.513 0.383
46.5049 5.065 0.406
46.5251 5.000 0.403
46.5453 5.162 0.409
46.5655 5.130 0.408
46.5857 4.773 0.394
46.6059 5.162 0.409
46.6261 5.260 0.413
46.6463 5.130 0.408
46.6665 5.325 0.416
46.6867 5.584 0.426
46.7069 5.260 0.413
46.7271 5.487 0.422
46.7473 7.208 0.484
46.7675 5.974 0.440
46.7877 7.597 0.497
46.8079 8.377 0.522
46.8281 9.773 0.563
46.8483 11.234 0.604
46.8685 12.013 0.625
46.8887 12.922 0.648
46.9089 15.162 0.702
46.9291 16.981 0.743
46.9493 18.506 0.775
46.9695 21.234 0.830
46.9897 24.448 0.891
47.0099 26.688 0.931
47.0301 26.104 0.921
47.0502 23.636 0.876
47.0704 20.390 0.814
47.0906 15.357 0.706
47.1108 16.006 0.721
47.1310 14.383 0.683
47.1512 13.636 0.665
47.1714 12.500 0.637
47.1916 10.812 0.592
47.2118 8.831 0.535
47.2320 7.468 0.492
47.2522 6.786 0.469
47.2724 5.812 0.434
47.2926 5.877 0.437
47.3128 5.065 0.406
47.3330 4.513 0.383
47.3532 4.968 0.402
47.3734 5.455 0.421
47.3936 5.422 0.420
47.4138 5.357 0.417
47.4340 4.968 0.402
47.4542 4.935 0.400
47.4744 5.357 0.417
47.4946 5.325 0.416
47.5148 4.740 0.392
47.5350 4.968 0.402
47.5552 5.130 0.408
47.5754 5.065 0.406
47.5956 4.740 0.392
47.6158 4.448 0.380
47.6360 4.513 0.383
47.6562 4.903 0.399
47.6764 4.740 0.392
47.6966 4.286 0.373
47.7168 5.422 0.420
47.7370 4.481 0.381
47.7572 4.578 0.386
47.7774 5.162 0.409
47.7976 5.065 0.406
47.8178 5.617 0.427
47.8380 5.325 0.416
47.8582 5.260 0.413
47.8784 5.877 0.437
47.8985 5.844 0.436
47.9187 5.357 0.417
47.9389 4.870 0.398
47.9591 5.032 0.404
47.9793 5.390 0.418
47.9995 4.351 0.376
48.0197 5.227 0.412
48.0399 4.481 0.381
48.0601 4.838 0.396
48.0803 4.448 0.380
48.1005 4.513 0.383
48.1207 4.870 0.398
48.1409 4.708 0.391
48.1611 3.766 0.350
48.1813 4.058 0.363
48.2015 5.032 0.404
48.2217 3.864 0.354
48.2419 4.026 0.362
48.2621 4.513 0.383
48.2823 3.831 0.353
48.3025 4.448 0.380
48.3227 4.091 0.364
48.3429 4.740 0.392
48.3631 3.994 0.360
48.3833 4.253 0.372
48.4035 4.123 0.366
48.4237 4.188 0.369
48.4439 4.058 0.363
48.4641 4.123 0.366
48.4843 4.318 0.374
48.5045 4.123 0.366
48.5247 4.643 0.388
48.5449 4.286 0.373
48.5651 3.864 0.354
48.5853 4.123 0.366
48.6055 5.130 0.408
48.6257 3.766 0.350
48.6459 3.701 0.347
48.6661 4.156 0.367
48.6863 4.416 0.379
48.7065 4.351 0.376
48.7267 4.188 0.369
48.7469 3.604 0.342
48.7670 4.156 0.367
48.7872 4.091 0.364
48.8074 4.253 0.372
48.8276 4.481 0.381
48.8478 4.610 0.387
48.8680 4.643 0.388
48.8882 3.604 0.342
48.9084 4.578 0.386
48.9286 4.838 0.396
48.9488 4.773 0.394
48.9690 4.903 0.399
48.9892 4.448 0.380
49.0094 4.838 0.396
49.0296 4.935 0.400
49.0498 5.422 0.420
49.0700 4.968 0.402
49.0902 5.779 0.433
49.1104 5.682 0.430
49.1306 4.903 0.399
49.1508 5.519 0.423
49.1710 5.260 0.413
49.1912 5.390 0.418
49.2114 5.519 0.423
49.2316 4.448 0.380
49.2518 5.032 0.404
49.2720 4.253 0.372
49.2922 5.552 0.425
49.3124 4.773 0.394
49.3326 5.195 0.411
49.3528 4.968 0.402
49.3730 4.708 0.391
49.3932 5.227 0.412
49.4134 5.584 0.426
49.4336 5.162 0.409
49.4538 5.065 0.406
49.4740 5.455 0.421
49.4942 6.429 0.457
49.5144 6.299 0.452
49.5346 5.812 0.434
49.5548 6.981 0.476
49.5750 8.506 0.526
49.5952 9.708 0.561
49.6154 9.481 0.555
49.6355 10.357 0.580
49.6557 11.786 0.619
49.6759 14.221 0.679
49.6961 14.545 0.687
49.7163 14.805 0.693
49.7365 12.792 0.644
49.7567 12.630 0.640
49.7769 13.052 0.651
49.7971 12.955 0.649
49.8173 11.656 0.615
49.8375 13.312 0.657
49.8577 11.916 0.622
49.8779 12.857 0.646
49.8981 13.539 0.663
49.9183 13.084 0.652
49.9385 12.078 0.626
49.9587 12.792 0.644
49.9789 11.136 0.601
49.9991 14.026 0.675
50.0193 12.370 0.634
50.0395 12.825 0.645
50.0597 13.084 0.652
50.0799 12.695 0.642
50.1001 10.487 0.584
50.1203 9.091 0.543
50.1405 8.506 0.526
50.1607 9.156 0.545
50.1809 8.182 0.515
50.2011 7.760 0.502
50.2213 6.039 0.443
50.2415 6.006 0.442
50.2617 6.169 0.448
50.2819 5.292 0.415
50.3021 4.935 0.400
50.3223 4.838 0.396
50.3425 4.643 0.388
50.3627 4.675 0.390
50.3829 5.195 0.411
50.4031 5.162 0.409
50.4233 5.097 0.407
50.4435 4.221 0.370
50.4637 4.643 0.388
50.4839 4.838 0.396
50.5040 4.838 0.396
50.5242 4.578 0.386
50.5444 4.513 0.383
50.5646 5.390 0.418
50.5848 5.325 0.416
50.6050 4.448 0.380
50.6252 4.838 0.396
50.6454 5.292 0.415
50.6656 5.519 0.423
50.6858 5.195 0.411
50.7060 4.773 0.394
50.7262 5.195 0.411
50.7464 4.643 0.388
50.7666 5.325 0.416
50.7868 4.805 0.395
50.8070 5.292 0.415
50.8272 5.260 0.413
50.8474 5.617 0.427
50.8676 5.162 0.409
50.8878 5.877 0.437
50.9080 5.552 0.425
50.9282 6.071 0.444
50.9484 5.357 0.417
50.9686 6.688 0.466
50.9888 5.844 0.436
51.0090 5.617 0.427
51.0292 5.195 0.411
51.0494 5.162 0.409
51.0696 5.812 0.434
51.0898 5.552 0.425
51.1100 4.481 0.381
51.1302 4.513 0.383
51.1504 5.519 0.423
51.1706 4.708 0.391
51.1908 4.903 0.399
51.2110 4.578 0.386
51.2312 4.935 0.400
51.2514 3.896 0.356
51.2716 5.130 0.408
51.2918 4.773 0.394
51.3120 5.260 0.413
51.3322 4.253 0.372
51.3524 5.682 0.430
51.3725 5.909 0.438
51.3927 6.234 0.450
51.4129 5.942 0.439
51.4331 5.714 0.431
51.4533 5.844 0.436
51.4735 6.526 0.460
51.4937 6.623 0.464
51.5139 6.494 0.459
51.5341 7.500 0.493
51.5543 8.994 0.540
51.5745 8.831 0.535
51.5947 9.708 0.561
51.6149 11.136 0.601
51.6351 14.156 0.678
51.6553 17.630 0.757
51.6755 22.370 0.852
51.6957 32.792 1.032
51.7159 46.948 1.235
51.7361 60.097 1.397
51.7563 72.175 1.531
51.7765 77.630 1.588
51.7967 71.201 1.520
51.8169 64.675 1.449
51.8371 58.312 1.376
51.8573 57.825 1.370
51.8775 60.390 1.400
51.8977 68.929 1.496
51.9179 72.500 1.534
51.9381 73.442 1.544
51.9583 62.240 1.422
51.9785 53.409 1.317
51.9987 43.182 1.184
52.0189 36.136 1.083
52.0391 30.584 0.996
52.0593 29.058 0.971
52.0795 27.890 0.952
52.0997 26.234 0.923
52.1199 23.571 0.875
52.1401 17.630 0.757
52.1603 14.253 0.680
52.1805 12.240 0.630
52.2007 10.714 0.590
52.2209 10.325 0.579
52.2410 7.987 0.509
52.2612 7.727 0.501
52.2814 6.688 0.466
52.3016 6.071 0.444
52.3218 5.974 0.440
52.3420 6.883 0.473
52.3622 6.591 0.463
52.3824 5.422 0.420
52.4026 5.357 0.417
52.4228 6.039 0.443
52.4430 4.968 0.402
52.4632 5.877 0.437
52.4834 5.097 0.407
52.5036 5.390 0.418
52.5238 5.519 0.423
52.5440 4.708 0.391
52.5642 5.000 0.403
52.5844 4.838 0.396
52.6046 4.870 0.398
52.6248 5.000 0.403
52.6450 4.513 0.383
52.6652 4.610 0.387
52.6854 4.578 0.386
52.7056 4.481 0.381
52.7258 5.000 0.403
52.7460 5.292 0.415
52.7662 4.903 0.399
52.7864 3.831 0.353
52.8066 4.675 0.390
52.8268 4.903 0.399
52.8470 4.448 0.380
52.8672 5.162 0.409
52.8874 5.422 0.420
52.9076 3.994 0.360
52.9278 4.448 0.380
52.9480 4.935 0.400
52.9682 4.253 0.372
52.9884 5.584 0.426
53.0086 5.487 0.422
53.0288 4.870 0.398
53.0490 5.195 0.411
53.0692 5.227 0.412
53.0893 5.357 0.417
53.1095 5.260 0.413
53.1297 5.779 0.433
53.1499 4.351 0.376
53.1701 5.227 0.412
53.1903 5.195 0.411
53.2105 5.422 0.420
53.2307 4.708 0.391
53.2509 5.617 0.427
53.2711 4.935 0.400
53.2913 5.747 0.432
53.3115 5.584 0.426
53.3317 4.740 0.392
53.3519 5.649 0.428
53.3721 4.675 0.390
53.3923 5.260 0.413
53.4125 5.000 0.403
53.4327 5.519 0.423
53.4529 5.422 0.420
53.4731 5.617 0.427
53.4933 5.032 0.404
53.5135 5.195 0.411
53.5337 4.805 0.395
53.5539 4.838 0.396
53.5741 4.870 0.398
53.5943 6.331 0.453
53.6145 4.708 0.391
53.6347 4.708 0.391
53.6549 4.578 0.386
53.6751 4.903 0.399
53.6953 4.935 0.400
53.7155 4.805 0.395
53.7357 4.545 0.384
53.7559 4.513 0.383
53.7761 4.740 0.392
53.7963 4.286 0.373
53.8165 5.065 0.406
53.8367 4.740 0.392
53.8569 4.805 0.395
53.8771 5.487 0.422
53.8973 4.545 0.384
53.9175 5.162 0.409
53.9377 4.805 0.395
53.9578 5.747 0.432
53.9780 5.325 0.416
53.9982 6.104 0.445
54.0184 7.175 0.483
54.0386 7.695 0.500
54.0588 7.403 0.490
54.0790 6.656 0.465
54.0992 6.883 0.473
54.1194 7.597 0.497
54.1396 7.370 0.489
54.1598 6.818 0.470
54.1800 6.981 0.476
54.2002 7.403 0.490
54.2204 6.981 0.476
54.2406 7.370 0.489
54.2608 7.922 0.507
54.2810 7.240 0.485
54.3012 7.955 0.508
54.3214 7.857 0.505
54.3416 6.429 0.457
54.3618 6.396 0.456
54.3820 6.851 0.472
54.4022 6.266 0.451
54.4224 5.455 0.421
54.4426 5.812 0.434
54.4628 5.714 0.431
54.4830 5.357 0.417
54.5032 5.422 0.420
54.5234 5.097 0.407
54.5436 4.870 0.398
54.5638 5.162 0.409
54.5840 4.968 0.402
54.6042 4.805 0.395
54.6244 4.481 0.381
54.6446 4.221 0.370
54.6648 4.351 0.376
54.6850 5.390 0.418
54.7052 4.805 0.395
54.7254 3.896 0.356
54.7456 3.961 0.359
54.7658 4.675 0.390
54.7860 4.610 0.387
54.8062 3.734 0.348
54.8263 4.286 0.373
54.8465 4.188 0.369
54.8667 4.123 0.366
54.8869 3.799 0.351
54.9071 4.416 0.379
54.9273 4.188 0.369
54.9475 4.091 0.364
54.9677 3.929 0.357
54.9879 4.156 0.367
55.0081 4.416 0.379
55.0283 4.513 0.383
55.0485 4.935 0.400
55.0687 4.838 0.396
55.0889 4.578 0.386
55.1091 4.708 0.391
55.1293 5.584 0.426
55.1495 4.805 0.395
55.1697 4.610 0.387
55.1899 4.968 0.402
55.2101 5.130 0.408
55.2303 4.058 0.363
55.2505 4.643 0.388
55.2707 4.188 0.369
55.2909 4.123 0.366
55.3111 3.896 0.356
55.3313 4.805 0.395
55.3515 4.643 0.388
55.3717 4.253 0.372
55.3919 4.221 0.370
55.4121 4.026 0.362
55.4323 3.734 0.348
55.4525 3.734 0.348
55.4727 3.571 0.341
55.4929 3.994 0.360
55.5131 4.870 0.398
55.5333 4.188 0.369
55.5535 4.351 0.376
55.5737 4.318 0.374
55.5939 4.026 0.362
55.6141 3.896 0.356
55.6343 3.994 0.360
55.6545 4.935 0.400
55.6747 4.675 0.390
55.6948 3.831 0.353
55.7150 5.227 0.412
55.7352 4.935 0.400
55.7554 4.805 0.395
55.7756 4.513 0.383
55.7958 4.740 0.392
55.8160 5.552 0.425
55.8362 5.260 0.413
55.8564 4.448 0.380
55.8766 6.006 0.442
55.8968 5.974 0.440
55.9170 6.299 0.452
55.9372 7.760 0.502
55.9574 8.669 0.531
55.9776 8.506 0.526
55.9978 9.968 0.569
56.0180 9.058 0.542
56.0382 9.545 0.557
56.0584 9.026 0.541
56.0786 8.799 0.534
56.0988 10.065 0.572
56.1190 8.896 0.537
56.1392 8.247 0.517
56.1594 9.610 0.559
56.1796 8.539 0.527
56.1998 7.565 0.496
56.2200 8.571 0.528
56.2402 8.669 0.531
56.2604 8.636 0.530
56.2806 8.896 0.537
56.3008 8.961 0.539
56.3210 8.896 0.537
56.3412 10.617 0.587
56.3614 10.552 0.585
56.3816 12.078 0.626
56.4018 13.214 0.655
56.4220 15.519 0.710
56.4422 17.987 0.764
56.4624 19.610 0.798
56.4826 22.662 0.858
56.5028 25.422 0.909
56.5230 28.214 0.957
56.5432 28.182 0.957
56.5633 31.396 1.010
56.5835 33.701 1.046
56.6037 40.844 1.152
56.6239 40.942 1.153
56.6441 38.474 1.118
56.6643 34.253 1.055
56.6845 27.045 0.937
56.7047 24.253 0.887
56.7249 24.968 0.900
56.7451 23.604 0.875
56.7653 22.013 0.845
56.7855 21.364 0.833
56.8057 19.091 0.787
56.8259 14.448 0.685
56.8461 11.364 0.607
56.8663 10.942 0.596
56.8865 9.643 0.560
56.9067 9.708 0.561
56.9269 6.786 0.469
56.9471 7.175 0.483
56.9673 7.630 0.498
56.9875 5.292 0.415
57.0077 5.552 0.425
57.0279 6.104 0.445
57.0481 6.201 0.449
57.0683 5.649 0.428
57.0885 5.195 0.411
57.1087 5.519 0.423
57.1289 5.357 0.417
57.1491 5.000 0.403
57.1693 5.455 0.421
57.1895 5.130 0.408
57.2097 5.097 0.407
57.2299 5.422 0.420
57.2501 4.838 0.396
57.2703 4.935 0.400
57.2905 5.162 0.409
57.3107 4.708 0.391
57.3309 4.903 0.399
57.3511 5.617 0.427
57.3713 4.156 0.367
57.3915 6.396 0.456
57.4117 4.805 0.395
57.4318 6.266 0.451
57.4520 5.487 0.422
57.4722 5.682 0.430
57.4924 5.552 0.425
57.5126 5.390 0.418
57.5328 5.097 0.407
57.5530 5.552 0.425
57.5732 5.032 0.404
57.5934 5.519 0.423
57.6136 4.805 0.395
57.6338 5.357 0.417
57.6540 5.065 0.406
57.6742 5.195 0.411
57.6944 5.844 0.436
57.7146 4.675 0.390
57.7348 4.968 0.402
57.7550 5.649 0.428
57.7752 5.097 0.407
57.7954 4.903 0.399
57.8156 5.357 0.417
57.8358 5.487 0.422
57.8560 5.325 0.416
57.8762 5.292 0.415
57.8964 5.097 0.407
57.9166 5.617 0.427
57.9368 5.714 0.431
57.9570 6.331 0.453
57.9772 5.357 0.417
57.9974 4.968 0.402
58.0176 5.584 0.426
58.0378 4.708 0.391
58.0580 5.032 0.404
58.0782 5.617 0.427
58.0984 5.162 0.409
58.1186 5.422 0.420
58.1388 5.325 0.416
58.1590 5.422 0.420
58.1792 5.032 0.404
58.1994 5.097 0.407
58.2196 4.870 0.398
58.2398 4.838 0.396
58.2600 4.870 0.398
58.2801 5.000 0.403
58.3003 4.351 0.376
58.3205 4.253 0.372
58.3407 4.545 0.384
58.3609 4.513 0.383
58.3811 4.253 0.372
58.4013 4.383 0.377
58.4215 4.935 0.400
58.4417 5.325 0.416
58.4619 5.130 0.408
58.4821 4.903 0.399
58.5023 5.552 0.425
58.5225 5.000 0.403
58.5427 5.162 0.409
58.5629 4.740 0.392
58.5831 4.058 0.363
58.6033 5.097 0.407
58.6235 5.000 0.403
58.6437 4.773 0.394
58.6639 4.610 0.387
58.6841 5.097 0.407
58.7043 4.318 0.374
58.7245 4.545 0.384
58.7447 5.130 0.408
58.7649 4.416 0.379
58.7851 5.227 0.412
58.8053 4.773 0.394
58.8255 4.513 0.383
58.8457 4.675 0.390
58.8659 5.325 0.416
58.8861 3.571 0.341
58.9063 3.734 0.348
58.9265 4.643 0.388
58.9467 4.513 0.383
58.9669 4.578 0.386
58.9871 4.318 0.374
59.0073 3.831 0.353
59.0275 4.253 0.372
59.0477 3.636 0.344
59.0679 4.935 0.400
59.0881 3.896 0.356
59.1083 3.896 0.356
59.1285 3.831 0.353
59.1486 3.831 0.353
59.1688 4.091 0.364
59.1890 4.188 0.369
59.2092 4.903 0.399
59.2294 5.097 0.407
59.2496 4.935 0.400
59.2698 5.325 0.416
59.2900 5.455 0.421
59.3102 4.545 0.384
59.3304 4.675 0.390
59.3506 5.065 0.406
59.3708 4.968 0.402
59.3910 4.318 0.374
59.4112 5.292 0.415
59.4314 5.519 0.423
59.4516 5.519 0.423
59.4718 5.747 0.432
59.4920 5.292 0.415
59.5122 5.227 0.412
59.5324 5.422 0.420
59.5526 5.390 0.418
59.5728 4.773 0.394
59.5930 5.227 0.412
59.6132 5.747 0.432
59.6334 4.968 0.402
59.6536 5.260 0.413
59.6738 5.617 0.427
59.6940 5.812 0.434
59.7142 5.130 0.408
59.7344 6.039 0.443
59.7546 5.552 0.425
59.7748 5.877 0.437
59.7950 6.006 0.442
59.8152 6.981 0.476
59.8354 6.818 0.470
59.8556 6.948 0.475
59.8758 8.474 0.525
59.8960 9.870 0.566
59.9162 10.779 0.592
59.9364 13.182 0.654
59.9566 16.623 0.735
59.9768 20.747 0.821
59.9970 23.831 0.880
60.0171 27.532 0.945
60.0373 27.890 0.952
60.0575 28.961 0.970
60.0777 25.097 0.903
60.0979 21.461 0.835
60.1181 18.864 0.783
60.1383 17.792 0.760
60.1585 18.019 0.765
60.1787 17.175 0.747
60.1989 19.318 0.792
60.2191 17.013 0.743
60.2393 14.221 0.679
60.2595 12.370 0.634
60.2797 9.773 0.563
60.2999 7.955 0.508
60.3201 6.623 0.464
60.3403 6.494 0.459
60.3605 6.136 0.446
60.3807 5.584 0.426
60.4009 5.974 0.440
60.4211 4.935 0.400
60.4413 5.455 0.421
60.4615 5.649 0.428
60.4817 4.968 0.402
60.5019 5.162 0.409
60.5221 5.097 0.407
60.5423 6.169 0.448
60.5625 5.942 0.439
60.5827 6.558 0.461
60.6029 6.169 0.448
60.6231 6.396 0.456
60.6433 6.461 0.458
60.6635 5.974 0.440
60.6837 5.909 0.438
60.7039 6.396 0.456
60.7241 6.721 0.467
60.7443 7.305 0.487
60.7645 7.565 0.496
60.7847 7.370 0.489
60.8049 8.117 0.513
60.8251 7.987 0.509
60.8453 7.468 0.492
60.8655 8.149 0.514
60.8856 7.532 0.495
60.9058 7.403 0.490
60.9260 7.013 0.477
60.9462 6.591 0.463
60.9664 6.753 0.468
60.9866 7.630 0.498
61.0068 7.630 0.498
61.0270 7.175 0.483
61.0472 6.039 0.443
61.0674 7.403 0.490
61.0876 5.844 0.436
61.1078 6.331 0.453
61.1280 7.110 0.480
61.1482 6.721 0.467
61.1684 6.331 0.453
61.1886 6.721 0.467
61.2088 7.175 0.483
61.2290 6.169 0.448
61.2492 6.688 0.466
61.2694 6.299 0.452
61.2896 6.396 0.456
61.3098 5.584 0.426
61.3300 5.877 0.437
61.3502 5.584 0.426
61.3704 5.649 0.428
61.3906 6.104 0.445
61.4108 5.747 0.432
61.4310 5.942 0.439
61.4512 5.260 0.413
61.4714 4.221 0.370
61.4916 5.487 0.422
61.5118 4.935 0.400
61.5320 3.994 0.360
61.5522 4.578 0.386
61.5724 4.058 0.363
61.5926 4.740 0.392
61.6128 5.487 0.422
61.6330 4.610 0.387
61.6532 4.903 0.399
61.6734 4.513 0.383
61.6936 4.610 0.387
61.7138 5.162 0.409
61.7340 4.708 0.391
61.7541 4.838 0.396
61.7743 4.578 0.386
61.7945 5.357 0.417
61.8147 5.909 0.438
61.8349 5.552 0.425
61.8551 6.494 0.459
61.8753 6.266 0.451
61.8955 7.143 0.482
61.9157 7.662 0.499
61.9359 7.727 0.501
61.9561 7.078 0.479
61.9763 6.851 0.472
61.9965 7.370 0.489
62.0167 7.727 0.501
62.0369 7.078 0.479
62.0571 7.727 0.501
62.0773 8.344 0.520
62.0975 7.630 0.498
62.1177 9.286 0.549
62.1379 9.870 0.566
62.1581 11.461 0.610
62.1783 13.377 0.659
62.1985 15.747 0.715
62.2187 18.442 0.774
62.2389 21.364 0.833
62.2591 26.299 0.924
62.2793 27.727 0.949
62.2995 32.013 1.020
62.3197 34.026 1.051
62.3399 35.714 1.077
62.3601 38.636 1.120
62.3803 38.149 1.113
62.4005 39.545 1.133
62.4207 41.234 1.157
62.4409 43.019 1.182
62.4611 43.474 1.188
62.4813 44.513 1.202
62.5015 43.571 1.189
62.5217 41.883 1.166
62.5419 36.071 1.082
62.5621 35.909 1.080
62.5823 31.786 1.016
62.6025 31.201 1.006
62.6226 30.162 0.990
62.6428 29.838 0.984
62.6630 28.344 0.959
62.6832 26.623 0.930
62.7034 23.312 0.870
62.7236 20.844 0.823
62.7438 17.045 0.744
62.7640 16.753 0.738
62.7842 15.325 0.705
62.8044 13.734 0.668
62.8246 12.273 0.631
62.8448 12.500 0.637
62.8650 10.779 0.592
62.8852 10.455 0.583
62.9054 9.675 0.560
62.9256 9.188 0.546
62.9458 7.922 0.507
62.9660 7.857 0.505
62.9862 7.175 0.483
63.0064 7.240 0.485
63.0266 8.377 0.522
63.0468 8.506 0.526
63.0670 7.045 0.478
63.0872 8.084 0.512
63.1074 7.110 0.480
63.1276 7.110 0.480
63.1478 7.338 0.488
63.1680 6.948 0.475
63.1882 6.656 0.465
63.2084 6.396 0.456
63.2286 5.552 0.425
63.2488 6.461 0.458
63.2690 5.974 0.440
63.2892 5.974 0.440
63.3094 5.487 0.422
63.3296 5.455 0.421
63.3498 4.903 0.399
63.3700 5.390 0.418
63.3902 5.292 0.415
63.4104 5.422 0.420
63.4306 6.558 0.461
63.4508 6.753 0.468
63.4709 7.273 0.486
63.4911 8.182 0.515
63.5113 8.506 0.526
63.5315 9.026 0.541
63.5517 8.312 0.519
63.5719 8.669 0.531
63.5921 7.857 0.505
63.6123 7.273 0.486
63.6325 8.994 0.540
63.6527 8.279 0.518
63.6729 8.864 0.536
63.6931 10.617 0.587
63.7133 13.474 0.661
63.7335 14.805 0.693
63.7537 16.104 0.723
63.7739 16.883 0.740
63.7941 16.851 0.740
63.8143 16.429 0.730
63.8345 14.156 0.678
63.8547 13.994 0.674
63.8749 12.890 0.647
63.8951 11.266 0.605
63.9153 11.591 0.613
63.9355 11.429 0.609
63.9557 13.474 0.661
63.9759 12.662 0.641
63.9961 12.045 0.625
64.0163 10.552 0.585
64.0365 9.675 0.560
64.0567 8.052 0.511
64.0769 7.273 0.486
64.0971 6.591 0.463
64.1173 5.552 0.425
64.1375 5.584 0.426
64.1577 5.747 0.432
64.1779 5.455 0.421
64.1981 5.325 0.416
64.2183 4.968 0.402
64.2385 5.097 0.407
64.2587 4.578 0.386
64.2789 3.929 0.357
64.2991 4.253 0.372
64.3193 3.377 0.331
64.3394 4.188 0.369
64.3596 3.929 0.357
64.3798 3.636 0.344
64.4000 3.734 0.348
64.4202 4.188 0.369
64.4404 3.799 0.351
64.4606 3.799 0.351
64.4808 3.604 0.342
64.5010 3.571 0.341
64.5212 3.279 0.326
64.5414 3.506 0.337
64.5616 3.442 0.334
64.5818 3.214 0.323
64.6020 3.669 0.345
64.6222 3.571 0.341
64.6424 3.571 0.341
64.6626 3.539 0.339
64.6828 3.312 0.328
64.7030 3.214 0.323
64.7232 3.994 0.360
64.7434 3.474 0.336
64.7636 3.474 0.336
64.7838 3.409 0.333
64.8040 3.539 0.339
64.8242 3.506 0.337
64.8444 3.344 0.330
64.8646 3.182 0.321
64.8848 4.481 0.381
64.9050 3.864 0.354
64.9252 3.604 0.342
64.9454 3.864 0.354
64.9656 4.091 0.364
64.9858 4.351 0.376
65.0060 4.448 0.380
