'Id: "" Comment: "This configuration file has been created by the Bruker AXS Config       Program imitating the old SAG-free format style for compatibility to    " Operator: "Administrator" Anode: "Cu" Scantype: "Locked Coupled" TimePerStep: "1" X: "9999" Y: "9999" Z: "9999" 
4.0000 1105.426 33.248
4.0100 1102.672 33.207
4.0200 1100.003 33.166
4.0300 1097.504 33.129
4.0400 1095.260 33.095
4.0500 1093.357 33.066
4.0600 1091.879 33.044
4.0700 1090.912 33.029
4.0800 1090.540 33.023
4.0900 1090.849 33.028
4.1000 1091.924 33.044
4.1100 1093.789 33.072
4.1200 1096.221 33.109
4.1300 1098.940 33.150
4.1400 1101.661 33.191
4.1500 1104.103 33.228
4.1600 1105.983 33.256
4.1700 1107.017 33.272
4.1800 1106.924 33.270
4.1900 1105.421 33.248
4.2000 1102.225 33.200
4.2100 1097.172 33.124
4.2200 1090.569 33.024
4.2300 1082.844 32.907
4.2400 1074.423 32.778
4.2500 1065.732 32.646
4.2600 1057.198 32.515
4.2700 1049.247 32.392
4.2800 1042.306 32.285
4.2900 1036.802 32.199
4.3000 1033.160 32.143
4.3100 1031.669 32.120
4.3200 1032.060 32.126
4.3300 1033.927 32.155
4.3400 1036.862 32.200
4.3500 1040.460 32.256
4.3600 1044.314 32.316
4.3700 1048.015 32.373
4.3800 1051.159 32.422
4.3900 1053.338 32.455
4.4000 1054.145 32.468
4.4100 1053.291 32.454
4.4200 1050.957 32.418
4.4300 1047.442 32.364
4.4400 1043.044 32.296
4.4500 1038.061 32.219
4.4600 1032.792 32.137
4.4700 1027.536 32.055
4.4800 1022.591 31.978
4.4900 1018.255 31.910
4.5000 1014.828 31.856
4.5100 1012.520 31.820
4.5200 1011.195 31.799
4.5300 1010.628 31.790
4.5400 1010.595 31.790
4.5500 1010.872 31.794
4.5600 1011.235 31.800
4.5700 1011.460 31.803
4.5800 1011.323 31.801
4.5900 1010.599 31.790
4.6000 1009.065 31.766
4.6100 1006.568 31.726
4.6200 1003.247 31.674
4.6300 999.312 31.612
4.6400 994.973 31.543
4.6500 990.440 31.471
4.6600 985.923 31.399
4.6700 981.634 31.331
4.6800 977.782 31.270
4.6900 974.577 31.218
4.7000 972.230 31.181
4.7100 970.899 31.159
4.7200 970.534 31.153
4.7300 971.034 31.161
4.7400 972.297 31.182
4.7500 974.222 31.213
4.7600 976.706 31.252
4.7700 979.649 31.299
4.7800 982.947 31.352
4.7900 986.501 31.409
4.8000 990.208 31.468
4.8100 993.959 31.527
4.8200 997.613 31.585
4.8300 1001.022 31.639
4.8400 1004.039 31.687
4.8500 1006.515 31.726
4.8600 1008.303 31.754
4.8700 1009.253 31.769
4.8800 1009.219 31.768
4.8900 1008.051 31.750
4.9000 1005.603 31.711
4.9100 1001.780 31.651
4.9200 996.705 31.571
4.9300 990.557 31.473
4.9400 983.513 31.361
4.9500 975.751 31.237
4.9600 967.449 31.104
4.9700 958.784 30.964
4.9800 949.935 30.821
4.9900 941.078 30.677
5.0000 932.392 30.535
5.0100 924.073 30.399
5.0200 916.395 30.272
5.0300 909.647 30.160
5.0400 904.122 30.069
5.0500 900.112 30.002
5.0600 897.906 29.965
5.0700 897.797 29.963
5.0800 900.077 30.001
5.0900 905.035 30.084
5.1000 912.965 30.215
5.1100 923.976 30.397
5.1200 937.455 30.618
5.1300 952.607 30.864
5.1400 968.639 31.123
5.1500 984.756 31.381
5.1600 1000.164 31.625
5.1700 1014.069 31.844
5.1800 1025.676 32.026
5.1900 1034.190 32.159
5.2000 1038.819 32.231
5.2100 1039.015 32.234
5.2200 1035.225 32.175
5.2300 1028.143 32.065
5.2400 1018.462 31.913
5.2500 1006.878 31.731
5.2600 994.084 31.529
5.2700 980.774 31.317
5.2800 967.643 31.107
5.2900 955.385 30.909
5.3000 944.694 30.736
5.3100 936.104 30.596
5.3200 929.514 30.488
5.3300 924.660 30.408
5.3400 921.282 30.353
5.3500 919.116 30.317
5.3600 917.900 30.297
5.3700 917.374 30.288
5.3800 917.273 30.287
5.3900 917.338 30.288
5.4000 917.304 30.287
5.4100 916.989 30.282
5.4200 916.520 30.274
5.4300 916.105 30.267
5.4400 915.950 30.265
5.4500 916.262 30.270
5.4600 917.246 30.286
5.4700 919.111 30.317
5.4800 922.061 30.365
5.4900 926.305 30.435
5.5000 932.048 30.529
5.5100 939.394 30.650
5.5200 948.031 30.790
5.5300 957.547 30.944
5.5400 967.527 31.105
5.5500 977.557 31.266
5.5600 987.223 31.420
5.5700 996.111 31.561
5.5800 1003.808 31.683
5.5900 1009.899 31.779
5.6000 1013.970 31.843
5.6100 1015.732 31.871
5.6200 1015.395 31.865
5.6300 1013.293 31.832
5.6400 1009.760 31.777
5.6500 1005.132 31.704
5.6600 999.741 31.619
5.6700 993.923 31.527
5.6800 988.013 31.433
5.6900 982.343 31.342
5.7000 977.250 31.261
5.7100 972.985 31.193
5.7200 969.474 31.136
5.7300 966.559 31.090
5.7400 964.084 31.050
5.7500 961.892 31.014
5.7600 959.827 30.981
5.7700 957.731 30.947
5.7800 955.448 30.910
5.7900 952.822 30.868
5.8000 949.694 30.817
5.8100 945.962 30.756
5.8200 941.731 30.688
5.8300 937.161 30.613
5.8400 932.412 30.535
5.8500 927.642 30.457
5.8600 923.010 30.381
5.8700 918.677 30.310
5.8800 914.800 30.246
5.8900 911.540 30.192
5.9000 909.055 30.151
5.9100 907.463 30.124
5.9200 906.713 30.112
5.9300 906.712 30.112
5.9400 907.367 30.123
5.9500 908.585 30.143
5.9600 910.274 30.171
5.9700 912.341 30.205
5.9800 914.693 30.244
5.9900 917.237 30.286
6.0000 919.881 30.330
6.0100 922.544 30.373
6.0200 925.202 30.417
6.0300 927.842 30.460
6.0400 930.453 30.503
6.0500 933.021 30.545
6.0600 935.535 30.587
6.0700 937.983 30.627
6.0800 940.352 30.665
6.0900 942.630 30.702
6.1000 944.806 30.738
6.1100 946.850 30.771
6.1200 948.669 30.800
6.1300 950.152 30.825
6.1400 951.189 30.841
6.1500 951.668 30.849
6.1600 951.480 30.846
6.1700 950.513 30.830
6.1800 948.658 30.800
6.1900 945.803 30.754
6.2000 941.839 30.689
6.2100 936.716 30.606
6.2200 930.637 30.506
6.2300 923.864 30.395
6.2400 916.661 30.276
6.2500 909.292 30.154
6.2600 902.019 30.034
6.2700 895.107 29.918
6.2800 888.819 29.813
6.2900 883.417 29.722
6.3000 879.167 29.651
6.3100 876.253 29.602
6.3200 874.551 29.573
6.3300 873.858 29.561
6.3400 873.971 29.563
6.3500 874.689 29.575
6.3600 875.807 29.594
6.3700 877.125 29.616
6.3800 878.439 29.638
6.3900 879.546 29.657
6.4000 880.245 29.669
6.4100 880.378 29.671
6.4200 879.970 29.664
6.4300 879.092 29.649
6.4400 877.815 29.628
6.4500 876.209 29.601
6.4600 874.346 29.569
6.4700 872.295 29.535
6.4800 870.128 29.498
6.4900 867.915 29.460
6.5000 865.727 29.423
6.5100 863.623 29.387
6.5200 861.613 29.353
6.5300 859.697 29.321
6.5400 857.873 29.289
6.5500 856.141 29.260
6.5600 854.500 29.232
6.5700 852.947 29.205
6.5800 851.483 29.180
6.5900 850.107 29.157
6.6000 848.816 29.134
6.6100 847.630 29.114
6.6200 846.647 29.097
6.6300 845.983 29.086
6.6400 845.756 29.082
6.6500 846.082 29.087
6.6600 847.079 29.105
6.6700 848.864 29.135
6.6800 851.555 29.181
6.6900 855.267 29.245
6.7000 860.119 29.328
6.7100 866.139 29.430
6.7200 873.000 29.547
6.7300 880.287 29.670
6.7400 887.585 29.792
6.7500 894.480 29.908
6.7600 900.555 30.009
6.7700 905.396 30.090
6.7800 908.587 30.143
6.7900 909.714 30.161
6.8000 908.361 30.139
6.8100 904.279 30.071
6.8200 897.886 29.965
6.8300 889.762 29.829
6.8400 880.492 29.673
6.8500 870.658 29.507
6.8600 860.843 29.340
6.8700 851.629 29.183
6.8800 843.599 29.045
6.8900 837.336 28.937
6.9000 833.422 28.869
6.9100 832.250 28.849
6.9200 833.452 28.870
6.9300 836.470 28.922
6.9400 840.744 28.996
6.9500 845.718 29.081
6.9600 850.831 29.169
6.9700 855.527 29.249
6.9800 859.246 29.313
6.9900 861.430 29.350
7.0000 861.521 29.352
7.0100 859.149 29.311
7.0200 854.698 29.235
7.0300 848.740 29.133
7.0400 841.848 29.015
7.0500 834.595 28.889
7.0600 827.552 28.767
7.0700 821.293 28.658
7.0800 816.389 28.573
7.0900 813.414 28.520
7.1000 812.940 28.512
7.1100 815.328 28.554
7.1200 820.096 28.637
7.1300 826.550 28.750
7.1400 833.996 28.879
7.1500 841.742 29.013
7.1600 849.094 29.139
7.1700 855.357 29.246
7.1800 859.839 29.323
7.1900 861.846 29.357
7.2000 860.685 29.337
7.2100 855.900 29.256
7.2200 847.989 29.120
7.2300 837.687 28.943
7.2400 825.732 28.736
7.2500 812.859 28.511
7.2600 799.804 28.281
7.2700 787.303 28.059
7.2800 776.091 27.858
7.2900 766.906 27.693
7.3000 760.483 27.577
7.3100 757.334 27.520
7.3200 757.074 27.515
7.3300 759.094 27.552
7.3400 762.785 27.619
7.3500 767.538 27.704
7.3600 772.745 27.798
7.3700 777.795 27.889
7.3800 782.082 27.966
7.3900 784.994 28.018
7.4000 785.924 28.034
7.4100 784.460 28.008
7.4200 780.978 27.946
7.4300 776.053 27.858
7.4400 770.259 27.754
7.4500 764.171 27.644
7.4600 758.362 27.538
7.4700 753.406 27.448
7.4800 749.879 27.384
7.4900 748.354 27.356
7.5000 749.405 27.375
7.5100 753.397 27.448
7.5200 759.853 27.565
7.5300 768.089 27.714
7.5400 777.418 27.882
7.5500 787.155 28.056
7.5600 796.614 28.224
7.5700 805.109 28.374
7.5800 811.954 28.495
7.5900 816.464 28.574
7.6000 817.953 28.600
7.6100 815.980 28.565
7.6200 811.081 28.479
7.6300 804.038 28.356
7.6400 795.633 28.207
7.6500 786.646 28.047
7.6600 777.858 27.890
7.6700 770.052 27.750
7.6800 764.009 27.641
7.6900 760.509 27.577
7.7000 760.334 27.574
7.7100 763.994 27.640
7.7200 770.914 27.765
7.7300 780.246 27.933
7.7400 791.143 28.127
7.7500 802.758 28.333
7.7600 814.245 28.535
7.7700 824.755 28.719
7.7800 833.443 28.869
7.7900 839.461 28.973
7.8000 841.961 29.017
7.8100 840.355 28.989
7.8200 835.086 28.898
7.8300 826.855 28.755
7.8400 816.361 28.572
7.8500 804.307 28.360
7.8600 791.392 28.132
7.8700 778.318 27.898
7.8800 765.785 27.673
7.8900 754.494 27.468
7.9000 745.146 27.297
7.9100 738.286 27.171
7.9200 733.835 27.089
7.9300 731.560 27.047
7.9400 731.227 27.041
7.9500 732.601 27.067
7.9600 735.449 27.119
7.9700 739.537 27.194
7.9800 744.630 27.288
7.9900 750.495 27.395
8.0000 756.897 27.512
8.0100 763.600 27.633
8.0200 770.355 27.755
8.0300 776.910 27.873
8.0400 783.012 27.982
8.0500 788.411 28.079
8.0600 792.854 28.158
8.0700 796.089 28.215
8.0800 797.865 28.247
8.0900 797.929 28.248
8.1000 796.030 28.214
8.1100 792.030 28.143
8.1200 786.248 28.040
8.1300 779.117 27.913
8.1400 771.072 27.768
8.1500 762.545 27.614
8.1600 753.970 27.459
8.1700 745.780 27.309
8.1800 738.409 27.174
8.1900 732.290 27.061
8.2000 727.856 26.979
8.2100 725.417 26.934
8.2200 724.784 26.922
8.2300 725.643 26.938
8.2400 727.682 26.976
8.2500 730.588 27.029
8.2600 734.048 27.093
8.2700 737.748 27.162
8.2800 741.375 27.228
8.2900 744.617 27.288
8.3000 747.160 27.334
8.3100 748.776 27.364
8.3200 749.578 27.378
8.3300 749.762 27.382
8.3400 749.526 27.377
8.3500 749.067 27.369
8.3600 748.582 27.360
8.3700 748.267 27.354
8.3800 748.322 27.355
8.3900 748.941 27.367
8.4000 750.323 27.392
8.4100 752.581 27.433
8.4200 755.492 27.486
8.4300 758.751 27.545
8.4400 762.051 27.605
8.4500 765.086 27.660
8.4600 767.549 27.705
8.4700 769.136 27.733
8.4800 769.539 27.741
8.4900 768.452 27.721
8.5000 765.569 27.669
8.5100 760.716 27.581
8.5200 754.248 27.464
8.5300 746.651 27.325
8.5400 738.411 27.174
8.5500 730.016 27.019
8.5600 721.951 26.869
8.5700 714.703 26.734
8.5800 708.759 26.623
8.5900 704.605 26.544
8.6000 702.727 26.509
8.6100 703.447 26.523
8.6200 706.424 26.579
8.6300 711.151 26.667
8.6400 717.123 26.779
8.6500 723.831 26.904
8.6600 730.771 27.033
8.6700 737.436 27.156
8.6800 743.319 27.264
8.6900 747.914 27.348
8.7000 750.714 27.399
8.7100 751.356 27.411
8.7200 750.048 27.387
8.7300 747.139 27.334
8.7400 742.980 27.258
8.7500 737.921 27.165
8.7600 732.313 27.061
8.7700 726.505 26.954
8.7800 720.849 26.849
8.7900 715.694 26.752
8.8000 711.390 26.672
8.8100 708.208 26.612
8.8200 706.093 26.572
8.8300 704.911 26.550
8.8400 704.528 26.543
8.8500 704.808 26.548
8.8600 705.619 26.563
8.8700 706.825 26.586
8.8800 708.292 26.614
8.8900 709.885 26.644
8.9000 711.470 26.673
8.9100 712.938 26.701
8.9200 714.283 26.726
8.9300 715.524 26.749
8.9400 716.679 26.771
8.9500 717.769 26.791
8.9600 718.811 26.811
8.9700 719.825 26.830
8.9800 720.831 26.848
8.9900 721.847 26.867
9.0000 722.892 26.887
9.0100 723.975 26.907
9.0200 725.060 26.927
9.0300 726.101 26.946
9.0400 727.051 26.964
9.0500 727.866 26.979
9.0600 728.497 26.991
9.0700 728.900 26.998
9.0800 729.027 27.000
9.0900 728.833 26.997
9.1000 728.271 26.986
9.1100 727.333 26.969
9.1200 726.160 26.947
9.1300 724.931 26.925
9.1400 723.825 26.904
9.1500 723.021 26.889
9.1600 722.699 26.883
9.1700 723.036 26.889
9.1800 724.212 26.911
9.1900 726.407 26.952
9.2000 729.798 27.015
9.2100 734.464 27.101
9.2200 740.079 27.204
9.2300 746.215 27.317
9.2400 752.445 27.431
9.2500 758.342 27.538
9.2600 763.477 27.631
9.2700 767.424 27.702
9.2800 769.756 27.744
9.2900 770.044 27.750
9.3000 767.862 27.710
9.3100 762.950 27.622
9.3200 755.717 27.490
9.3300 746.741 27.327
9.3400 736.599 27.140
9.3500 725.870 26.942
9.3600 715.130 26.742
9.3700 704.956 26.551
9.3800 695.927 26.380
9.3900 688.619 26.242
9.4000 683.611 26.146
9.4100 681.317 26.102
9.4200 681.506 26.106
9.4300 683.784 26.149
9.4400 687.758 26.225
9.4500 693.033 26.326
9.4600 699.217 26.443
9.4700 705.915 26.569
9.4800 712.733 26.697
9.4900 719.278 26.819
9.5000 725.157 26.929
9.5100 730.052 27.019
9.5200 733.951 27.092
9.5300 736.918 27.146
9.5400 739.020 27.185
9.5500 740.319 27.209
9.5600 740.882 27.219
9.5700 740.772 27.217
9.5800 740.055 27.204
9.5900 738.795 27.181
9.6000 737.056 27.149
9.6100 734.896 27.109
9.6200 732.344 27.062
9.6300 729.422 27.008
9.6400 726.149 26.947
9.6500 722.548 26.880
9.6600 718.640 26.807
9.6700 714.446 26.729
9.6800 709.987 26.646
9.6900 705.286 26.557
9.7000 700.362 26.464
9.7100 695.249 26.368
9.7200 690.021 26.268
9.7300 684.765 26.168
9.7400 679.566 26.068
9.7500 674.511 25.971
9.7600 669.685 25.878
9.7700 665.175 25.791
9.7800 661.066 25.711
9.7900 657.445 25.641
9.8000 654.398 25.581
9.8100 651.982 25.534
9.8200 650.138 25.498
9.8300 648.781 25.471
9.8400 647.824 25.452
9.8500 647.180 25.440
9.8600 646.763 25.432
9.8700 646.485 25.426
9.8800 646.261 25.422
9.8900 646.004 25.417
9.9000 645.626 25.409
9.9100 645.067 25.398
9.9200 644.369 25.384
9.9300 643.597 25.369
9.9400 642.820 25.354
9.9500 642.102 25.340
9.9600 641.512 25.328
9.9700 641.116 25.320
9.9800 640.981 25.318
9.9900 641.173 25.321
10.0000 641.760 25.333
10.0100 642.773 25.353
10.0200 644.102 25.379
10.0300 645.606 25.409
10.0400 647.138 25.439
10.0500 648.556 25.467
10.0600 649.715 25.490
10.0700 650.472 25.504
10.0800 650.683 25.508
10.0900 650.204 25.499
10.1000 648.890 25.473
10.1100 646.663 25.430
10.1200 643.701 25.371
10.1300 640.247 25.303
10.1400 636.544 25.230
10.1500 632.836 25.156
10.1600 629.365 25.087
10.1700 626.375 25.027
10.1800 624.109 24.982
10.1900 622.809 24.956
10.2000 622.720 24.954
10.2100 624.000 24.980
10.2200 626.471 25.029
10.2300 629.873 25.097
10.2400 633.945 25.178
10.2500 638.424 25.267
10.2600 643.050 25.358
10.2700 647.562 25.447
10.2800 651.698 25.528
10.2900 655.197 25.597
10.3000 657.797 25.648
10.3100 659.316 25.677
10.3200 659.881 25.688
10.3300 659.700 25.685
10.3400 658.977 25.671
10.3500 657.920 25.650
10.3600 656.734 25.627
10.3700 655.626 25.605
10.3800 654.803 25.589
10.3900 654.469 25.583
10.4000 654.832 25.590
10.4100 656.037 25.613
10.4200 657.983 25.651
10.4300 660.511 25.700
10.4400 663.458 25.758
10.4500 666.666 25.820
10.4600 669.972 25.884
10.4700 673.215 25.946
10.4800 676.236 26.005
10.4900 678.873 26.055
10.5000 680.965 26.095
10.5100 682.379 26.122
10.5200 683.091 26.136
10.5300 683.103 26.136
10.5400 682.420 26.123
10.5500 681.045 26.097
10.5600 678.980 26.057
10.5700 676.229 26.004
10.5800 672.796 25.938
10.5900 668.682 25.859
10.6000 663.893 25.766
10.6100 658.459 25.660
10.6200 652.524 25.545
10.6300 646.260 25.422
10.6400 639.841 25.295
10.6500 633.438 25.168
10.6600 627.224 25.044
10.6700 621.371 24.927
10.6800 616.051 24.820
10.6900 611.437 24.727
10.7000 607.701 24.652
10.7100 604.957 24.596
10.7200 603.082 24.558
10.7300 601.895 24.534
10.7400 601.216 24.520
10.7500 600.863 24.513
10.7600 600.656 24.508
10.7700 600.413 24.503
10.7800 599.953 24.494
10.7900 599.096 24.476
10.8000 597.660 24.447
10.8100 595.527 24.403
10.8200 592.826 24.348
10.8300 589.749 24.285
10.8400 586.490 24.218
10.8500 583.240 24.150
10.8600 580.191 24.087
10.8700 577.536 24.032
10.8800 575.466 23.989
10.8900 574.175 23.962
10.9000 573.853 23.955
10.9100 574.631 23.971
10.9200 576.384 24.008
10.9300 578.926 24.061
10.9400 582.071 24.126
10.9500 585.632 24.200
10.9600 589.423 24.278
10.9700 593.256 24.357
10.9800 596.945 24.432
10.9900 600.304 24.501
11.0000 603.146 24.559
11.0100 605.325 24.603
11.0200 606.856 24.634
11.0300 607.796 24.654
11.0400 608.201 24.662
11.0500 608.126 24.660
11.0600 607.628 24.650
11.0700 606.764 24.633
11.0800 605.588 24.609
11.0900 604.157 24.580
11.1000 602.528 24.546
11.1100 600.768 24.511
11.1200 598.996 24.474
11.1300 597.341 24.441
11.1400 595.933 24.412
11.1500 594.902 24.391
11.1600 594.378 24.380
11.1700 594.492 24.382
11.1800 595.373 24.400
11.1900 597.151 24.437
11.2000 599.956 24.494
11.2100 603.833 24.573
11.2200 608.489 24.668
11.2300 613.544 24.770
11.2400 618.619 24.872
11.2500 623.335 24.967
11.2600 627.313 25.046
11.2700 630.175 25.103
11.2800 631.541 25.130
11.2900 631.032 25.120
11.3000 628.270 25.065
11.3100 623.030 24.961
11.3200 615.712 24.814
11.3300 606.867 24.635
11.3400 597.049 24.435
11.3500 586.811 24.224
11.3600 576.707 24.015
11.3700 567.291 23.818
11.3800 559.114 23.646
11.3900 552.731 23.510
11.4000 548.694 23.424
11.4100 547.387 23.396
11.4200 548.507 23.420
11.4300 551.584 23.486
11.4400 556.145 23.583
11.4500 561.719 23.701
11.4600 567.834 23.829
11.4700 574.017 23.959
11.4800 579.798 24.079
11.4900 584.704 24.181
11.5000 588.263 24.254
11.5100 590.124 24.292
11.5200 590.414 24.298
11.5300 589.382 24.277
11.5400 587.276 24.234
11.5500 584.344 24.173
11.5600 580.834 24.100
11.5700 576.994 24.021
11.5800 573.073 23.939
11.5900 569.318 23.860
11.6000 565.977 23.790
11.6100 563.236 23.733
11.6200 561.030 23.686
11.6300 559.231 23.648
11.6400 557.711 23.616
11.6500 556.341 23.587
11.6600 554.994 23.558
11.6700 553.543 23.527
11.6800 551.858 23.492
11.6900 549.812 23.448
11.7000 547.278 23.394
11.7100 544.192 23.328
11.7200 540.750 23.254
11.7300 537.214 23.178
11.7400 533.845 23.105
11.7500 530.905 23.041
11.7600 528.655 22.992
11.7700 527.356 22.964
11.7800 527.270 22.962
11.7900 528.658 22.993
11.8000 531.781 23.060
11.8100 536.781 23.169
11.8200 543.317 23.309
11.8300 550.932 23.472
11.8400 559.165 23.647
11.8500 567.557 23.823
11.8600 575.648 23.993
11.8700 582.979 24.145
11.8800 589.090 24.271
11.8900 593.523 24.362
11.9000 595.817 24.409
11.9100 595.654 24.406
11.9200 593.282 24.357
11.9300 589.088 24.271
11.9400 583.459 24.155
11.9500 576.785 24.016
11.9600 569.452 23.863
11.9700 561.850 23.703
11.9800 554.366 23.545
11.9900 547.387 23.396
12.0000 541.303 23.266
12.0100 536.424 23.161
12.0200 532.753 23.081
12.0300 530.217 23.026
12.0400 528.743 22.994
12.0500 528.257 22.984
12.0600 528.686 22.993
12.0700 529.957 23.021
12.0800 531.995 23.065
12.0900 534.729 23.124
12.1000 538.083 23.197
12.1100 541.960 23.280
12.1200 546.156 23.370
12.1300 550.444 23.462
12.1400 554.595 23.550
12.1500 558.382 23.630
12.1600 561.576 23.698
12.1700 563.950 23.748
12.1800 565.275 23.776
12.1900 565.322 23.777
12.2000 563.865 23.746
12.2100 560.785 23.681
12.2200 556.406 23.588
12.2300 551.161 23.477
12.2400 545.486 23.356
12.2500 539.812 23.234
12.2600 534.576 23.121
12.2700 530.210 23.026
12.2800 527.148 22.960
12.2900 525.825 22.931
12.3000 526.674 22.949
12.3100 529.966 23.021
12.3200 535.320 23.137
12.3300 542.191 23.285
12.3400 550.035 23.453
12.3500 558.306 23.629
12.3600 566.461 23.800
12.3700 573.954 23.957
12.3800 580.242 24.088
12.3900 584.779 24.182
12.4000 587.021 24.229
12.4100 586.590 24.220
12.4200 583.771 24.161
