'Id: "" Comment: "Single 30 min qual/quant raw material scan" Operator: "Paul  Stutzman" Anode: "Cu" Scantype: "Locked Coupled" TimePerStep: "175.496" X: "9999" Y: "9999" Z: "9999" 
10.0000 6.188 0.188
10.0156 6.063 0.186
10.0312 6.154 0.187
10.0468 6.279 0.189
10.0625 6.080 0.186
10.0781 6.217 0.188
10.0937 6.046 0.186
10.1093 6.091 0.186
10.1249 6.228 0.188
10.1405 5.915 0.184
10.1562 5.875 0.183
10.1718 5.898 0.183
10.1874 6.291 0.189
10.2030 6.541 0.193
10.2186 6.182 0.188
10.2342 5.852 0.183
10.2498 5.955 0.184
10.2655 5.795 0.182
10.2811 5.966 0.184
10.2967 5.841 0.182
10.3123 5.920 0.184
10.3279 5.738 0.181
10.3435 5.875 0.183
10.3591 5.664 0.180
10.3748 6.017 0.185
10.3904 5.972 0.184
10.4060 5.476 0.177
10.4216 5.977 0.185
10.4372 5.772 0.181
10.4528 5.294 0.174
10.4685 5.835 0.182
10.4841 5.806 0.182
10.4997 6.023 0.185
10.5153 5.880 0.183
10.5309 5.863 0.183
10.5465 5.493 0.177
10.5621 6.217 0.188
10.5778 6.023 0.185
10.5934 6.063 0.186
10.6090 5.635 0.179
10.6246 5.698 0.180
10.6402 5.892 0.183
10.6558 5.869 0.183
10.6714 5.749 0.181
10.6871 5.390 0.175
10.7027 5.447 0.176
10.7183 5.710 0.180
10.7339 5.875 0.183
10.7495 5.493 0.177
10.7651 5.601 0.179
10.7808 5.687 0.180
10.7964 5.772 0.181
10.8120 5.823 0.182
10.8276 5.977 0.185
10.8432 5.635 0.179
10.8588 5.510 0.177
10.8744 5.692 0.180
10.8901 5.727 0.181
10.9057 5.544 0.178
10.9213 5.584 0.178
10.9369 5.812 0.182
10.9525 5.886 0.183
10.9681 5.920 0.184
10.9838 5.584 0.178
10.9994 5.767 0.181
11.0150 5.823 0.182
11.0306 5.966 0.184
11.0462 5.641 0.179
11.0618 5.778 0.181
11.0774 6.069 0.186
11.0931 5.812 0.182
11.1087 5.806 0.182
11.1243 5.567 0.178
11.1399 5.567 0.178
11.1555 5.858 0.183
11.1711 5.704 0.180
11.1867 5.772 0.181
11.2024 5.772 0.181
11.2180 5.242 0.173
11.2336 5.607 0.179
11.2492 5.556 0.178
11.2648 5.419 0.176
11.2804 5.658 0.180
11.2961 5.180 0.172
11.3117 5.727 0.181
11.3273 5.607 0.179
11.3429 5.351 0.175
11.3585 5.812 0.182
11.3741 5.567 0.178
11.3897 5.402 0.175
11.4054 5.909 0.183
11.4210 5.328 0.174
11.4366 5.322 0.174
11.4522 5.527 0.177
11.4678 5.413 0.176
11.4834 5.385 0.175
11.4990 5.732 0.181
11.5147 5.909 0.183
11.5303 6.012 0.185
11.5459 5.373 0.175
11.5615 5.983 0.185
11.5771 5.385 0.175
11.5927 5.613 0.179
11.6084 5.493 0.177
11.6240 5.590 0.178
11.6396 5.710 0.180
11.6552 5.818 0.182
11.6708 4.992 0.169
11.6864 5.333 0.174
11.7020 5.356 0.175
11.7177 5.276 0.173
11.7333 5.345 0.175
11.7489 5.299 0.174
11.7645 5.311 0.174
11.7801 5.539 0.178
11.7957 5.294 0.174
11.8114 5.168 0.172
11.8270 5.510 0.177
11.8426 5.145 0.171
11.8582 5.561 0.178
11.8738 5.185 0.172
11.8894 5.396 0.175
11.9050 5.487 0.177
11.9207 5.658 0.180
11.9363 5.185 0.172
11.9519 5.276 0.173
11.9675 5.356 0.175
11.9831 5.482 0.177
11.9987 5.385 0.175
12.0143 5.442 0.176
12.0300 5.419 0.176
12.0456 5.379 0.175
12.0612 5.276 0.173
12.0768 5.544 0.178
12.0924 5.493 0.177
12.1080 5.436 0.176
12.1237 5.903 0.183
12.1393 5.516 0.177
12.1549 5.425 0.176
12.1705 5.687 0.180
12.1861 5.727 0.181
12.2017 5.465 0.176
12.2173 5.396 0.175
12.2330 5.567 0.178
12.2486 5.476 0.177
12.2642 5.499 0.177
12.2798 5.385 0.175
12.2954 5.596 0.179
12.3110 5.880 0.183
12.3266 5.191 0.172
12.3423 5.442 0.176
12.3579 5.482 0.177
12.3735 5.687 0.180
12.3891 5.823 0.182
12.4047 5.943 0.184
12.4203 5.265 0.173
12.4360 5.875 0.183
12.4516 6.103 0.186
12.4672 5.835 0.182
12.4828 5.658 0.180
12.4984 5.596 0.179
12.5140 5.390 0.175
12.5296 5.630 0.179
12.5453 5.379 0.175
12.5609 5.675 0.180
12.5765 5.601 0.179
12.5921 5.670 0.180
12.6077 5.442 0.176
12.6233 5.601 0.179
12.6390 5.459 0.176
12.6546 5.573 0.178
12.6702 5.972 0.184
12.6858 5.584 0.178
12.7014 5.356 0.175
12.7170 5.356 0.175
12.7326 5.584 0.178
12.7483 5.430 0.176
12.7639 5.351 0.175
12.7795 5.322 0.174
12.7951 5.248 0.173
12.8107 5.202 0.172
12.8263 5.117 0.171
12.8419 5.145 0.171
12.8576 5.219 0.172
12.8732 5.259 0.173
12.8888 5.163 0.172
12.9044 5.419 0.176
12.9200 5.294 0.174
12.9356 5.333 0.174
12.9513 5.254 0.173
12.9669 5.379 0.175
12.9825 5.174 0.172
12.9981 5.237 0.173
13.0137 5.197 0.172
13.0293 5.128 0.171
13.0449 5.425 0.176
13.0606 5.299 0.174
13.0762 5.339 0.174
13.0918 5.288 0.174
13.1074 5.316 0.174
13.1230 5.083 0.170
13.1386 4.633 0.162
13.1543 5.385 0.175
13.1699 5.425 0.176
13.1855 5.385 0.175
13.2011 5.088 0.170
13.2167 5.180 0.172
13.2323 5.214 0.172
13.2479 5.043 0.170
13.2636 5.311 0.174
13.2792 5.339 0.174
13.2948 5.288 0.174
13.3104 5.123 0.171
13.3260 4.832 0.166
13.3416 5.185 0.172
13.3572 4.963 0.168
13.3729 4.923 0.167
13.3885 5.362 0.175
13.4041 4.957 0.168
13.4197 5.026 0.169
13.4353 4.957 0.168
13.4509 5.100 0.170
13.4666 5.014 0.169
13.4822 5.265 0.173
13.4978 5.248 0.173
13.5134 4.895 0.167
13.5290 5.145 0.171
13.5446 5.014 0.169
13.5602 4.986 0.169
13.5759 4.986 0.169
13.5915 4.986 0.169
13.6071 4.912 0.167
13.6227 5.163 0.172
13.6383 5.231 0.173
13.6539 4.929 0.168
13.6695 5.066 0.170
13.6852 4.952 0.168
13.7008 4.747 0.164
13.7164 5.003 0.169
13.7320 4.935 0.168
13.7476 4.798 0.165
13.7632 4.974 0.168
13.7789 4.644 0.163
13.7945 5.111 0.171
13.8101 5.163 0.172
13.8257 4.969 0.168
13.8413 4.718 0.164
13.8569 5.077 0.170
13.8725 5.265 0.173
13.8882 4.917 0.167
13.9038 5.276 0.173
13.9194 4.866 0.167
13.9350 5.026 0.169
13.9506 5.180 0.172
13.9662 5.083 0.170
13.9819 4.707 0.164
13.9975 5.276 0.173
14.0131 5.151 0.171
14.0287 5.094 0.170
14.0443 4.900 0.167
14.0599 4.758 0.165
14.0755 4.929 0.168
14.0912 5.071 0.170
14.1068 5.299 0.174
14.1224 4.883 0.167
14.1380 5.157 0.171
14.1536 4.969 0.168
14.1692 5.265 0.173
14.1848 5.219 0.172
14.2005 5.202 0.172
14.2161 5.248 0.173
14.2317 5.043 0.170
14.2473 4.935 0.168
14.2629 5.533 0.178
14.2785 5.516 0.177
14.2942 5.214 0.172
14.3098 5.618 0.179
14.3254 5.145 0.171
14.3410 5.573 0.178
14.3566 5.248 0.173
14.3722 5.254 0.173
14.3878 5.373 0.175
14.4035 5.436 0.176
14.4191 5.362 0.175
14.4347 5.647 0.179
14.4503 5.390 0.175
14.4659 5.527 0.177
14.4815 5.316 0.174
14.4971 5.385 0.175
14.5128 5.379 0.175
14.5284 5.151 0.171
14.5440 5.180 0.172
14.5596 5.402 0.175
14.5752 5.385 0.175
14.5908 5.630 0.179
14.6065 5.465 0.176
14.6221 5.521 0.177
14.6377 5.573 0.178
14.6533 4.997 0.169
14.6689 5.282 0.173
14.6845 5.516 0.177
14.7001 5.049 0.170
14.7158 5.373 0.175
14.7314 5.390 0.175
14.7470 4.781 0.165
14.7626 5.225 0.173
14.7782 5.225 0.173
14.7938 5.225 0.173
14.8095 5.043 0.170
14.8251 5.009 0.169
14.8407 5.333 0.174
14.8563 5.100 0.170
14.8719 4.866 0.167
14.8875 4.992 0.169
14.9031 4.957 0.168
14.9188 4.872 0.167
14.9344 4.838 0.166
14.9500 4.718 0.164
14.9656 4.701 0.164
14.9812 4.541 0.161
14.9968 4.604 0.162
15.0124 4.695 0.164
15.0281 4.724 0.164
15.0437 4.570 0.161
15.0593 4.593 0.162
15.0749 4.530 0.161
15.0905 4.764 0.165
15.1061 4.342 0.157
15.1218 4.747 0.164
15.1374 4.821 0.166
15.1530 4.684 0.163
15.1686 4.889 0.167
15.1842 4.655 0.163
15.1998 4.439 0.159
15.2154 4.593 0.162
15.2311 4.758 0.165
15.2467 4.541 0.161
15.2623 4.638 0.163
15.2779 4.798 0.165
15.2935 4.878 0.167
15.3091 4.633 0.162
15.3247 4.758 0.165
15.3404 4.615 0.162
15.3560 4.729 0.164
15.3716 4.621 0.162
15.3872 4.570 0.161
15.4028 4.598 0.162
15.4184 4.650 0.163
15.4341 4.735 0.164
15.4497 4.752 0.165
15.4653 4.855 0.166
15.4809 4.843 0.166
15.4965 4.718 0.164
15.5121 4.792 0.165
15.5277 4.809 0.166
15.5434 4.826 0.166
15.5590 4.849 0.166
15.5746 4.667 0.163
15.5902 4.598 0.162
15.6058 4.667 0.163
15.6214 4.598 0.162
15.6371 4.912 0.167
15.6527 4.781 0.165
15.6683 4.684 0.163
15.6839 4.399 0.158
15.6995 4.832 0.166
15.7151 4.621 0.162
15.7307 4.940 0.168
15.7464 4.712 0.164
15.7620 4.809 0.166
15.7776 4.883 0.167
15.7932 4.900 0.167
15.8088 4.399 0.158
15.8244 4.849 0.166
15.8400 4.878 0.167
15.8557 4.764 0.165
15.8713 4.900 0.167
15.8869 4.878 0.167
15.9025 4.980 0.168
15.9181 4.804 0.165
15.9337 4.707 0.164
15.9494 4.957 0.168
15.9650 4.809 0.166
15.9806 4.826 0.166
15.9962 4.895 0.167
16.0118 4.809 0.166
16.0274 4.872 0.167
16.0430 4.672 0.163
16.0587 4.530 0.161
16.0743 4.724 0.164
16.0899 4.838 0.166
16.1055 4.855 0.166
16.1211 5.049 0.170
16.1367 5.248 0.173
16.1523 4.798 0.165
16.1680 5.191 0.172
16.1836 4.849 0.166
16.1992 4.929 0.168
16.2148 5.014 0.169
16.2304 5.288 0.174
16.2460 5.180 0.172
16.2617 5.026 0.169
16.2773 4.935 0.168
16.2929 4.758 0.165
16.3085 4.786 0.165
16.3241 4.952 0.168
16.3397 4.895 0.167
16.3553 4.946 0.168
16.3710 4.957 0.168
16.3866 4.889 0.167
16.4022 4.980 0.168
16.4178 5.248 0.173
16.4334 5.151 0.171
16.4490 4.986 0.169
16.4647 5.168 0.172
16.4803 5.049 0.170
16.4959 5.083 0.170
16.5115 5.168 0.172
16.5271 4.764 0.165
16.5427 4.644 0.163
16.5583 4.809 0.166
16.5740 4.724 0.164
16.5896 4.912 0.167
16.6052 4.792 0.165
16.6208 4.798 0.165
16.6364 4.986 0.169
16.6520 5.214 0.172
16.6676 4.923 0.167
16.6833 4.684 0.163
16.6989 5.276 0.173
16.7145 4.581 0.162
16.7301 4.866 0.167
16.7457 4.826 0.166
16.7613 4.712 0.164
16.7770 4.718 0.164
16.7926 4.701 0.164
16.8082 5.083 0.170
16.8238 4.912 0.167
16.8394 4.536 0.161
16.8550 4.752 0.165
16.8706 4.655 0.163
16.8863 4.900 0.167
16.9019 4.764 0.165
16.9175 4.678 0.163
16.9331 4.769 0.165
16.9487 4.923 0.167
16.9643 4.598 0.162
16.9799 4.564 0.161
16.9956 4.764 0.165
17.0112 4.963 0.168
17.0268 4.564 0.161
17.0424 5.037 0.169
17.0580 4.758 0.165
17.0736 5.014 0.169
17.0893 4.861 0.166
17.1049 4.638 0.163
17.1205 4.872 0.167
17.1361 4.422 0.159
17.1517 4.764 0.165
17.1673 4.980 0.168
17.1829 4.536 0.161
17.1986 4.758 0.165
17.2142 4.889 0.167
17.2298 4.952 0.168
17.2454 4.826 0.166
17.2610 4.718 0.164
17.2766 4.695 0.164
17.2923 4.838 0.166
17.3079 4.672 0.163
17.3235 4.530 0.161
17.3391 4.604 0.162
17.3547 4.519 0.160
17.3703 4.376 0.158
17.3859 4.598 0.162
17.4016 4.587 0.162
17.4172 4.735 0.164
17.4328 4.866 0.167
17.4484 4.747 0.164
17.4640 4.564 0.161
17.4796 5.066 0.170
17.4952 4.376 0.158
17.5109 4.627 0.162
17.5265 4.450 0.159
17.5421 4.541 0.161
17.5577 4.655 0.163
17.5733 4.439 0.159
17.5889 4.707 0.164
17.6046 4.707 0.164
17.6202 4.690 0.163
17.6358 4.775 0.165
17.6514 4.644 0.163
17.6670 4.781 0.165
17.6826 4.678 0.163
17.6982 4.781 0.165
17.7139 4.621 0.162
17.7295 4.883 0.167
17.7451 4.798 0.165
17.7607 4.826 0.166
17.7763 4.946 0.168
17.7919 4.547 0.161
17.8076 4.849 0.166
17.8232 4.633 0.162
17.8388 4.644 0.163
17.8544 4.764 0.165
17.8700 4.610 0.162
17.8856 4.581 0.162
17.9012 4.690 0.163
17.9169 4.729 0.164
17.9325 4.650 0.163
17.9481 4.604 0.162
17.9637 4.382 0.158
17.9793 4.399 0.158
17.9949 4.274 0.156
18.0105 4.769 0.165
18.0262 4.325 0.157
18.0418 4.382 0.158
18.0574 4.576 0.161
18.0730 4.541 0.161
18.0886 4.707 0.164
18.1042 4.661 0.163
18.1199 4.576 0.161
18.1355 4.701 0.164
18.1511 4.581 0.162
18.1667 4.576 0.161
18.1823 4.439 0.159
18.1979 4.655 0.163
18.2135 4.502 0.160
18.2292 4.821 0.166
18.2448 4.655 0.163
18.2604 4.490 0.160
18.2760 4.456 0.159
18.2916 4.747 0.164
18.3072 4.861 0.166
18.3228 4.633 0.162
18.3385 4.684 0.163
18.3541 4.672 0.163
18.3697 4.291 0.156
18.3853 4.473 0.160
18.4009 4.536 0.161
18.4165 4.445 0.159
18.4322 4.729 0.164
18.4478 4.690 0.163
18.4634 4.445 0.159
18.4790 4.821 0.166
18.4946 4.957 0.168
18.5102 4.427 0.159
18.5258 4.530 0.161
18.5415 4.410 0.159
18.5571 4.655 0.163
18.5727 4.775 0.165
18.5883 4.462 0.159
18.6039 4.445 0.159
18.6195 4.541 0.161
18.6352 4.638 0.163
18.6508 4.650 0.163
18.6664 4.792 0.165
18.6820 4.615 0.162
18.6976 4.633 0.162
18.7132 4.615 0.162
18.7288 4.798 0.165
18.7445 4.308 0.157
18.7601 4.593 0.162
18.7757 4.786 0.165
18.7913 4.672 0.163
18.8069 4.735 0.164
18.8225 4.775 0.165
18.8381 5.123 0.171
18.8538 4.906 0.167
18.8694 4.610 0.162
18.8850 4.786 0.165
18.9006 4.541 0.161
18.9162 4.747 0.164
18.9318 4.427 0.159
18.9475 4.319 0.157
18.9631 4.519 0.160
18.9787 4.445 0.159
18.9943 4.456 0.159
19.0099 4.462 0.159
19.0255 4.775 0.165
19.0411 4.507 0.160
19.0568 4.370 0.158
19.0724 4.667 0.163
19.0880 4.097 0.153
19.1036 4.011 0.151
19.1192 4.188 0.154
19.1348 4.148 0.154
19.1504 4.536 0.161
19.1661 4.239 0.155
19.1817 4.325 0.157
19.1973 4.838 0.166
19.2129 4.370 0.158
19.2285 4.336 0.157
19.2441 4.205 0.155
19.2598 4.194 0.155
19.2754 4.587 0.162
19.2910 4.342 0.157
19.3066 4.405 0.158
19.3222 4.279 0.156
19.3378 4.177 0.154
19.3534 4.268 0.156
19.3691 4.279 0.156
19.3847 4.467 0.160
19.4003 4.359 0.158
19.4159 4.416 0.159
19.4315 4.165 0.154
19.4471 4.331 0.157
19.4628 4.524 0.161
19.4784 4.439 0.159
19.4940 4.388 0.158
19.5096 4.029 0.152
19.5252 4.439 0.159
19.5408 4.490 0.160
19.5564 4.541 0.161
19.5721 4.051 0.152
19.5877 4.348 0.157
19.6033 4.530 0.161
19.6189 4.319 0.157
19.6345 4.274 0.156
19.6501 4.331 0.157
19.6657 4.194 0.155
19.6814 4.467 0.160
19.6970 4.342 0.157
19.7126 4.433 0.159
19.7282 4.160 0.154
19.7438 4.353 0.157
19.7594 4.108 0.153
19.7751 4.279 0.156
19.7907 4.336 0.157
19.8063 4.228 0.155
19.8219 4.057 0.152
19.8375 4.410 0.159
19.8531 4.234 0.155
19.8687 4.262 0.156
19.8844 4.097 0.153
19.9000 4.456 0.159
19.9156 4.502 0.160
19.9312 4.655 0.163
19.9468 4.228 0.155
19.9624 4.137 0.154
19.9780 3.989 0.151
19.9937 4.530 0.161
20.0093 4.382 0.158
20.0249 4.519 0.160
20.0405 4.342 0.157
20.0561 4.433 0.159
20.0717 4.376 0.158
20.0874 4.291 0.156
20.1030 4.536 0.161
20.1186 4.536 0.161
20.1342 4.815 0.166
20.1498 4.974 0.168
20.1654 4.741 0.164
20.1810 5.145 0.171
20.1967 5.049 0.170
20.2123 5.014 0.169
20.2279 4.861 0.166
20.2435 5.123 0.171
20.2591 5.305 0.174
20.2747 5.106 0.171
20.2904 5.356 0.175
20.3060 5.163 0.172
20.3216 5.333 0.174
20.3372 5.550 0.178
20.3528 5.214 0.172
20.3684 5.128 0.171
20.3840 5.504 0.177
20.3997 5.567 0.178
20.4153 5.647 0.179
20.4309 5.761 0.181
20.4465 5.955 0.184
20.4621 5.835 0.182
20.4777 6.063 0.186
20.4933 6.581 0.194
20.5090 6.490 0.192
20.5246 6.524 0.193
20.5402 7.208 0.203
20.5558 7.140 0.202
20.5714 7.539 0.207
20.5870 7.789 0.211
20.6027 8.410 0.219
20.6183 8.564 0.221
20.6339 9.157 0.228
20.6495 9.784 0.236
20.6651 11.299 0.254
20.6807 12.559 0.268
20.6963 14.280 0.285
20.7120 17.436 0.315
20.7276 21.180 0.347
20.7432 27.260 0.394
20.7588 34.371 0.443
20.7744 45.859 0.511
20.7900 61.329 0.591
20.8056 82.589 0.686
20.8213 107.757 0.784
20.8369 133.587 0.872
20.8525 146.619 0.914
20.8681 132.841 0.870
20.8837 109.661 0.790
20.8993 87.711 0.707
20.9150 67.033 0.618
20.9306 45.141 0.507
20.9462 27.596 0.397
20.9618 17.681 0.317
20.9774 13.220 0.274
20.9930 10.479 0.244
21.0086 9.573 0.234
21.0243 9.106 0.228
21.0399 8.296 0.217
21.0555 7.242 0.203
21.0711 7.014 0.200
21.0867 6.735 0.196
21.1023 6.439 0.192
21.1180 6.405 0.191
21.1336 6.222 0.188
21.1492 5.510 0.177
21.1648 5.898 0.183
21.1804 5.351 0.175
21.1960 5.151 0.171
21.2116 5.687 0.180
21.2273 5.191 0.172
21.2429 5.168 0.172
21.2585 5.083 0.170
21.2741 4.923 0.167
21.2897 4.980 0.168
21.3053 4.815 0.166
21.3209 4.992 0.169
21.3366 4.804 0.165
21.3522 4.638 0.163
21.3678 4.393 0.158
21.3834 4.416 0.159
21.3990 4.963 0.168
21.4146 4.769 0.165
21.4303 4.917 0.167
21.4459 5.049 0.170
21.4615 4.923 0.167
21.4771 4.547 0.161
21.4927 4.621 0.162
21.5083 4.718 0.164
21.5239 4.519 0.160
21.5396 4.536 0.161
21.5552 4.365 0.158
21.5708 4.878 0.167
21.5864 4.633 0.162
21.6020 4.581 0.162
21.6176 4.370 0.158
21.6332 4.633 0.162
21.6489 4.593 0.162
21.6645 4.308 0.157
21.6801 4.188 0.154
21.6957 4.513 0.160
21.7113 4.331 0.157
21.7269 4.376 0.158
21.7426 4.422 0.159
21.7582 4.205 0.155
21.7738 4.365 0.158
21.7894 4.410 0.159
21.8050 4.462 0.159
21.8206 4.336 0.157
21.8362 4.234 0.155
21.8519 4.068 0.152
21.8675 4.006 0.151
21.8831 4.536 0.161
21.8987 4.473 0.160
21.9143 4.331 0.157
21.9299 4.815 0.166
21.9456 4.462 0.159
21.9612 4.165 0.154
21.9768 4.234 0.155
21.9924 4.473 0.160
22.0080 4.359 0.158
22.0236 4.188 0.154
22.0392 4.627 0.162
22.0549 4.137 0.154
22.0705 4.296 0.156
22.0861 4.257 0.156
22.1017 4.313 0.157
22.1173 4.353 0.157
22.1329 4.057 0.152
22.1485 4.222 0.155
22.1642 3.989 0.151
22.1798 4.393 0.158
22.1954 4.393 0.158
22.2110 4.194 0.155
22.2266 4.148 0.154
22.2422 4.177 0.154
22.2579 4.439 0.159
22.2735 4.285 0.156
22.2891 4.257 0.156
22.3047 4.279 0.156
22.3203 4.262 0.156
22.3359 4.051 0.152
22.3515 4.342 0.157
22.3672 4.445 0.159
22.3828 4.011 0.151
22.3984 4.331 0.157
22.4140 4.291 0.156
22.4296 4.205 0.155
22.4452 4.114 0.153
22.4608 4.490 0.160
22.4765 4.148 0.154
22.4921 4.097 0.153
22.5077 4.205 0.155
22.5233 4.029 0.152
22.5389 3.937 0.150
22.5545 4.131 0.153
22.5702 3.972 0.150
22.5858 4.023 0.151
22.6014 4.080 0.152
22.6170 4.017 0.151
22.6326 3.841 0.148
22.6482 4.057 0.152
22.6638 4.086 0.153
22.6795 4.131 0.153
22.6951 4.091 0.153
22.7107 4.034 0.152
22.7263 4.091 0.153
22.7419 3.966 0.150
22.7575 4.171 0.154
22.7732 4.177 0.154
22.7888 4.137 0.154
22.8044 4.068 0.152
22.8200 4.251 0.156
22.8356 4.165 0.154
22.8512 4.046 0.152
22.8668 4.074 0.152
22.8825 3.920 0.149
22.8981 4.029 0.152
22.9137 3.721 0.146
22.9293 3.841 0.148
22.9449 3.875 0.149
22.9605 4.200 0.155
22.9761 4.108 0.153
22.9918 3.841 0.148
23.0074 4.080 0.152
23.0230 4.017 0.151
23.0386 4.313 0.157
23.0542 4.125 0.153
23.0698 4.137 0.154
23.0855 4.011 0.151
23.1011 4.308 0.157
23.1167 4.011 0.151
23.1323 3.977 0.151
23.1479 3.989 0.151
23.1635 4.034 0.152
23.1791 3.858 0.148
23.1948 4.011 0.151
23.2104 3.818 0.147
23.2260 4.057 0.152
23.2416 3.766 0.146
23.2572 3.835 0.148
23.2728 3.989 0.151
23.2885 3.989 0.151
23.3041 4.120 0.153
23.3197 3.823 0.148
23.3353 3.926 0.150
23.3509 3.972 0.150
23.3665 4.148 0.154
23.3821 3.829 0.148
23.3978 4.239 0.155
23.4134 3.795 0.147
23.4290 4.137 0.154
23.4446 3.909 0.149
23.4602 3.858 0.148
23.4758 4.279 0.156
23.4914 3.920 0.149
23.5071 4.125 0.153
23.5227 4.296 0.156
23.5383 4.086 0.153
23.5539 4.074 0.152
23.5695 3.744 0.146
23.5851 4.103 0.153
23.6008 4.154 0.154
23.6164 3.949 0.150
23.6320 4.057 0.152
23.6476 3.955 0.150
23.6632 3.903 0.149
23.6788 4.068 0.152
23.6944 4.108 0.153
23.7101 4.154 0.154
23.7257 3.937 0.150
23.7413 4.257 0.156
23.7569 4.131 0.153
23.7725 3.829 0.148
23.7881 3.863 0.148
23.8037 3.766 0.146
23.8194 4.160 0.154
23.8350 4.040 0.152
23.8506 4.000 0.151
23.8662 3.955 0.150
23.8818 4.194 0.155
23.8974 4.484 0.160
23.9131 4.416 0.159
23.9287 4.559 0.161
23.9443 4.462 0.159
23.9599 4.365 0.158
23.9755 4.895 0.167
23.9911 4.752 0.165
24.0067 5.265 0.173
24.0224 5.641 0.179
24.0380 5.185 0.172
24.0536 4.992 0.169
24.0692 4.393 0.158
24.0848 4.165 0.154
24.1004 4.165 0.154
24.1161 3.926 0.150
24.1317 3.806 0.147
24.1473 4.011 0.151
24.1629 4.040 0.152
24.1785 4.143 0.154
24.1941 4.188 0.154
24.2097 4.120 0.153
24.2254 4.097 0.153
24.2410 4.023 0.151
24.2566 4.091 0.153
24.2722 3.955 0.150
24.2878 4.319 0.157
24.3034 3.863 0.148
24.3190 4.257 0.156
24.3347 3.994 0.151
24.3503 3.943 0.150
24.3659 4.000 0.151
24.3815 4.188 0.154
24.3971 4.154 0.154
24.4127 4.051 0.152
24.4284 4.143 0.154
24.4440 4.091 0.153
24.4596 4.091 0.153
24.4752 4.006 0.151
24.4908 4.239 0.155
24.5064 4.188 0.154
24.5220 4.365 0.158
24.5377 4.251 0.156
24.5533 4.143 0.154
24.5689 4.239 0.155
24.5845 4.034 0.152
24.6001 4.074 0.152
24.6157 3.966 0.150
24.6313 4.325 0.157
24.6470 4.108 0.153
24.6626 4.217 0.155
24.6782 4.581 0.162
24.6938 4.519 0.160
24.7094 4.473 0.160
24.7250 4.792 0.165
24.7407 4.353 0.157
24.7563 4.684 0.163
24.7719 4.678 0.163
24.7875 4.621 0.162
24.8031 4.610 0.162
24.8187 4.866 0.167
24.8343 4.519 0.160
24.8500 4.752 0.165
24.8656 4.752 0.165
24.8812 4.587 0.162
24.8968 5.060 0.170
24.9124 4.336 0.157
24.9280 5.043 0.170
24.9437 4.786 0.165
24.9593 4.747 0.164
24.9749 4.912 0.167
24.9905 4.952 0.168
25.0061 5.128 0.171
25.0217 4.946 0.168
25.0373 5.031 0.169
25.0530 4.906 0.167
25.0686 4.775 0.165
25.0842 4.838 0.166
25.0998 5.635 0.179
25.1154 5.402 0.175
25.1310 4.952 0.168
25.1466 5.755 0.181
25.1623 5.533 0.178
25.1779 5.465 0.176
25.1935 6.165 0.187
25.2091 6.051 0.186
25.2247 6.405 0.191
25.2403 6.747 0.196
25.2560 6.832 0.197
25.2716 7.197 0.203
25.2872 7.430 0.206
25.3028 7.328 0.204
25.3184 7.801 0.211
25.3340 8.342 0.218
25.3496 8.946 0.226
25.3653 9.516 0.233
25.3809 9.601 0.234
25.3965 11.618 0.257
25.4121 13.185 0.274
25.4277 14.513 0.288
25.4433 17.835 0.319
25.4589 21.180 0.347
25.4746 26.793 0.391
25.4902 34.246 0.442
25.5058 44.349 0.503
25.5214 55.950 0.565
25.5370 71.050 0.636
25.5526 86.150 0.701
25.5683 94.053 0.732
25.5839 88.560 0.710
25.5995 75.990 0.658
25.6151 65.568 0.611
25.6307 57.722 0.574
25.6463 48.537 0.526
25.6619 36.793 0.458
25.6776 26.878 0.391
25.6932 19.904 0.337
25.7088 17.174 0.313
25.7244 15.060 0.293
25.7400 13.431 0.277
25.7556 13.089 0.273
25.7713 12.114 0.263
25.7869 11.835 0.260
25.8025 10.889 0.249
25.8181 10.416 0.244
25.8337 10.165 0.241
25.8493 9.829 0.237
25.8649 10.171 0.241
25.8806 9.328 0.231
25.8962 9.499 0.233
25.9118 9.624 0.234
25.9274 9.789 0.236
25.9430 9.191 0.229
25.9586 9.493 0.233
25.9742 9.510 0.233
25.9899 9.584 0.234
26.0055 9.493 0.233
26.0211 9.573 0.234
26.0367 9.596 0.234
26.0523 9.487 0.233
26.0679 9.670 0.235
26.0836 10.245 0.242
26.0992 10.177 0.241
26.1148 9.869 0.237
26.1304 10.354 0.243
26.1460 11.071 0.251
26.1616 11.100 0.251
26.1772 11.419 0.255
26.1929 11.829 0.260
26.2085 12.354 0.265
26.2241 13.510 0.277
26.2397 14.063 0.283
26.2553 14.450 0.287
26.2709 16.000 0.302
26.2865 16.849 0.310
26.3022 17.938 0.320
26.3178 18.792 0.327
26.3334 20.912 0.345
26.3490 21.590 0.351
26.3646 23.146 0.363
26.3802 24.861 0.376
26.3959 26.018 0.385
26.4115 28.456 0.403
26.4271 31.619 0.424
26.4427 35.585 0.450
26.4583 40.160 0.478
26.4739 47.961 0.523
26.4895 59.272 0.581
26.5052 75.056 0.654
26.5208 98.179 0.748
26.5364 131.314 0.865
26.5520 178.272 1.008
26.5676 247.726 1.188
26.5832 348.048 1.408
26.5989 489.521 1.670
26.6145 656.112 1.934
26.6301 758.393 2.079
26.6457 714.352 2.018
26.6613 561.768 1.789
26.6769 453.230 1.607
26.6925 416.613 1.541
26.7082 357.672 1.428
26.7238 246.929 1.186
26.7394 140.903 0.896
26.7550 81.985 0.683
26.7706 55.186 0.561
26.7862 42.747 0.494
26.8018 36.599 0.457
26.8175 31.323 0.422
26.8331 27.095 0.393
26.8487 24.593 0.374
26.8643 21.664 0.351
26.8799 19.106 0.330
26.8955 17.379 0.315
26.9112 16.160 0.303
26.9268 14.616 0.289
26.9424 13.573 0.278
26.9580 12.188 0.264
26.9736 12.593 0.268
26.9892 11.260 0.253
27.0048 11.311 0.254
27.0205 11.026 0.251
27.0361 10.718 0.247
27.0517 10.336 0.243
27.0673 9.704 0.235
27.0829 9.858 0.237
27.0985 9.328 0.231
27.1141 8.923 0.225
27.1298 8.929 0.226
27.1454 8.467 0.220
27.1610 8.376 0.218
27.1766 8.633 0.222
27.1922 8.257 0.217
27.2078 7.972 0.213
27.2235 7.721 0.210
27.2391 7.630 0.209
27.2547 7.630 0.209
27.2703 7.698 0.209
27.2859 7.522 0.207
27.3015 7.311 0.204
27.3171 7.311 0.204
27.3328 7.368 0.205
27.3484 7.026 0.200
27.3640 6.992 0.200
27.3796 6.878 0.198
27.3952 6.274 0.189
27.4108 7.174 0.202
27.4265 6.929 0.199
27.4421 6.388 0.191
27.4577 6.325 0.190
27.4733 6.239 0.189
27.4889 6.507 0.193
27.5045 6.245 0.189
27.5201 6.046 0.186
27.5358 6.017 0.185
27.5514 6.143 0.187
27.5670 6.074 0.186
27.5826 5.767 0.181
27.5982 5.664 0.180
27.6138 5.994 0.185
27.6294 5.886 0.183
27.6451 5.356 0.175
27.6607 5.596 0.179
27.6763 6.160 0.187
27.6919 5.470 0.177
27.7075 5.653 0.179
27.7231 5.647 0.179
27.7388 5.784 0.182
27.7544 5.539 0.178
27.7700 5.493 0.177
27.7856 5.345 0.175
27.8012 5.784 0.182
27.8168 5.385 0.175
27.8324 5.305 0.174
27.8481 5.425 0.176
27.8637 5.698 0.180
27.8793 5.533 0.178
27.8949 5.339 0.174
27.9105 5.242 0.173
27.9261 5.225 0.173
27.9417 5.368 0.175
27.9574 5.516 0.177
27.9730 5.163 0.172
27.9886 5.071 0.170
28.0042 4.786 0.165
28.0198 5.242 0.173
28.0354 4.855 0.166
28.0511 5.123 0.171
28.0667 4.895 0.167
28.0823 4.940 0.168
28.0979 4.963 0.168
28.1135 5.117 0.171
28.1291 4.741 0.164
28.1447 4.786 0.165
28.1604 4.929 0.168
28.1760 4.712 0.164
28.1916 4.986 0.169
28.2072 4.684 0.163
28.2228 4.957 0.168
28.2384 4.883 0.167
28.2541 4.615 0.162
28.2697 4.980 0.168
28.2853 4.826 0.166
28.3009 4.672 0.163
28.3165 4.849 0.166
28.3321 4.547 0.161
28.3477 4.467 0.160
28.3634 4.707 0.164
28.3790 4.496 0.160
28.3946 4.638 0.163
28.4102 4.559 0.161
28.4258 4.547 0.161
28.4414 4.690 0.163
28.4570 4.450 0.159
28.4727 4.615 0.162
28.4883 4.564 0.161
28.5039 4.821 0.166
28.5195 4.274 0.156
28.5351 4.519 0.160
28.5507 4.342 0.157
28.5664 4.422 0.159
28.5820 4.405 0.158
28.5976 4.581 0.162
28.6132 4.057 0.152
28.6288 4.479 0.160
28.6444 4.678 0.163
28.6600 4.399 0.158
28.6757 4.353 0.157
28.6913 4.593 0.162
28.7069 4.359 0.158
28.7225 4.541 0.161
28.7381 4.570 0.161
28.7537 4.046 0.152
28.7694 4.405 0.158
28.7850 4.576 0.161
28.8006 4.336 0.157
28.8162 4.319 0.157
28.8318 4.200 0.155
28.8474 4.154 0.154
28.8630 4.068 0.152
28.8787 4.091 0.153
28.8943 4.257 0.156
28.9099 4.239 0.155
28.9255 4.370 0.158
28.9411 4.125 0.153
28.9567 4.348 0.157
28.9723 3.875 0.149
28.9880 4.496 0.160
29.0036 4.188 0.154
29.0192 4.222 0.155
29.0348 4.319 0.157
29.0504 4.610 0.162
29.0660 4.194 0.155
29.0817 4.296 0.156
29.0973 4.268 0.156
29.1129 4.399 0.158
29.1285 4.279 0.156
29.1441 4.177 0.154
29.1597 4.040 0.152
29.1753 4.114 0.153
29.1910 4.120 0.153
29.2066 4.359 0.158
29.2222 3.926 0.150
29.2378 4.359 0.158
29.2534 4.108 0.153
29.2690 3.960 0.150
29.2846 4.034 0.152
29.3003 4.086 0.153
29.3159 3.932 0.150
29.3315 4.154 0.154
29.3471 4.251 0.156
29.3627 4.296 0.156
29.3783 4.416 0.159
29.3940 4.148 0.154
29.4096 4.211 0.155
29.4252 4.200 0.155
29.4408 4.285 0.156
29.4564 4.023 0.151
29.4720 4.040 0.152
29.4876 3.977 0.151
29.5033 4.017 0.151
29.5189 3.937 0.150
29.5345 3.812 0.147
29.5501 3.943 0.150
29.5657 3.852 0.148
29.5813 3.932 0.150
29.5970 3.932 0.150
29.6126 3.698 0.145
29.6282 3.442 0.140
29.6438 4.006 0.151
29.6594 4.057 0.152
29.6750 3.698 0.145
29.6906 3.875 0.149
29.7063 3.755 0.146
29.7219 3.989 0.151
29.7375 3.789 0.147
29.7531 3.709 0.145
29.7687 3.692 0.145
29.7843 3.709 0.145
29.7999 3.550 0.142
29.8156 3.875 0.149
29.8312 3.960 0.150
29.8468 3.818 0.147
29.8624 3.886 0.149
29.8780 3.795 0.147
29.8936 3.715 0.145
29.9093 3.635 0.144
29.9249 3.647 0.144
29.9405 3.709 0.145
29.9561 3.214 0.135
29.9717 3.966 0.150
29.9873 3.493 0.141
30.0029 3.709 0.145
30.0186 3.653 0.144
30.0342 3.789 0.147
30.0498 3.772 0.147
30.0654 3.715 0.145
30.0810 3.664 0.144
30.0966 3.766 0.146
30.1122 3.635 0.144
30.1279 3.533 0.142
30.1435 3.704 0.145
30.1591 3.407 0.139
30.1747 3.368 0.139
30.1903 3.692 0.145
30.2059 3.698 0.145
30.2216 3.299 0.137
30.2372 3.709 0.145
30.2528 3.903 0.149
30.2684 3.647 0.144
30.2840 3.880 0.149
30.2996 3.618 0.144
30.3152 3.846 0.148
30.3309 3.601 0.143
30.3465 3.618 0.144
30.3621 3.624 0.144
30.3777 3.379 0.139
30.3933 3.664 0.144
30.4089 3.624 0.144
30.4246 3.539 0.142
30.4402 3.539 0.142
30.4558 3.464 0.141
30.4714 3.459 0.140
30.4870 3.470 0.141
30.5026 3.618 0.144
30.5182 3.715 0.145
30.5339 3.664 0.144
30.5495 3.419 0.140
30.5651 3.521 0.142
30.5807 3.447 0.140
30.5963 3.425 0.140
30.6119 3.527 0.142
30.6275 3.453 0.140
30.6432 3.487 0.141
30.6588 3.345 0.138
30.6744 3.516 0.142
30.6900 3.504 0.141
30.7056 3.516 0.142
30.7212 3.453 0.140
30.7369 3.294 0.137
30.7525 3.231 0.136
30.7681 3.351 0.138
30.7837 3.311 0.137
30.7993 3.390 0.139
30.8149 3.328 0.138
30.8305 3.613 0.143
30.8462 3.453 0.140
30.8618 3.487 0.141
30.8774 3.419 0.140
30.8930 3.459 0.140
30.9086 3.567 0.143
30.9242 3.294 0.137
30.9398 3.470 0.141
30.9555 3.419 0.140
30.9711 3.624 0.144
30.9867 3.527 0.142
31.0023 3.413 0.139
31.0179 3.242 0.136
31.0335 3.430 0.140
31.0492 3.396 0.139
31.0648 3.402 0.139
31.0804 3.510 0.141
31.0960 3.521 0.142
31.1116 3.305 0.137
31.1272 3.339 0.138
31.1428 3.385 0.139
31.1585 3.282 0.137
31.1741 3.322 0.138
31.1897 3.493 0.141
31.2053 3.333 0.138
31.2209 3.225 0.136
31.2365 3.282 0.137
31.2522 3.368 0.139
31.2678 3.328 0.138
31.2834 3.510 0.141
31.2990 3.413 0.139
31.3146 3.276 0.137
31.3302 3.362 0.138
31.3458 3.151 0.134
31.3615 3.191 0.135
31.3771 3.453 0.140
31.3927 3.168 0.134
31.4083 2.963 0.130
31.4239 3.225 0.136
31.4395 3.219 0.135
31.4551 3.271 0.137
31.4708 3.322 0.138
31.4864 3.140 0.134
31.5020 3.242 0.136
31.5176 3.248 0.136
31.5332 3.100 0.133
31.5488 3.487 0.141
31.5645 3.248 0.136
31.5801 3.225 0.136
31.5957 3.459 0.140
31.6113 3.368 0.139
31.6269 3.351 0.138
31.6425 3.390 0.139
31.6581 3.550 0.142
31.6738 3.362 0.138
31.6894 3.356 0.138
31.7050 3.436 0.140
31.7206 3.447 0.140
31.7362 3.191 0.135
31.7518 3.214 0.135
31.7674 3.299 0.137
31.7831 2.980 0.130
31.7987 3.316 0.137
31.8143 3.128 0.134
31.8299 3.054 0.132
31.8455 3.123 0.133
31.8611 2.923 0.129
31.8768 2.986 0.130
31.8924 2.974 0.130
31.9080 3.237 0.136
31.9236 3.219 0.135
31.9392 3.225 0.136
31.9548 3.094 0.133
31.9704 3.083 0.133
31.9861 3.351 0.138
32.0017 3.265 0.136
32.0173 3.174 0.134
32.0329 3.174 0.134
32.0485 3.043 0.132
32.0641 3.356 0.138
32.0798 3.003 0.131
32.0954 3.180 0.135
32.1110 3.351 0.138
32.1266 3.214 0.135
32.1422 3.128 0.134
32.1578 3.294 0.137
32.1734 3.248 0.136
32.1891 3.208 0.135
32.2047 3.180 0.135
32.2203 3.294 0.137
32.2359 3.214 0.135
32.2515 3.254 0.136
32.2671 3.527 0.142
32.2827 3.009 0.131
32.2984 3.003 0.131
32.3140 3.208 0.135
32.3296 3.162 0.134
32.3452 3.197 0.135
32.3608 3.100 0.133
32.3764 3.026 0.131
32.3921 3.185 0.135
32.4077 3.276 0.137
32.4233 3.105 0.133
32.4389 3.294 0.137
32.4545 2.912 0.129
32.4701 3.202 0.135
32.4857 3.185 0.135
32.5014 3.265 0.136
32.5170 3.168 0.134
32.5326 3.271 0.137
32.5482 3.271 0.137
32.5638 3.225 0.136
32.5794 3.345 0.138
32.5950 3.094 0.133
32.6107 3.049 0.132
32.6263 3.225 0.136
32.6419 3.134 0.134
32.6575 3.185 0.135
32.6731 3.026 0.131
32.6887 3.140 0.134
32.7044 2.980 0.130
32.7200 3.208 0.135
32.7356 3.191 0.135
32.7512 3.009 0.131
32.7668 3.066 0.132
32.7824 3.088 0.133
32.7980 3.003 0.131
32.8137 3.294 0.137
32.8293 3.100 0.133
32.8449 3.077 0.132
32.8605 3.214 0.135
32.8761 2.992 0.131
32.8917 2.997 0.131
32.9074 3.305 0.137
32.9230 3.014 0.131
32.9386 3.003 0.131
32.9542 3.128 0.134
32.9698 3.191 0.135
32.9854 3.026 0.131
33.0010 2.923 0.129
33.0167 3.145 0.134
33.0323 2.906 0.129
33.0479 3.145 0.134
33.0635 3.105 0.133
33.0791 3.003 0.131
33.0947 3.014 0.131
33.1103 3.248 0.136
33.1260 2.821 0.127
33.1416 2.929 0.129
33.1572 2.946 0.130
33.1728 3.117 0.133
33.1884 3.322 0.138
33.2040 3.117 0.133
33.2197 3.180 0.135
33.2353 3.151 0.134
33.2509 2.940 0.129
33.2665 2.997 0.131
33.2821 3.180 0.135
33.2977 3.071 0.132
33.3133 2.917 0.129
33.3290 3.168 0.134
33.3446 3.031 0.131
33.3602 3.071 0.132
33.3758 3.180 0.135
33.3914 3.185 0.135
33.4070 2.974 0.130
33.4227 3.003 0.131
33.4383 2.878 0.128
33.4539 3.214 0.135
33.4695 2.963 0.130
33.4851 2.986 0.130
33.5007 2.775 0.126
33.5163 2.980 0.130
33.5320 3.054 0.132
33.5476 2.963 0.130
33.5632 3.009 0.131
33.5788 3.066 0.132
33.5944 2.952 0.130
33.6100 2.997 0.131
33.6256 3.134 0.134
33.6413 3.043 0.132
33.6569 3.305 0.137
33.6725 3.162 0.134
33.6881 3.282 0.137
33.7037 3.014 0.131
33.7193 2.889 0.128
33.7350 3.043 0.132
33.7506 3.049 0.132
33.7662 2.878 0.128
33.7818 3.225 0.136
33.7974 3.077 0.132
33.8130 2.946 0.130
33.8286 2.963 0.130
33.8443 3.043 0.132
33.8599 3.288 0.137
33.8755 3.470 0.141
33.8911 2.957 0.130
33.9067 3.322 0.138
33.9223 3.282 0.137
33.9379 3.442 0.140
33.9536 3.305 0.137
33.9692 3.493 0.141
33.9848 3.402 0.139
34.0004 3.305 0.137
34.0160 3.641 0.144
34.0316 3.459 0.140
34.0473 3.356 0.138
34.0629 3.533 0.142
34.0785 3.311 0.137
34.0941 3.237 0.136
34.1097 3.464 0.141
34.1253 3.368 0.139
34.1409 3.613 0.143
34.1566 3.447 0.140
34.1722 3.322 0.138
34.1878 3.601 0.143
34.2034 3.453 0.140
34.2190 3.356 0.138
34.2346 3.265 0.136
34.2503 3.356 0.138
34.2659 3.333 0.138
34.2815 3.504 0.141
34.2971 3.721 0.146
34.3127 3.613 0.143
34.3283 3.841 0.148
34.3439 3.841 0.148
34.3596 3.487 0.141
34.3752 3.687 0.145
34.3908 3.624 0.144
34.4064 3.692 0.145
34.4220 3.966 0.150
34.4376 3.647 0.144
34.4532 3.590 0.143
34.4689 3.687 0.145
34.4845 3.898 0.149
34.5001 3.761 0.146
34.5157 3.715 0.145
34.5313 3.681 0.145
34.5469 4.097 0.153
34.5626 3.858 0.148
34.5782 3.858 0.148
34.5938 4.023 0.151
34.6094 4.200 0.155
34.6250 4.017 0.151
34.6406 4.376 0.158
34.6562 4.342 0.157
34.6719 4.587 0.162
34.6875 4.621 0.162
34.7031 4.741 0.164
34.7187 5.168 0.172
34.7343 4.764 0.165
34.7499 5.128 0.171
34.7655 5.476 0.177
34.7812 5.806 0.182
34.7968 5.892 0.183
34.8124 6.285 0.189
34.8280 6.667 0.195
34.8436 7.020 0.200
34.8592 7.482 0.206
34.8749 7.926 0.213
34.8905 8.519 0.220
34.9061 9.094 0.228
34.9217 10.257 0.242
34.9373 10.735 0.247
34.9529 11.864 0.260
34.9685 12.969 0.272
34.9842 14.923 0.292
34.9998 17.265 0.314
35.0154 20.770 0.344
35.0310 25.482 0.381
35.0466 32.730 0.432
35.0622 41.403 0.486
35.0779 55.363 0.562
35.0935 74.315 0.651
35.1091 93.227 0.729
35.1247 115.746 0.812
35.1403 126.738 0.850
35.1559 120.031 0.827
35.1715 99.165 0.752
35.1872 79.176 0.672
35.2028 75.398 0.655
35.2184 73.603 0.648
35.2340 70.577 0.634
35.2496 59.830 0.584
35.2652 43.739 0.499
35.2808 29.881 0.413
35.2965 21.744 0.352
35.3121 17.089 0.312
35.3277 14.120 0.284
35.3433 11.909 0.260
35.3589 10.627 0.246
35.3745 10.057 0.239
35.3902 8.428 0.219
35.4058 8.251 0.217
35.4214 7.522 0.207
35.4370 6.804 0.197
35.4526 6.707 0.195
35.4682 6.228 0.188
35.4838 5.898 0.183
35.4995 5.510 0.177
35.5151 5.601 0.179
35.5307 5.265 0.173
35.5463 4.872 0.167
35.5619 5.088 0.170
35.5775 4.536 0.161
35.5931 4.866 0.167
35.6088 4.399 0.158
35.6244 4.581 0.162
35.6400 4.359 0.158
35.6556 4.473 0.160
35.6712 4.257 0.156
35.6868 3.977 0.151
35.7025 4.262 0.156
35.7181 3.869 0.148
35.7337 3.972 0.150
35.7493 3.789 0.147
35.7649 3.898 0.149
35.7805 3.755 0.146
35.7961 3.852 0.148
35.8118 3.909 0.149
35.8274 3.744 0.146
35.8430 3.721 0.146
35.8586 3.487 0.141
35.8742 3.920 0.149
35.8898 3.761 0.146
35.9055 3.601 0.143
35.9211 3.544 0.142
35.9367 3.464 0.141
35.9523 3.709 0.145
35.9679 3.521 0.142
35.9835 3.601 0.143
35.9991 3.658 0.144
36.0148 3.390 0.139
36.0304 3.578 0.143
36.0460 3.641 0.144
36.0616 3.368 0.139
36.0772 3.618 0.144
36.0928 3.601 0.143
36.1084 3.932 0.150
36.1241 3.823 0.148
36.1397 3.698 0.145
36.1553 3.869 0.148
36.1709 3.892 0.149
36.1865 4.000 0.151
36.2021 4.410 0.159
36.2178 4.359 0.158
36.2334 4.439 0.159
36.2490 4.194 0.155
36.2646 4.285 0.156
36.2802 4.570 0.161
36.2958 4.832 0.166
36.3114 4.883 0.167
36.3271 4.815 0.166
36.3427 5.499 0.177
36.3583 5.499 0.177
36.3739 6.086 0.186
36.3895 6.559 0.193
36.4051 7.858 0.212
36.4207 8.143 0.215
36.4364 10.052 0.239
36.4520 13.596 0.278
36.4676 17.949 0.320
36.4832 23.374 0.365
36.4988 32.160 0.428
36.5144 41.665 0.487
36.5301 49.283 0.530
36.5457 47.887 0.522
36.5613 38.679 0.469
36.5769 29.727 0.412
36.5925 25.482 0.381
36.6081 25.949 0.385
36.6237 27.596 0.397
36.6394 26.422 0.388
36.6550 20.707 0.343
36.6706 13.505 0.277
36.6862 9.299 0.230
36.7018 7.282 0.204
36.7174 6.502 0.192
36.7331 5.436 0.176
36.7487 5.197 0.172
36.7643 4.809 0.166
36.7799 4.445 0.159
36.7955 4.621 0.162
36.8111 4.137 0.154
36.8267 4.274 0.156
36.8424 3.955 0.150
36.8580 3.715 0.145
36.8736 4.046 0.152
36.8892 3.732 0.146
36.9048 4.034 0.152
36.9204 3.977 0.151
36.9360 3.875 0.149
36.9517 3.385 0.139
36.9673 3.339 0.138
36.9829 3.955 0.150
36.9985 3.596 0.143
37.0141 3.784 0.147
37.0297 3.852 0.148
37.0454 3.596 0.143
37.0610 3.219 0.135
37.0766 3.516 0.142
37.0922 3.641 0.144
37.1078 3.459 0.140
37.1234 3.544 0.142
37.1390 3.653 0.144
37.1547 3.425 0.140
37.1703 3.379 0.139
37.1859 3.521 0.142
37.2015 3.550 0.142
37.2171 3.578 0.143
37.2327 3.692 0.145
37.2483 3.493 0.141
37.2640 3.573 0.143
37.2796 3.704 0.145
37.2952 3.624 0.144
37.3108 3.898 0.149
37.3264 3.937 0.150
37.3420 4.023 0.151
37.3577 3.909 0.149
37.3733 4.108 0.153
37.3889 3.818 0.147
37.4045 4.456 0.159
37.4201 4.388 0.158
37.4357 4.650 0.163
37.4513 4.775 0.165
37.4670 4.678 0.163
37.4826 4.986 0.169
37.4982 5.083 0.170
37.5138 5.613 0.179
37.5294 5.658 0.180
37.5450 6.120 0.187
37.5607 6.371 0.191
37.5763 6.735 0.196
37.5919 7.316 0.204
37.6075 8.314 0.218
37.6231 8.730 0.223
37.6387 9.664 0.235
37.6543 12.074 0.262
37.6700 14.678 0.289
37.6856 17.818 0.319
37.7012 23.357 0.365
37.7168 30.223 0.415
37.7324 38.388 0.468
37.7480 48.463 0.525
37.7636 53.619 0.553
37.7793 50.998 0.539
37.7949 41.893 0.489
37.8105 34.952 0.446
37.8261 30.992 0.420
37.8417 31.260 0.422
37.8573 31.670 0.425
37.8730 30.001 0.413
37.8886 23.630 0.367
37.9042 17.009 0.311
37.9198 12.650 0.268
37.9354 10.314 0.242
37.9510 8.410 0.219
37.9666 7.026 0.200
37.9823 6.775 0.196
37.9979 5.932 0.184
38.0135 5.294 0.174
38.0291 5.031 0.169
38.0447 5.020 0.169
38.0603 4.718 0.164
38.0759 4.370 0.158
38.0916 4.365 0.158
38.1072 4.325 0.157
38.1228 4.120 0.153
38.1384 3.994 0.151
38.1540 3.994 0.151
38.1696 3.966 0.150
38.1853 3.772 0.147
38.2009 3.675 0.145
38.2165 3.630 0.144
38.2321 3.858 0.148
38.2477 3.698 0.145
38.2633 3.539 0.142
38.2789 3.601 0.143
38.2946 3.362 0.138
38.3102 3.613 0.143
38.3258 3.499 0.141
38.3414 3.356 0.138
38.3570 3.407 0.139
38.3726 3.351 0.138
38.3883 3.442 0.140
38.4039 3.242 0.136
38.4195 2.986 0.130
38.4351 3.094 0.133
38.4507 2.969 0.130
38.4663 3.345 0.138
38.4819 3.259 0.136
38.4976 3.219 0.135
38.5132 3.419 0.140
38.5288 3.123 0.133
38.5444 3.225 0.136
38.5600 2.895 0.128
38.5756 3.105 0.133
38.5912 3.123 0.133
38.6069 3.003 0.131
38.6225 3.191 0.135
38.6381 3.191 0.135
38.6537 3.265 0.136
38.6693 3.168 0.134
38.6849 3.105 0.133
38.7006 3.225 0.136
38.7162 3.043 0.132
38.7318 3.026 0.131
38.7474 2.997 0.131
38.7630 3.003 0.131
38.7786 3.054 0.132
38.7942 3.049 0.132
38.8099 3.111 0.133
38.8255 3.299 0.137
38.8411 3.254 0.136
38.8567 3.516 0.142
38.8723 3.208 0.135
38.8879 3.248 0.136
38.9036 3.305 0.137
38.9192 3.214 0.135
38.9348 3.499 0.141
38.9504 3.145 0.134
38.9660 3.470 0.141
38.9816 3.185 0.135
38.9972 3.333 0.138
39.0129 3.436 0.140
39.0285 3.231 0.136
39.0441 3.476 0.141
39.0597 3.453 0.140
39.0753 3.487 0.141
39.0909 3.362 0.138
39.1065 3.590 0.143
39.1222 3.653 0.144
39.1378 3.749 0.146
39.1534 3.738 0.146
39.1690 3.772 0.147
39.1846 4.200 0.155
39.2002 4.029 0.152
39.2159 4.296 0.156
39.2315 4.405 0.158
39.2471 4.467 0.160
39.2627 4.946 0.168
39.2783 5.128 0.171
39.2939 5.328 0.174
39.3095 5.299 0.174
39.3252 6.057 0.186
39.3408 7.698 0.209
39.3564 8.485 0.220
39.3720 10.872 0.249
39.3876 14.228 0.285
39.4032 18.633 0.326
39.4188 25.089 0.378
39.4345 34.075 0.441
39.4501 41.311 0.485
39.4657 41.642 0.487
39.4813 35.101 0.447
39.4969 25.562 0.382
39.5125 20.297 0.340
39.5282 19.773 0.336
39.5438 21.835 0.353
39.5594 23.858 0.369
39.5750 21.385 0.349
39.5906 15.624 0.298
39.6062 9.761 0.236
39.6218 7.311 0.204
39.6375 5.795 0.182
39.6531 4.838 0.166
39.6687 4.849 0.166
39.6843 4.313 0.157
39.6999 4.262 0.156
39.7155 4.023 0.151
39.7312 3.778 0.147
39.7468 3.635 0.144
39.7624 3.362 0.138
39.7780 3.641 0.144
39.7936 3.727 0.146
39.8092 3.584 0.143
39.8248 3.487 0.141
39.8405 3.339 0.138
39.8561 3.271 0.137
39.8717 3.185 0.135
39.8873 3.259 0.136
39.9029 3.202 0.135
39.9185 3.054 0.132
39.9341 3.567 0.143
39.9498 3.613 0.143
39.9654 3.407 0.139
39.9810 3.464 0.141
39.9966 3.766 0.146
40.0122 3.647 0.144
40.0278 3.766 0.146
40.0435 3.687 0.145
40.0591 3.886 0.149
40.0747 3.704 0.145
40.0903 4.108 0.153
40.1059 4.165 0.154
40.1215 4.274 0.156
40.1371 4.661 0.163
40.1528 4.849 0.166
40.1684 5.482 0.177
40.1840 6.188 0.188
40.1996 7.624 0.208
40.2152 9.402 0.231
40.2308 12.678 0.269
40.2464 16.901 0.310
40.2621 22.046 0.354
40.2777 25.813 0.384
40.2933 24.536 0.374
40.3089 20.240 0.340
40.3245 14.525 0.288
40.3401 12.302 0.265
40.3558 12.468 0.267
40.3714 13.881 0.281
40.3870 13.892 0.281
40.4026 13.151 0.274
40.4182 9.995 0.239
40.4338 7.134 0.202
40.4494 4.917 0.167
40.4651 4.439 0.159
40.4807 4.011 0.151
40.4963 4.177 0.154
40.5119 3.869 0.148
40.5275 3.459 0.140
40.5431 3.322 0.138
40.5588 3.328 0.138
40.5744 3.009 0.131
40.5900 2.923 0.129
40.6056 3.162 0.134
40.6212 2.940 0.129
40.6368 2.986 0.130
40.6524 3.151 0.134
40.6681 3.083 0.133
40.6837 2.747 0.125
40.6993 2.912 0.129
40.7149 2.963 0.130
40.7305 3.100 0.133
40.7461 2.855 0.128
40.7617 3.214 0.135
40.7774 3.214 0.135
40.7930 3.271 0.137
40.8086 3.094 0.133
40.8242 2.912 0.129
40.8398 3.168 0.134
40.8554 2.878 0.128
40.8711 3.020 0.131
40.8867 2.929 0.129
40.9023 2.718 0.124
40.9179 3.014 0.131
40.9335 3.003 0.131
40.9491 2.741 0.125
40.9647 2.821 0.127
40.9804 2.701 0.124
40.9960 2.878 0.128
41.0116 2.621 0.122
41.0272 2.843 0.127
41.0428 2.906 0.129
41.0584 2.889 0.128
41.0740 2.974 0.130
41.0897 2.883 0.128
41.1053 2.940 0.129
41.1209 2.729 0.125
41.1365 2.872 0.128
41.1521 2.775 0.126
41.1677 3.049 0.132
41.1834 3.140 0.134
41.1990 2.849 0.127
41.2146 2.900 0.129
41.2302 2.792 0.126
41.2458 3.003 0.131
41.2614 2.980 0.130
41.2770 2.986 0.130
41.2927 2.735 0.125
41.3083 2.895 0.128
41.3239 2.923 0.129
41.3395 2.866 0.128
41.3551 3.117 0.133
41.3707 2.895 0.128
41.3864 2.878 0.128
41.4020 2.792 0.126
41.4176 2.769 0.126
41.4332 2.815 0.127
41.4488 2.781 0.126
41.4644 2.843 0.127
41.4800 3.219 0.135
41.4957 2.764 0.125
41.5113 2.974 0.130
41.5269 2.758 0.125
41.5425 2.878 0.128
41.5581 2.952 0.130
41.5737 3.071 0.132
41.5893 3.043 0.132
41.6050 3.521 0.142
41.6206 3.362 0.138
41.6362 3.470 0.141
41.6518 4.086 0.153
41.6674 3.795 0.147
41.6830 3.658 0.144
41.6987 3.630 0.144
41.7143 3.544 0.142
41.7299 3.237 0.136
41.7455 3.237 0.136
41.7611 3.413 0.139
41.7767 3.675 0.145
41.7923 3.852 0.148
41.8080 3.328 0.138
41.8236 3.464 0.141
41.8392 3.647 0.144
41.8548 3.590 0.143
41.8704 3.151 0.134
41.8860 3.151 0.134
41.9016 3.550 0.142
41.9173 3.345 0.138
41.9329 3.271 0.137
41.9485 3.396 0.139
41.9641 3.305 0.137
41.9797 3.407 0.139
41.9953 3.459 0.140
42.0110 3.578 0.143
42.0266 3.265 0.136
42.0422 3.516 0.142
42.0578 3.738 0.146
42.0734 3.749 0.146
42.0890 3.482 0.141
42.1046 3.647 0.144
42.1203 3.601 0.143
42.1359 3.664 0.144
42.1515 3.869 0.148
42.1671 3.932 0.150
42.1827 3.989 0.151
42.1983 4.433 0.159
42.2140 4.325 0.157
42.2296 4.484 0.160
42.2452 4.672 0.163
42.2608 4.861 0.166
42.2764 4.855 0.166
42.2920 5.299 0.174
42.3076 5.767 0.181
42.3233 6.325 0.190
42.3389 7.248 0.203
42.3545 9.453 0.232
42.3701 11.704 0.258
42.3857 15.938 0.301
42.4013 21.043 0.346
42.4169 26.815 0.391
42.4326 33.602 0.438
42.4482 35.277 0.448
42.4638 30.565 0.417
42.4794 22.462 0.358
42.4950 16.832 0.310
42.5106 15.966 0.302
42.5263 17.607 0.317
42.5419 19.448 0.333
42.5575 19.619 0.334
42.5731 17.681 0.317
42.5887 12.621 0.268
42.6043 9.140 0.228
42.6199 6.912 0.198
42.6356 5.784 0.182
42.6512 5.476 0.177
42.6668 5.202 0.172
42.6824 4.735 0.164
42.6980 4.729 0.164
42.7136 4.758 0.165
42.7292 4.325 0.157
42.7449 4.257 0.156
42.7605 4.872 0.167
42.7761 4.359 0.158
42.7917 4.410 0.159
42.8073 4.644 0.163
42.8229 4.729 0.164
42.8386 4.502 0.160
42.8542 4.735 0.164
42.8698 4.917 0.167
42.8854 4.878 0.167
42.9010 5.094 0.170
42.9166 5.180 0.172
42.9322 5.675 0.180
42.9479 5.624 0.179
42.9635 6.194 0.188
42.9791 6.450 0.192
42.9947 7.054 0.200
43.0103 7.031 0.200
43.0259 7.168 0.202
43.0416 7.915 0.212
43.0572 8.416 0.219
43.0728 9.020 0.227
43.0884 9.852 0.237
43.1040 10.633 0.246
43.1196 12.091 0.262
43.1352 12.160 0.263
43.1509 13.858 0.281
43.1665 14.445 0.287
43.1821 16.268 0.304
43.1977 18.052 0.321
43.2133 21.909 0.353
43.2289 26.035 0.385
43.2445 32.987 0.434
43.2602 40.434 0.480
43.2758 53.352 0.551
43.2914 70.400 0.633
43.3070 93.592 0.730
43.3226 115.250 0.810
43.3382 129.707 0.860
43.3539 125.883 0.847
43.3695 106.396 0.779
43.3851 82.743 0.687
43.4007 68.429 0.624
43.4163 66.429 0.615
43.4319 69.010 0.627
43.4475 72.514 0.643
43.4632 70.252 0.633
43.4788 59.517 0.582
43.4944 43.722 0.499
43.5100 31.363 0.423
43.5256 22.473 0.358
43.5412 17.659 0.317
43.5568 14.718 0.290
43.5725 12.724 0.269
43.5881 11.425 0.255
43.6037 10.422 0.244
43.6193 9.299 0.230
43.6349 8.428 0.219
43.6505 7.596 0.208
43.6662 7.191 0.202
43.6818 7.043 0.200
43.6974 6.439 0.192
43.7130 5.909 0.183
43.7286 5.738 0.181
43.7442 5.237 0.173
43.7598 5.356 0.175
43.7755 5.225 0.173
43.7911 5.163 0.172
43.8067 4.513 0.160
43.8223 4.490 0.160
43.8379 4.661 0.163
43.8535 4.388 0.158
43.8692 4.217 0.155
43.8848 3.943 0.150
43.9004 4.291 0.156
43.9160 4.143 0.154
43.9316 4.063 0.152
43.9472 3.618 0.144
43.9628 3.738 0.146
43.9785 3.618 0.144
43.9941 3.550 0.142
44.0097 3.470 0.141
44.0253 3.573 0.143
44.0409 3.464 0.141
44.0565 3.510 0.141
44.0721 3.459 0.140
44.0878 3.561 0.142
44.1034 3.299 0.137
44.1190 3.271 0.137
44.1346 3.151 0.134
44.1502 3.390 0.139
44.1658 3.254 0.136
44.1815 3.276 0.137
44.1971 3.288 0.137
44.2127 3.031 0.131
44.2283 3.111 0.133
44.2439 3.111 0.133
44.2595 3.168 0.134
44.2751 3.020 0.131
44.2908 3.214 0.135
44.3064 3.014 0.131
44.3220 2.935 0.129
44.3376 2.883 0.128
44.3532 2.860 0.128
44.3688 2.883 0.128
44.3845 3.026 0.131
44.4001 2.878 0.128
44.4157 2.883 0.128
44.4313 2.809 0.127
44.4469 2.900 0.129
44.4625 2.849 0.127
44.4781 2.832 0.127
44.4938 2.809 0.127
44.5094 2.655 0.123
44.5250 2.832 0.127
44.5406 2.707 0.124
44.5562 2.963 0.130
44.5718 2.849 0.127
44.5874 2.826 0.127
44.6031 2.912 0.129
44.6187 2.843 0.127
44.6343 2.906 0.129
44.6499 2.803 0.126
44.6655 2.610 0.122
44.6811 2.633 0.122
44.6968 2.678 0.124
44.7124 2.917 0.129
44.7280 2.581 0.121
44.7436 2.803 0.126
44.7592 2.809 0.127
44.7748 2.684 0.124
44.7904 2.747 0.125
44.8061 2.957 0.130
44.8217 2.764 0.125
44.8373 2.684 0.124
44.8529 2.724 0.125
44.8685 2.633 0.122
44.8841 2.866 0.128
44.8997 2.690 0.124
44.9154 2.798 0.126
44.9310 2.809 0.127
44.9466 2.633 0.122
44.9622 2.701 0.124
44.9778 2.769 0.126
44.9934 2.792 0.126
45.0091 2.872 0.128
45.0247 2.741 0.125
45.0403 2.798 0.126
45.0559 2.781 0.126
45.0715 2.838 0.127
45.0871 2.712 0.124
45.1027 2.564 0.121
45.1184 2.741 0.125
45.1340 2.718 0.124
45.1496 2.826 0.127
45.1652 2.712 0.124
45.1808 2.843 0.127
45.1964 2.775 0.126
45.2121 2.781 0.126
45.2277 2.524 0.120
45.2433 2.690 0.124
45.2589 2.501 0.119
45.2745 2.564 0.121
45.2901 2.729 0.125
45.3057 2.729 0.125
45.3214 2.598 0.122
45.3370 2.752 0.125
45.3526 2.610 0.122
45.3682 2.815 0.127
45.3838 2.764 0.125
45.3994 2.900 0.129
45.4150 2.690 0.124
45.4307 3.014 0.131
45.4463 2.866 0.128
45.4619 2.855 0.128
45.4775 2.997 0.131
45.4931 3.054 0.132
45.5087 3.111 0.133
45.5244 3.157 0.134
45.5400 3.345 0.138
45.5556 3.442 0.140
45.5712 3.499 0.141
45.5868 3.464 0.141
45.6024 3.521 0.142
45.6180 3.727 0.146
45.6337 3.903 0.149
45.6493 4.251 0.156
45.6649 4.581 0.162
45.6805 5.305 0.174
45.6961 6.080 0.186
45.7117 7.527 0.207
45.7273 10.291 0.242
45.7430 13.829 0.281
45.7586 17.664 0.317
45.7742 22.644 0.359
45.7898 24.018 0.370
45.8054 21.032 0.346
45.8210 14.958 0.292
45.8367 11.060 0.251
45.8523 9.579 0.234
45.8679 9.721 0.235
45.8835 12.234 0.264
45.8991 13.391 0.276
45.9147 12.838 0.270
45.9303 10.769 0.248
45.9460 7.881 0.212
45.9616 5.823 0.182
45.9772 4.274 0.156
45.9928 3.658 0.144
46.0084 3.476 0.141
46.0240 3.510 0.141
46.0397 3.237 0.136
46.0553 3.305 0.137
46.0709 3.333 0.138
46.0865 3.430 0.140
46.1021 3.578 0.143
46.1177 3.692 0.145
46.1333 3.903 0.149
46.1490 3.977 0.151
46.1646 4.308 0.157
46.1802 3.983 0.151
46.1958 4.023 0.151
46.2114 3.601 0.143
46.2270 3.499 0.141
46.2426 3.430 0.140
46.2583 3.020 0.131
46.2739 3.157 0.134
46.2895 3.419 0.140
46.3051 3.043 0.132
46.3207 3.071 0.132
46.3363 2.860 0.128
46.3520 2.889 0.128
46.3676 2.872 0.128
46.3832 2.501 0.119
46.3988 2.593 0.122
46.4144 2.621 0.122
46.4300 2.399 0.117
46.4456 2.393 0.117
46.4613 2.604 0.122
46.4769 2.342 0.116
46.4925 2.479 0.119
46.5081 2.570 0.121
46.5237 2.593 0.122
46.5393 2.484 0.119
46.5549 2.410 0.117
46.5706 2.519 0.120
46.5862 2.450 0.118
46.6018 2.536 0.120
46.6174 2.610 0.122
46.6330 2.382 0.116
46.6486 2.279 0.114
46.6643 2.348 0.116
46.6799 2.308 0.115
46.6955 2.296 0.114
46.7111 2.536 0.120
46.7267 2.405 0.117
46.7423 2.576 0.121
46.7579 2.353 0.116
46.7736 2.296 0.114
46.7892 2.211 0.112
46.8048 2.262 0.114
46.8204 2.285 0.114
46.8360 2.370 0.116
46.8516 2.365 0.116
46.8673 2.319 0.115
46.8829 1.989 0.106
46.8985 2.445 0.118
46.9141 2.251 0.113
46.9297 2.177 0.111
46.9453 2.291 0.114
46.9609 2.274 0.114
46.9766 2.211 0.112
46.9922 2.279 0.114
47.0078 2.285 0.114
47.0234 2.256 0.113
47.0390 2.501 0.119
47.0546 2.302 0.115
47.0702 2.496 0.119
47.0859 2.302 0.115
47.1015 2.279 0.114
47.1171 2.342 0.116
47.1327 2.473 0.119
47.1483 2.331 0.115
47.1639 2.581 0.121
47.1796 2.650 0.123
47.1952 2.319 0.115
47.2108 2.473 0.119
47.2264 2.370 0.116
47.2420 2.348 0.116
47.2576 2.422 0.117
47.2732 2.325 0.115
47.2889 2.359 0.116
47.3045 2.365 0.116
47.3201 2.125 0.110
47.3357 2.296 0.114
47.3513 2.103 0.109
47.3669 2.120 0.110
47.3825 2.399 0.117
47.3982 2.308 0.115
47.4138 2.205 0.112
47.4294 2.262 0.114
47.4450 2.479 0.119
47.4606 2.205 0.112
47.4762 2.342 0.116
47.4919 2.148 0.111
47.5075 2.388 0.117
47.5231 2.205 0.112
47.5387 2.427 0.118
47.5543 2.029 0.108
47.5699 2.068 0.109
47.5855 2.325 0.115
47.6012 2.154 0.111
47.6168 2.473 0.119
47.6324 2.234 0.113
47.6480 2.114 0.110
47.6636 2.108 0.110
47.6792 2.308 0.115
47.6949 2.057 0.108
47.7105 2.086 0.109
47.7261 2.222 0.113
47.7417 2.125 0.110
47.7573 2.063 0.108
47.7729 2.108 0.110
47.7885 2.319 0.115
47.8042 2.131 0.110
47.8198 2.268 0.114
47.8354 2.302 0.115
47.8510 2.120 0.110
47.8666 2.137 0.110
47.8822 2.074 0.109
47.8978 2.536 0.120
47.9135 2.274 0.114
47.9291 2.479 0.119
47.9447 2.148 0.111
47.9603 2.029 0.108
47.9759 2.399 0.117
47.9915 2.473 0.119
48.0072 2.023 0.107
48.0228 2.331 0.115
48.0384 2.097 0.109
48.0540 2.029 0.108
48.0696 2.251 0.113
48.0852 2.308 0.115
48.1008 2.388 0.117
48.1165 2.108 0.110
48.1321 2.342 0.116
48.1477 2.308 0.115
48.1633 2.103 0.109
48.1789 2.388 0.117
48.1945 2.029 0.108
48.2101 2.217 0.112
48.2258 2.319 0.115
48.2414 2.211 0.112
48.2570 2.370 0.116
48.2726 2.160 0.111
48.2882 2.154 0.111
48.3038 2.422 0.117
48.3195 2.245 0.113
48.3351 2.217 0.112
48.3507 2.336 0.115
48.3663 2.427 0.118
48.3819 2.308 0.115
48.3975 2.473 0.119
48.4131 2.393 0.117
48.4288 2.416 0.117
48.4444 2.302 0.115
48.4600 2.103 0.109
48.4756 2.313 0.115
48.4912 2.319 0.115
48.5068 2.211 0.112
48.5225 2.331 0.115
48.5381 2.256 0.113
48.5537 2.171 0.111
48.5693 2.473 0.119
48.5849 2.519 0.120
48.6005 2.177 0.111
48.6161 2.239 0.113
48.6318 2.296 0.114
48.6474 2.501 0.119
48.6630 2.154 0.111
48.6786 2.296 0.114
48.6942 2.222 0.113
48.7098 2.308 0.115
48.7254 2.359 0.116
48.7411 2.251 0.113
48.7567 2.256 0.113
48.7723 2.490 0.119
48.7879 2.376 0.116
48.8035 2.496 0.119
48.8191 2.376 0.116
48.8348 2.450 0.118
48.8504 2.142 0.110
48.8660 2.017 0.107
48.8816 2.433 0.118
48.8972 2.405 0.117
48.9128 2.302 0.115
48.9284 2.291 0.114
48.9441 2.217 0.112
48.9597 2.427 0.118
48.9753 2.524 0.120
48.9909 2.148 0.111
49.0065 2.422 0.117
49.0221 2.558 0.121
49.0378 2.519 0.120
49.0534 2.239 0.113
49.0690 2.473 0.119
49.0846 2.439 0.118
49.1002 2.405 0.117
49.1158 2.171 0.111
49.1314 2.462 0.118
49.1471 2.342 0.116
49.1627 2.222 0.113
49.1783 2.490 0.119
49.1939 2.479 0.119
49.2095 2.382 0.116
49.2251 2.427 0.118
49.2407 2.678 0.124
49.2564 2.456 0.118
49.2720 2.331 0.115
49.2876 2.581 0.121
49.3032 2.376 0.116
49.3188 2.365 0.116
49.3344 2.564 0.121
49.3501 2.422 0.117
49.3657 2.553 0.121
49.3813 2.627 0.122
49.3969 2.690 0.124
49.4125 2.445 0.118
49.4281 2.524 0.120
49.4437 2.570 0.121
49.4594 2.610 0.122
49.4750 2.707 0.124
49.4906 2.553 0.121
49.5062 2.655 0.123
49.5218 2.650 0.123
49.5374 2.729 0.125
49.5530 2.376 0.116
49.5687 2.587 0.121
49.5843 2.815 0.127
49.5999 2.906 0.129
49.6155 2.695 0.124
49.6311 2.587 0.121
49.6467 2.923 0.129
49.6624 3.054 0.132
49.6780 2.809 0.127
49.6936 3.071 0.132
49.7092 3.026 0.131
49.7248 3.282 0.137
49.7404 3.248 0.136
49.7560 3.482 0.141
49.7717 3.527 0.142
49.7873 3.801 0.147
49.8029 3.949 0.150
49.8185 4.331 0.157
49.8341 4.034 0.152
49.8497 4.729 0.164
49.8654 4.690 0.163
49.8810 5.379 0.175
49.8966 5.219 0.172
49.9122 6.154 0.187
49.9278 5.863 0.183
49.9434 6.228 0.188
49.9590 6.690 0.195
49.9747 7.334 0.204
49.9903 8.695 0.223
50.0059 9.590 0.234
50.0215 12.086 0.262
50.0371 15.362 0.296
50.0527 20.399 0.341
50.0683 27.220 0.394
50.0840 38.405 0.468
50.0996 52.634 0.548
50.1152 69.819 0.631
50.1308 83.455 0.690
50.1464 80.691 0.678
50.1620 62.172 0.595
50.1777 41.933 0.489
50.1933 29.984 0.413
50.2089 25.966 0.385
50.2245 29.551 0.410
50.2401 33.841 0.439
50.2557 41.990 0.489
50.2713 44.981 0.506
50.2870 37.870 0.465
50.3026 27.055 0.393
50.3182 16.747 0.309
50.3338 11.032 0.251
50.3494 8.747 0.223
50.3650 6.718 0.196
50.3806 5.767 0.181
50.3963 5.145 0.171
50.4119 4.701 0.164
50.4275 4.729 0.164
50.4431 4.393 0.158
50.4587 4.268 0.156
50.4743 3.846 0.148
50.4900 3.823 0.148
50.5056 3.886 0.149
50.5212 3.789 0.147
50.5368 3.886 0.149
50.5524 3.744 0.146
50.5680 3.949 0.150
50.5836 4.091 0.153
50.5993 4.399 0.158
50.6149 4.741 0.164
50.6305 4.114 0.153
50.6461 3.977 0.151
50.6617 3.556 0.142
50.6773 3.516 0.142
50.6930 3.242 0.136
50.7086 3.174 0.134
50.7242 3.464 0.141
50.7398 3.453 0.140
50.7554 3.356 0.138
50.7710 3.379 0.139
50.7866 3.105 0.133
50.8023 3.088 0.133
50.8179 3.060 0.132
50.8335 2.729 0.125
50.8491 2.906 0.129
50.8647 2.935 0.129
50.8803 2.467 0.119
50.8959 2.661 0.123
50.9116 2.764 0.125
50.9272 2.655 0.123
50.9428 2.564 0.121
50.9584 2.684 0.124
50.9740 2.570 0.121
50.9896 2.678 0.124
51.0053 2.593 0.122
51.0209 2.940 0.129
51.0365 2.644 0.123
51.0521 2.758 0.125
51.0677 2.735 0.125
51.0833 2.695 0.124
51.0989 2.490 0.119
51.1146 2.553 0.121
51.1302 2.473 0.119
51.1458 2.815 0.127
51.1614 2.615 0.122
51.1770 2.724 0.125
51.1926 2.501 0.119
51.2082 2.576 0.121
51.2239 2.621 0.122
51.2395 2.661 0.123
51.2551 2.564 0.121
51.2707 2.661 0.123
51.2863 2.667 0.123
51.3019 2.462 0.118
51.3176 2.336 0.115
51.3332 2.553 0.121
51.3488 2.342 0.116
51.3644 2.524 0.120
51.3800 2.570 0.121
51.3956 2.633 0.122
51.4112 2.456 0.118
51.4269 2.604 0.122
51.4425 2.445 0.118
51.4581 2.735 0.125
51.4737 2.712 0.124
51.4893 2.541 0.120
51.5049 2.581 0.121
51.5206 2.581 0.121
51.5362 2.781 0.126
51.5518 2.707 0.124
51.5674 2.501 0.119
51.5830 2.445 0.118
51.5986 2.593 0.122
51.6142 2.536 0.120
51.6299 2.581 0.121
51.6455 2.553 0.121
51.6611 2.598 0.122
51.6767 2.445 0.118
51.6923 2.803 0.126
51.7079 2.718 0.124
51.7235 2.496 0.119
51.7392 2.752 0.125
51.7548 2.718 0.124
51.7704 2.445 0.118
51.7860 2.712 0.124
51.8016 2.672 0.123
51.8172 2.758 0.125
51.8329 2.633 0.122
51.8485 2.667 0.123
51.8641 2.997 0.131
51.8797 2.729 0.125
51.8953 2.684 0.124
51.9109 2.581 0.121
51.9265 2.974 0.130
51.9422 2.803 0.126
51.9578 2.712 0.124
51.9734 2.758 0.125
51.9890 2.917 0.129
52.0046 2.900 0.129
52.0202 3.094 0.133
52.0358 3.202 0.135
52.0515 2.906 0.129
52.0671 3.271 0.137
52.0827 3.259 0.136
52.0983 3.020 0.131
52.1139 3.345 0.138
52.1295 3.328 0.138
52.1452 3.675 0.145
52.1608 3.909 0.149
52.1764 4.034 0.152
52.1920 3.983 0.151
52.2076 4.200 0.155
52.2232 4.467 0.160
52.2388 4.695 0.164
52.2545 4.883 0.167
52.2701 5.316 0.174
52.2857 5.544 0.178
52.3013 5.955 0.184
52.3169 6.251 0.189
52.3325 6.376 0.191
52.3482 6.923 0.199
52.3638 7.909 0.212
52.3794 8.513 0.220
52.3950 9.191 0.229
52.4106 10.912 0.249
52.4262 12.718 0.269
52.4418 15.191 0.294
52.4575 19.282 0.331
52.4731 24.485 0.374
52.4887 31.026 0.420
52.5043 38.702 0.470
52.5199 48.292 0.525
52.5355 53.802 0.554
52.5511 54.121 0.555
52.5668 46.292 0.514
52.5824 37.528 0.462
52.5980 29.533 0.410
52.6136 25.932 0.384
52.6292 25.904 0.384
52.6448 26.946 0.392
52.6605 29.471 0.410
52.6761 30.781 0.419
52.6917 29.744 0.412
52.7073 26.285 0.387
52.7229 19.550 0.334
52.7385 15.208 0.294
52.7541 11.687 0.258
52.7698 9.385 0.231
52.7854 7.972 0.213
52.8010 7.157 0.202
52.8166 6.234 0.188
52.8322 5.311 0.174
52.8478 5.510 0.177
52.8634 5.026 0.169
52.8791 4.621 0.162
52.8947 4.211 0.155
52.9103 4.325 0.157
52.9259 4.251 0.156
52.9415 3.915 0.149
52.9571 3.675 0.145
52.9728 3.624 0.144
52.9884 3.738 0.146
53.0040 3.305 0.137
53.0196 3.442 0.140
53.0352 3.180 0.135
53.0508 3.362 0.138
53.0664 2.792 0.126
53.0821 3.117 0.133
53.0977 3.145 0.134
53.1133 2.798 0.126
53.1289 2.792 0.126
53.1445 2.747 0.125
53.1601 2.855 0.128
53.1758 2.872 0.128
53.1914 2.741 0.125
53.2070 2.724 0.125
53.2226 2.729 0.125
53.2382 2.826 0.127
53.2538 2.769 0.126
53.2694 2.427 0.118
53.2851 2.576 0.121
53.3007 2.627 0.122
53.3163 2.467 0.119
53.3319 2.405 0.117
53.3475 2.775 0.126
53.3631 2.610 0.122
53.3787 2.467 0.119
53.3944 2.467 0.119
53.4100 2.433 0.118
53.4256 2.547 0.120
53.4412 2.536 0.120
53.4568 2.353 0.116
53.4724 2.382 0.116
53.4881 2.274 0.114
53.5037 2.450 0.118
53.5193 2.445 0.118
53.5349 2.564 0.121
53.5505 2.393 0.117
53.5661 2.359 0.116
53.5817 2.399 0.117
53.5974 2.456 0.118
53.6130 2.484 0.119
53.6286 2.405 0.117
53.6442 2.450 0.118
53.6598 2.376 0.116
53.6754 2.365 0.116
53.6910 2.142 0.110
53.7067 2.422 0.117
53.7223 2.291 0.114
53.7379 2.245 0.113
53.7535 2.359 0.116
53.7691 2.388 0.117
53.7847 2.331 0.115
53.8004 2.353 0.116
53.8160 2.353 0.116
53.8316 2.051 0.108
53.8472 2.490 0.119
53.8628 2.393 0.117
53.8784 2.598 0.122
53.8940 2.388 0.117
53.9097 2.302 0.115
53.9253 2.274 0.114
53.9409 2.296 0.114
53.9565 2.194 0.112
53.9721 2.063 0.108
53.9877 2.234 0.113
54.0034 2.274 0.114
54.0190 2.376 0.116
54.0346 2.291 0.114
54.0502 2.268 0.114
54.0658 2.285 0.114
54.0814 2.285 0.114
54.0970 2.171 0.111
54.1127 2.228 0.113
54.1283 2.325 0.115
54.1439 2.262 0.114
54.1595 2.097 0.109
54.1751 2.376 0.116
54.1907 2.490 0.119
54.2063 2.325 0.115
54.2220 2.484 0.119
54.2376 2.285 0.114
54.2532 2.456 0.118
54.2688 2.251 0.113
54.2844 2.245 0.113
54.3000 2.029 0.108
54.3157 2.205 0.112
54.3313 2.256 0.113
54.3469 2.239 0.113
54.3625 2.148 0.111
54.3781 2.211 0.112
54.3937 2.234 0.113
54.4093 2.308 0.115
54.4250 2.365 0.116
54.4406 2.399 0.117
54.4562 2.558 0.121
54.4718 2.342 0.116
54.4874 2.376 0.116
54.5030 2.672 0.123
54.5187 2.576 0.121
54.5343 2.855 0.128
54.5499 2.764 0.125
54.5655 2.815 0.127
54.5811 2.872 0.128
54.5967 2.929 0.129
54.6123 2.849 0.127
54.6280 2.963 0.130
54.6436 3.088 0.133
54.6592 3.390 0.139
54.6748 3.299 0.137
54.6904 3.202 0.135
54.7060 3.573 0.143
54.7216 4.023 0.151
54.7373 4.712 0.164
54.7529 5.037 0.169
54.7685 6.160 0.187
54.7841 7.373 0.205
54.7997 9.858 0.237
54.8153 12.581 0.268
54.8310 15.328 0.296
54.8466 20.622 0.343
54.8622 23.083 0.363
54.8778 23.556 0.366
54.8934 19.345 0.332
54.9090 13.271 0.275
54.9246 9.960 0.238
54.9403 8.439 0.219
54.9559 8.376 0.218
54.9715 9.727 0.235
54.9871 11.373 0.255
55.0027 12.798 0.270
55.0183 14.240 0.285
55.0339 12.342 0.265
55.0496 10.029 0.239
55.0652 7.128 0.202
55.0808 5.111 0.171
55.0964 4.257 0.156
55.1120 3.863 0.148
55.1276 3.482 0.141
55.1433 3.419 0.140
55.1589 3.197 0.135
55.1745 3.419 0.140
55.1901 3.504 0.141
55.2057 3.533 0.142
55.2213 4.046 0.152
55.2369 4.650 0.163
55.2526 5.288 0.174
55.2682 6.336 0.190
55.2838 7.453 0.206
55.2994 9.499 0.233
55.3150 10.787 0.248
55.3306 10.433 0.244
55.3463 8.787 0.224
55.3619 6.616 0.194
55.3775 5.271 0.173
55.3931 4.741 0.164
55.4087 4.638 0.163
55.4243 5.345 0.175
55.4399 5.596 0.179
55.4556 6.462 0.192
55.4712 7.157 0.202
55.4868 6.564 0.193
55.5024 5.328 0.174
55.5180 3.994 0.151
55.5336 3.596 0.143
55.5492 3.111 0.133
55.5649 3.157 0.134
55.5805 2.769 0.126
55.5961 2.712 0.124
55.6117 2.860 0.128
55.6273 2.855 0.128
55.6429 2.957 0.130
55.6586 2.883 0.128
55.6742 2.633 0.122
55.6898 2.615 0.122
55.7054 2.507 0.120
55.7210 2.496 0.119
55.7366 2.462 0.118
55.7522 2.496 0.119
55.7679 2.296 0.114
55.7835 2.615 0.122
55.7991 2.655 0.123
55.8147 2.712 0.124
55.8303 2.370 0.116
55.8459 2.376 0.116
55.8615 2.274 0.114
55.8772 2.376 0.116
55.8928 2.809 0.127
55.9084 2.690 0.124
55.9240 2.342 0.116
55.9396 2.405 0.117
55.9552 2.479 0.119
55.9709 2.228 0.113
55.9865 2.553 0.121
56.0021 2.211 0.112
56.0177 2.456 0.118
56.0333 2.217 0.112
56.0489 2.558 0.121
56.0645 2.313 0.115
56.0802 2.359 0.116
56.0958 2.496 0.119
56.1114 2.370 0.116
56.1270 2.530 0.120
56.1426 2.234 0.113
56.1582 2.524 0.120
56.1739 2.256 0.113
56.1895 2.456 0.118
56.2051 2.644 0.123
56.2207 2.587 0.121
56.2363 2.541 0.120
56.2519 2.342 0.116
56.2675 2.576 0.121
56.2832 2.536 0.120
56.2988 2.501 0.119
56.3144 2.325 0.115
56.3300 2.541 0.120
56.3456 2.655 0.123
56.3612 2.541 0.120
56.3768 2.467 0.119
56.3925 2.484 0.119
56.4081 2.558 0.121
56.4237 2.593 0.122
56.4393 2.450 0.118
56.4549 2.667 0.123
56.4705 2.809 0.127
56.4862 2.615 0.122
56.5018 2.576 0.121
56.5174 2.741 0.125
56.5330 2.638 0.123
56.5486 2.860 0.128
56.5642 2.661 0.123
56.5798 2.479 0.119
56.5955 2.900 0.129
56.6111 2.838 0.127
56.6267 2.684 0.124
56.6423 2.826 0.127
56.6579 2.678 0.124
56.6735 2.860 0.128
56.6891 2.855 0.128
56.7048 2.860 0.128
56.7204 2.940 0.129
56.7360 3.020 0.131
56.7516 2.946 0.130
56.7672 2.815 0.127
56.7828 3.123 0.133
56.7985 3.020 0.131
56.8141 3.100 0.133
56.8297 2.969 0.130
56.8453 3.168 0.134
56.8609 3.248 0.136
56.8765 3.276 0.137
56.8921 3.550 0.142
56.9078 3.265 0.136
56.9234 3.482 0.141
56.9390 3.573 0.143
56.9546 3.709 0.145
56.9702 3.635 0.144
56.9858 3.829 0.148
57.0015 3.749 0.146
57.0171 3.983 0.151
57.0327 4.336 0.157
57.0483 4.581 0.162
57.0639 4.775 0.165
57.0795 5.060 0.170
57.0951 5.789 0.182
57.1108 5.573 0.178
57.1264 5.977 0.185
57.1420 6.712 0.196
57.1576 7.157 0.202
57.1732 7.732 0.210
57.1888 8.382 0.219
57.2044 9.351 0.231
57.2201 9.898 0.237
57.2357 10.393 0.243
57.2513 11.100 0.251
57.2669 11.242 0.253
57.2825 11.168 0.252
57.2981 12.656 0.269
57.3138 13.784 0.280
57.3294 15.374 0.296
57.3450 17.716 0.318
57.3606 21.117 0.347
57.3762 24.280 0.372
57.3918 29.887 0.413
57.4074 36.394 0.455
57.4231 46.884 0.517
57.4387 59.107 0.580
57.4543 75.307 0.655
57.4699 92.749 0.727
57.4855 104.903 0.773
57.5011 104.954 0.773
57.5167 91.922 0.724
57.5324 71.899 0.640
57.5480 55.494 0.562
57.5636 45.653 0.510
57.5792 43.539 0.498
57.5948 42.799 0.494
57.6104 48.890 0.528
57.6261 54.674 0.558
57.6417 58.782 0.579
57.6573 56.879 0.569
57.6729 48.588 0.526
57.6885 38.303 0.467
57.7041 27.499 0.396
57.7197 20.855 0.345
57.7354 16.428 0.306
57.7510 14.057 0.283
57.7666 11.772 0.259
57.7822 10.547 0.245
57.7978 9.681 0.235
57.8134 8.610 0.221
57.8291 7.898 0.212
57.8447 7.026 0.200
57.8603 7.060 0.201
57.8759 6.610 0.194
57.8915 5.949 0.184
57.9071 5.590 0.178
57.9227 5.225 0.173
57.9384 5.259 0.173
57.9540 4.809 0.166
57.9696 4.496 0.160
57.9852 4.638 0.163
58.0008 4.205 0.155
58.0164 4.148 0.154
58.0320 4.040 0.152
58.0477 4.023 0.151
58.0633 3.943 0.150
58.0789 3.818 0.147
58.0945 3.635 0.144
58.1101 3.715 0.145
58.1257 3.823 0.148
58.1414 3.578 0.143
58.1570 3.351 0.138
58.1726 3.282 0.137
58.1882 3.185 0.135
58.2038 3.282 0.137
58.2194 3.299 0.137
58.2350 3.191 0.135
58.2507 3.043 0.132
58.2663 3.157 0.134
58.2819 2.957 0.130
58.2975 2.815 0.127
58.3131 2.963 0.130
58.3287 2.786 0.126
58.3443 2.843 0.127
58.3600 2.952 0.130
58.3756 2.610 0.122
58.3912 2.604 0.122
58.4068 2.627 0.122
58.4224 2.707 0.124
58.4380 2.627 0.122
58.4537 2.832 0.127
58.4693 2.570 0.121
58.4849 2.724 0.125
58.5005 2.513 0.120
58.5161 2.752 0.125
58.5317 2.547 0.120
58.5473 2.729 0.125
58.5630 2.553 0.121
58.5786 2.690 0.124
58.5942 2.598 0.122
58.6098 2.667 0.123
58.6254 2.405 0.117
58.6410 2.507 0.120
58.6567 2.484 0.119
58.6723 2.416 0.117
58.6879 2.302 0.115
58.7035 2.388 0.117
58.7191 2.604 0.122
58.7347 2.558 0.121
58.7503 2.462 0.118
58.7660 2.473 0.119
58.7816 2.439 0.118
58.7972 2.291 0.114
58.8128 2.524 0.120
58.8284 2.661 0.123
58.8440 2.450 0.118
58.8596 2.501 0.119
58.8753 2.359 0.116
58.8909 2.342 0.116
58.9065 2.576 0.121
58.9221 2.239 0.113
58.9377 2.439 0.118
58.9533 2.353 0.116
58.9690 2.496 0.119
58.9846 2.530 0.120
59.0002 2.376 0.116
59.0158 2.331 0.115
59.0314 2.507 0.120
59.0470 2.365 0.116
59.0626 2.638 0.123
59.0783 2.439 0.118
59.0939 2.353 0.116
59.1095 2.405 0.117
59.1251 2.319 0.115
59.1407 2.376 0.116
59.1563 2.558 0.121
59.1720 2.393 0.117
59.1876 2.399 0.117
59.2032 2.256 0.113
59.2188 2.376 0.116
59.2344 2.439 0.118
59.2500 2.462 0.118
59.2656 2.439 0.118
59.2813 2.564 0.121
59.2969 2.558 0.121
59.3125 2.541 0.120
59.3281 2.849 0.127
59.3437 2.667 0.123
59.3593 2.695 0.124
59.3749 2.690 0.124
59.3906 2.655 0.123
59.4062 2.952 0.130
59.4218 2.792 0.126
59.4374 2.701 0.124
59.4530 2.758 0.125
59.4686 2.952 0.130
59.4843 3.043 0.132
59.4999 3.174 0.134
59.5155 3.020 0.131
59.5311 3.180 0.135
59.5467 3.168 0.134
59.5623 3.436 0.140
59.5779 3.544 0.142
59.5936 3.624 0.144
59.6092 3.869 0.148
59.6248 4.262 0.156
59.6404 4.342 0.157
59.6560 4.815 0.166
59.6716 5.396 0.175
59.6872 6.108 0.187
59.7029 6.393 0.191
59.7185 6.593 0.194
59.7341 7.556 0.207
59.7497 7.117 0.201
59.7653 7.117 0.201
59.7809 7.140 0.202
59.7966 7.459 0.206
59.8122 7.989 0.213
59.8278 9.111 0.228
59.8434 10.798 0.248
59.8590 13.681 0.279
59.8746 17.778 0.318
59.8902 22.530 0.358
59.9059 29.796 0.412
59.9215 38.702 0.470
59.9371 48.446 0.525
59.9527 53.033 0.550
59.9683 50.269 0.535
59.9839 38.178 0.466
59.9996 26.673 0.390
60.0152 18.650 0.326
60.0308 15.385 0.296
60.0464 15.134 0.294
60.0620 16.456 0.306
60.0776 20.302 0.340
60.0932 23.499 0.366
60.1089 27.437 0.395
60.1245 27.909 0.399
60.1401 23.761 0.368
60.1557 17.562 0.316
60.1713 12.336 0.265
60.1869 8.222 0.216
60.2025 6.547 0.193
60.2182 5.664 0.180
60.2338 4.798 0.165
60.2494 4.348 0.157
60.2650 4.245 0.156
60.2806 3.778 0.147
60.2962 3.493 0.141
60.3119 3.259 0.136
60.3275 3.487 0.141
60.3431 3.402 0.139
60.3587 3.111 0.133
60.3743 3.031 0.131
60.3899 2.935 0.129
60.4055 2.826 0.127
60.4212 3.037 0.132
60.4368 2.724 0.125
60.4524 2.735 0.125
60.4680 2.809 0.127
60.4836 2.627 0.122
60.4992 2.690 0.124
60.5148 2.786 0.126
60.5305 2.650 0.123
60.5461 2.672 0.123
60.5617 2.576 0.121
60.5773 2.741 0.125
60.5929 2.353 0.116
60.6085 2.644 0.123
60.6242 2.775 0.126
60.6398 2.570 0.121
60.6554 2.615 0.122
60.6710 2.348 0.116
60.6866 2.558 0.121
60.7022 2.456 0.118
60.7178 2.729 0.125
60.7335 2.336 0.115
60.7491 2.445 0.118
60.7647 2.484 0.119
60.7803 2.826 0.127
60.7959 2.764 0.125
60.8115 2.826 0.127
60.8272 2.633 0.122
60.8428 3.014 0.131
60.8584 3.003 0.131
60.8740 2.650 0.123
60.8896 2.701 0.124
60.9052 2.929 0.129
60.9208 2.866 0.128
60.9365 2.929 0.129
60.9521 3.219 0.135
60.9677 2.969 0.130
60.9833 2.906 0.129
60.9989 3.299 0.137
61.0145 3.596 0.143
61.0301 3.738 0.146
61.0458 4.097 0.153
61.0614 4.359 0.158
61.0770 5.088 0.170
61.0926 5.521 0.177
61.1082 5.898 0.183
61.1238 6.661 0.195
61.1395 6.228 0.188
61.1551 5.749 0.181
61.1707 5.590 0.178
61.1863 5.556 0.178
61.2019 5.288 0.174
61.2175 6.148 0.187
61.2331 6.638 0.194
61.2488 8.279 0.217
61.2644 9.356 0.231
61.2800 11.003 0.250
61.2956 11.294 0.254
61.3112 11.140 0.252
61.3268 9.601 0.234
61.3424 7.789 0.211
61.3581 6.433 0.191
61.3737 5.795 0.182
61.3893 5.288 0.174
61.4049 5.288 0.174
61.4205 5.180 0.172
61.4361 5.915 0.184
61.4518 6.211 0.188
61.4674 6.137 0.187
61.4830 6.012 0.185
61.4986 5.692 0.180
61.5142 4.108 0.153
61.5298 3.755 0.146
61.5454 3.436 0.140
61.5611 3.043 0.132
61.5767 3.077 0.132
61.5923 2.690 0.124
61.6079 2.593 0.122
61.6235 2.684 0.124
61.6391 2.365 0.116
61.6548 2.353 0.116
61.6704 2.547 0.120
61.6860 2.501 0.119
61.7016 2.336 0.115
61.7172 1.994 0.107
61.7328 2.450 0.118
61.7484 2.205 0.112
61.7641 2.177 0.111
61.7797 2.279 0.114
61.7953 2.313 0.115
61.8109 2.165 0.111
61.8265 2.165 0.111
61.8421 2.171 0.111
61.8577 2.125 0.110
61.8734 2.040 0.108
61.8890 2.057 0.108
61.9046 2.017 0.107
61.9202 2.331 0.115
61.9358 2.182 0.112
61.9514 2.182 0.112
61.9671 2.125 0.110
61.9827 1.892 0.104
61.9983 2.017 0.107
62.0139 2.080 0.109
62.0295 2.154 0.111
62.0451 2.086 0.109
62.0607 2.040 0.108
62.0764 2.068 0.109
62.0920 1.966 0.106
62.1076 2.051 0.108
62.1232 2.125 0.110
62.1388 1.966 0.106
62.1544 2.040 0.108
62.1700 2.063 0.108
62.1857 2.046 0.108
62.2013 2.068 0.109
62.2169 1.915 0.104
62.2325 2.279 0.114
62.2481 2.205 0.112
62.2637 2.051 0.108
62.2794 2.091 0.109
62.2950 2.125 0.110
62.3106 2.222 0.113
62.3262 2.063 0.108
62.3418 2.046 0.108
62.3574 1.835 0.102
62.3730 1.892 0.104
62.3887 2.034 0.108
62.4043 2.034 0.108
62.4199 2.086 0.109
62.4355 2.142 0.110
62.4511 2.063 0.108
62.4667 2.017 0.107
62.4824 2.011 0.107
62.4980 2.120 0.110
62.5136 1.920 0.105
62.5292 2.148 0.111
62.5448 2.091 0.109
62.5604 1.983 0.106
62.5760 1.960 0.106
62.5917 1.795 0.101
62.6073 1.897 0.104
62.6229 1.852 0.103
62.6385 1.909 0.104
62.6541 1.932 0.105
62.6697 1.761 0.100
62.6853 2.234 0.113
62.7010 1.994 0.107
62.7166 2.011 0.107
62.7322 1.960 0.106
62.7478 1.704 0.099
62.7634 1.823 0.102
62.7790 1.761 0.100
62.7947 1.966 0.106
62.8103 1.829 0.102
62.8259 2.194 0.112
62.8415 1.994 0.107
62.8571 1.909 0.104
62.8727 2.080 0.109
62.8883 2.108 0.110
62.9040 1.801 0.101
62.9196 1.937 0.105
62.9352 1.943 0.105
62.9508 1.994 0.107
62.9664 1.966 0.106
62.9820 1.960 0.106
62.9976 1.977 0.106
63.0133 1.892 0.104
63.0289 1.966 0.106
63.0445 1.778 0.101
63.0601 1.977 0.106
63.0757 2.006 0.107
63.0913 1.880 0.104
63.1070 1.886 0.104
63.1226 1.897 0.104
63.1382 2.006 0.107
63.1538 1.926 0.105
63.1694 1.886 0.104
63.1850 2.137 0.110
63.2006 1.875 0.103
63.2163 2.029 0.108
63.2319 1.915 0.104
63.2475 1.897 0.104
63.2631 2.017 0.107
63.2787 1.858 0.103
63.2943 1.937 0.105
63.3100 1.823 0.102
63.3256 1.766 0.100
63.3412 1.960 0.106
63.3568 1.915 0.104
63.3724 1.983 0.106
63.3880 1.721 0.099
63.4036 1.972 0.106
63.4193 2.000 0.107
63.4349 1.903 0.104
63.4505 2.029 0.108
63.4661 2.057 0.108
63.4817 2.017 0.107
63.4973 1.937 0.105
63.5129 1.954 0.106
63.5286 1.943 0.105
63.5442 1.954 0.106
63.5598 2.063 0.108
63.5754 1.892 0.104
63.5910 2.063 0.108
63.6066 2.063 0.108
63.6223 2.234 0.113
63.6379 2.160 0.111
63.6535 2.057 0.108
63.6691 2.080 0.109
63.6847 1.949 0.105
63.7003 2.262 0.114
63.7159 2.245 0.113
63.7316 2.217 0.112
63.7472 2.274 0.114
63.7628 2.188 0.112
63.7784 2.182 0.112
63.7940 2.205 0.112
63.8096 2.068 0.109
63.8252 2.353 0.116
63.8409 2.519 0.120
63.8565 2.450 0.118
63.8721 2.279 0.114
63.8877 2.855 0.128
63.9033 2.889 0.128
63.9189 3.402 0.139
63.9346 3.613 0.143
63.9502 4.370 0.158
63.9658 5.276 0.173
63.9814 6.314 0.190
63.9970 8.034 0.214
64.0126 9.134 0.228
64.0282 10.274 0.242
64.0439 9.715 0.235
64.0595 7.749 0.210
64.0751 5.761 0.181
64.0907 4.729 0.164
64.1063 4.114 0.153
64.1219 3.647 0.144
64.1376 4.000 0.151
64.1532 4.285 0.156
64.1688 5.202 0.172
64.1844 5.516 0.177
64.2000 5.920 0.184
64.2156 6.074 0.186
64.2312 5.106 0.171
64.2469 4.786 0.165
64.2625 3.425 0.140
64.2781 3.157 0.134
64.2937 2.667 0.123
64.3093 2.467 0.119
64.3249 2.445 0.118
64.3405 2.410 0.117
64.3562 2.291 0.114
64.3718 2.450 0.118
64.3874 2.211 0.112
64.4030 2.296 0.114
64.4186 2.080 0.109
64.4342 2.029 0.108
64.4499 2.103 0.109
64.4655 2.080 0.109
64.4811 2.000 0.107
64.4967 2.011 0.107
64.5123 2.006 0.107
64.5279 2.011 0.107
64.5435 2.080 0.109
64.5592 2.080 0.109
64.5748 2.091 0.109
64.5904 1.932 0.105
64.6060 1.937 0.105
64.6216 2.131 0.110
64.6372 1.949 0.105
64.6529 2.120 0.110
64.6685 2.080 0.109
64.6841 2.006 0.107
64.6997 2.171 0.111
64.7153 2.006 0.107
64.7309 2.165 0.111
64.7465 1.835 0.102
64.7622 2.182 0.112
64.7778 1.972 0.106
64.7934 1.926 0.105
64.8090 1.897 0.104
64.8246 2.171 0.111
64.8402 1.949 0.105
64.8558 2.211 0.112
64.8715 1.806 0.101
64.8871 1.806 0.101
64.9027 1.983 0.106
64.9183 1.880 0.104
64.9339 2.154 0.111
64.9495 1.937 0.105
64.9652 2.222 0.113
64.9808 2.103 0.109
64.9964 2.068 0.109
65.0120 1.909 0.104
65.0276 2.057 0.108
65.0432 2.034 0.108
65.0588 2.023 0.107
65.0745 1.983 0.106
65.0901 1.932 0.105
65.1057 2.114 0.110
65.1213 2.034 0.108
65.1369 2.074 0.109
65.1525 2.137 0.110
65.1681 2.063 0.108
65.1838 2.137 0.110
65.1994 2.029 0.108
65.2150 2.120 0.110
65.2306 2.074 0.109
65.2462 2.131 0.110
65.2618 2.103 0.109
65.2775 2.103 0.109
65.2931 2.177 0.111
65.3087 2.029 0.108
65.3243 2.313 0.115
65.3399 2.074 0.109
65.3555 2.245 0.113
65.3711 2.251 0.113
65.3868 2.177 0.111
65.4024 2.359 0.116
65.4180 2.353 0.116
65.4336 2.086 0.109
65.4492 2.336 0.115
65.4648 2.000 0.107
65.4805 2.245 0.113
65.4961 2.234 0.113
65.5117 2.217 0.112
65.5273 2.410 0.117
65.5429 2.416 0.117
65.5585 2.194 0.112
65.5741 2.445 0.118
65.5898 2.450 0.118
65.6054 2.650 0.123
65.6210 2.581 0.121
65.6366 2.752 0.125
65.6522 2.724 0.125
65.6678 2.815 0.127
65.6834 3.054 0.132
65.6991 3.259 0.136
65.7147 3.100 0.133
65.7303 4.131 0.153
65.7459 4.234 0.155
65.7615 4.456 0.159
65.7771 4.832 0.166
65.7928 4.923 0.167
65.8084 4.593 0.162
65.8240 3.812 0.147
65.8396 3.692 0.145
65.8552 3.248 0.136
65.8708 3.356 0.138
65.8864 3.271 0.137
65.9021 3.185 0.135
65.9177 3.493 0.141
65.9333 3.744 0.146
65.9489 3.920 0.149
65.9645 4.057 0.152
65.9801 4.171 0.154
65.9957 4.165 0.154
66.0114 3.784 0.147
66.0270 3.299 0.137
66.0426 3.430 0.140
66.0582 3.590 0.143
66.0738 3.237 0.136
66.0894 3.402 0.139
66.1051 3.436 0.140
66.1207 3.487 0.141
66.1363 3.943 0.150
66.1519 3.675 0.145
66.1675 4.125 0.153
66.1831 4.439 0.159
66.1987 4.353 0.157
66.2144 4.536 0.161
66.2300 4.855 0.166
66.2456 4.786 0.165
66.2612 5.225 0.173
66.2768 5.425 0.176
66.2924 5.288 0.174
66.3081 5.858 0.183
66.3237 6.268 0.189
66.3393 6.724 0.196
66.3549 7.590 0.208
66.3705 8.895 0.225
66.3861 9.949 0.238
66.4017 11.533 0.256
66.4174 13.550 0.278
66.4330 17.134 0.312
66.4486 20.382 0.341
66.4642 25.727 0.383
66.4798 31.528 0.424
66.4954 37.129 0.460
66.5110 40.434 0.480
66.5267 38.200 0.467
66.5423 32.326 0.429
66.5579 24.662 0.375
66.5735 19.117 0.330
66.5891 16.616 0.308
66.6047 14.855 0.291
66.6204 14.724 0.290
66.6360 15.260 0.295
66.6516 17.858 0.319
66.6672 19.790 0.336
66.6828 21.710 0.352
66.6984 22.656 0.359
66.7140 21.077 0.347
66.7297 18.012 0.320
66.7453 14.411 0.287
66.7609 10.792 0.248
66.7765 8.621 0.222
66.7921 7.390 0.205
66.8077 6.627 0.194
66.8233 6.000 0.185
66.8390 5.453 0.176
66.8546 5.066 0.170
66.8702 4.747 0.164
66.8858 4.610 0.162
66.9014 4.450 0.159
66.9170 4.091 0.153
66.9327 3.903 0.149
66.9483 3.613 0.143
66.9639 3.852 0.148
66.9795 3.880 0.149
66.9951 3.755 0.146
67.0107 3.453 0.140
67.0263 3.356 0.138
67.0420 3.556 0.142
67.0576 3.259 0.136
67.0732 3.219 0.135
67.0888 3.208 0.135
67.1044 3.282 0.137
67.1200 3.265 0.136
67.1357 3.237 0.136
67.1513 3.271 0.137
67.1669 3.180 0.135
67.1825 3.066 0.132
67.1981 3.123 0.133
67.2137 3.294 0.137
67.2293 3.453 0.140
67.2450 3.407 0.139
67.2606 3.362 0.138
67.2762 3.561 0.142
67.2918 3.442 0.140
67.3074 3.744 0.146
67.3230 3.624 0.144
67.3386 3.635 0.144
67.3543 4.086 0.153
67.3699 3.852 0.148
67.3855 3.812 0.147
67.4011 4.182 0.154
67.4167 4.097 0.153
67.4323 4.308 0.157
67.4480 4.257 0.156
67.4636 4.188 0.154
67.4792 4.205 0.155
67.4948 4.752 0.165
67.5104 4.547 0.161
67.5260 4.804 0.165
67.5416 4.769 0.165
67.5573 5.140 0.171
67.5729 5.789 0.182
67.5885 6.331 0.190
67.6041 6.889 0.198
67.6197 7.846 0.211
67.6353 9.140 0.228
67.6509 11.106 0.252
67.6666 13.727 0.280
67.6822 17.812 0.319
67.6978 22.217 0.356
67.7134 28.115 0.400
67.7290 33.323 0.436
67.7446 34.172 0.441
67.7603 31.967 0.427
67.7759 25.231 0.379
67.7915 18.149 0.322
67.8071 15.072 0.293
67.8227 12.992 0.272
67.8383 12.393 0.266
67.8539 13.533 0.278
67.8696 14.661 0.289
67.8852 17.077 0.312
67.9008 19.812 0.336
67.9164 22.228 0.356
67.9320 23.567 0.366
67.9476 22.935 0.362
67.9633 21.602 0.351
67.9789 18.661 0.326
67.9945 16.827 0.310
68.0101 16.918 0.310
68.0257 17.243 0.313
68.0413 19.505 0.333
68.0569 22.428 0.357
68.0726 27.254 0.394
68.0882 34.251 0.442
68.1038 42.468 0.492
68.1194 53.055 0.550
68.1350 62.702 0.598
68.1506 70.406 0.633
68.1662 72.908 0.645
68.1819 72.839 0.644
68.1975 74.497 0.652
68.2131 72.218 0.641
68.2287 65.056 0.609
68.2443 55.511 0.562
68.2599 50.349 0.536
68.2756 50.411 0.536
68.2912 52.901 0.549
68.3068 56.685 0.568
68.3224 58.634 0.578
68.3380 56.389 0.567
68.3536 52.041 0.545
68.3692 47.722 0.521
68.3849 45.471 0.509
68.4005 41.705 0.487
68.4161 36.696 0.457
68.4317 31.978 0.427
68.4473 27.003 0.392
68.4629 23.630 0.367
68.4785 22.337 0.357
68.4942 21.670 0.351
68.5098 20.473 0.342
68.5254 18.337 0.323
68.5410 14.530 0.288
68.5566 11.174 0.252
68.5722 9.453 0.232
68.5879 7.835 0.211
68.6035 7.493 0.207
68.6191 6.843 0.197
68.6347 6.314 0.190
68.6503 6.154 0.187
68.6659 5.128 0.171
68.6815 5.060 0.170
68.6972 4.809 0.166
68.7128 4.547 0.161
68.7284 4.541 0.161
68.7440 4.553 0.161
68.7596 4.279 0.156
68.7752 3.955 0.150
68.7909 3.852 0.148
68.8065 3.550 0.142
68.8221 3.818 0.147
68.8377 3.584 0.143
68.8533 3.635 0.144
68.8689 3.174 0.134
68.8845 3.379 0.139
68.9002 3.470 0.141
68.9158 3.294 0.137
68.9314 3.180 0.135
68.9470 3.162 0.134
68.9626 3.140 0.134
68.9782 3.248 0.136
68.9938 3.014 0.131
69.0095 2.992 0.131
69.0251 2.815 0.127
69.0407 3.191 0.135
69.0563 2.798 0.126
69.0719 2.923 0.129
69.0875 2.986 0.130
69.1032 2.627 0.122
69.1188 2.627 0.122
69.1344 2.724 0.125
69.1500 2.815 0.127
69.1656 2.815 0.127
69.1812 2.667 0.123
69.1968 2.547 0.120
69.2125 2.456 0.118
69.2281 2.587 0.121
69.2437 2.473 0.119
69.2593 2.490 0.119
69.2749 2.593 0.122
69.2905 2.587 0.121
69.3061 2.422 0.117
69.3218 2.399 0.117
69.3374 2.393 0.117
69.3530 2.422 0.117
69.3686 2.262 0.114
69.3842 2.388 0.117
69.3998 2.536 0.120
69.4155 2.388 0.117
69.4311 2.268 0.114
69.4467 2.279 0.114
69.4623 2.211 0.112
69.4779 2.114 0.110
69.4935 2.262 0.114
69.5091 2.291 0.114
69.5248 2.365 0.116
69.5404 2.319 0.115
69.5560 2.359 0.116
69.5716 2.291 0.114
69.5872 2.194 0.112
69.6028 2.279 0.114
69.6185 2.342 0.116
69.6341 2.194 0.112
69.6497 2.205 0.112
69.6653 2.137 0.110
69.6809 2.256 0.113
69.6965 2.040 0.108
69.7121 2.097 0.109
69.7278 2.034 0.108
69.7434 2.313 0.115
69.7590 2.268 0.114
69.7746 2.194 0.112
69.7902 2.131 0.110
69.8058 2.222 0.113
69.8214 2.023 0.107
69.8371 2.160 0.111
69.8527 2.057 0.108
69.8683 2.376 0.116
69.8839 2.205 0.112
69.8995 2.103 0.109
69.9151 1.915 0.104
69.9308 2.188 0.112
69.9464 1.892 0.104
69.9620 2.046 0.108
69.9776 2.302 0.115
69.9932 2.256 0.113
