'Id: "" Comment: "Single 30 min qual/quant raw material scan" Operator: "Paul  Stutzman" Anode: "Cu" Scantype: "Locked Coupled" TimePerStep: "175.496" X: "0" Y: "0" Z: "0" 
10.0000 5.299 0.174
10.0156 4.974 0.168
10.0312 5.020 0.169
10.0468 4.986 0.169
10.0625 5.276 0.173
10.0781 5.009 0.169
10.0937 4.798 0.165
10.1093 5.083 0.170
10.1249 5.180 0.172
10.1405 5.453 0.176
10.1562 4.804 0.165
10.1718 4.684 0.163
10.1874 5.003 0.169
10.2030 4.855 0.166
10.2186 4.923 0.167
10.2342 4.752 0.165
10.2498 5.009 0.169
10.2655 4.536 0.161
10.2811 4.467 0.160
10.2967 4.917 0.167
10.3123 4.900 0.167
10.3279 4.661 0.163
10.3435 4.843 0.166
10.3591 4.843 0.166
10.3748 4.895 0.167
10.3904 5.077 0.170
10.4060 4.826 0.166
10.4216 4.900 0.167
10.4372 4.855 0.166
10.4528 4.935 0.168
10.4685 4.707 0.164
10.4841 4.849 0.166
10.4997 5.128 0.171
10.5153 5.066 0.170
10.5309 5.482 0.177
10.5465 4.980 0.168
10.5621 4.684 0.163
10.5778 4.992 0.169
10.5934 4.633 0.162
10.6090 5.083 0.170
10.6246 4.450 0.159
10.6402 4.849 0.166
10.6558 4.593 0.162
10.6714 4.690 0.163
10.6871 4.661 0.163
10.7027 4.986 0.169
10.7183 4.792 0.165
10.7339 5.140 0.171
10.7495 4.923 0.167
10.7651 4.997 0.169
10.7808 4.524 0.161
10.7964 4.861 0.166
10.8120 4.621 0.162
10.8276 4.849 0.166
10.8432 4.997 0.169
10.8588 4.923 0.167
10.8744 4.541 0.161
10.8901 4.917 0.167
10.9057 4.627 0.162
10.9213 4.701 0.164
10.9369 4.843 0.166
10.9525 4.598 0.162
10.9681 4.712 0.164
10.9838 4.735 0.164
10.9994 4.940 0.168
11.0150 4.416 0.159
11.0306 4.513 0.160
11.0462 4.416 0.159
11.0618 4.513 0.160
11.0774 4.684 0.163
11.0931 4.678 0.163
11.1087 4.410 0.159
11.1243 4.644 0.163
11.1399 4.633 0.162
11.1555 4.895 0.167
11.1711 4.627 0.162
11.1867 4.519 0.160
11.2024 4.490 0.160
11.2180 4.507 0.160
11.2336 4.524 0.161
11.2492 4.553 0.161
11.2648 4.467 0.160
11.2804 4.376 0.158
11.2961 4.382 0.158
11.3117 4.519 0.160
11.3273 4.593 0.162
11.3429 4.832 0.166
11.3585 4.638 0.163
11.3741 4.792 0.165
11.3897 4.707 0.164
11.4054 4.450 0.159
11.4210 4.633 0.162
11.4366 4.473 0.160
11.4522 4.576 0.161
11.4678 4.690 0.163
11.4834 4.524 0.161
11.4990 4.365 0.158
11.5147 4.576 0.161
11.5303 4.536 0.161
11.5459 4.638 0.163
11.5615 4.581 0.162
11.5771 4.661 0.163
11.5927 4.781 0.165
11.6084 4.781 0.165
11.6240 4.764 0.165
11.6396 5.145 0.171
11.6552 4.889 0.167
11.6708 4.952 0.168
11.6864 4.672 0.163
11.7020 4.598 0.162
11.7177 5.043 0.170
11.7333 4.980 0.168
11.7489 4.992 0.169
11.7645 4.678 0.163
11.7801 5.003 0.169
11.7957 4.690 0.163
11.8114 5.043 0.170
11.8270 4.804 0.165
11.8426 4.963 0.168
11.8582 4.946 0.168
11.8738 5.071 0.170
11.8894 4.980 0.168
11.9050 4.952 0.168
11.9207 5.276 0.173
11.9363 5.020 0.169
11.9519 5.151 0.171
11.9675 4.974 0.168
11.9831 5.026 0.169
11.9987 5.106 0.171
12.0143 5.163 0.172
12.0300 4.992 0.169
12.0456 5.031 0.169
12.0612 4.735 0.164
12.0768 4.900 0.167
12.0924 4.695 0.164
12.1080 4.553 0.161
12.1237 4.610 0.162
12.1393 4.792 0.165
12.1549 4.593 0.162
12.1705 4.245 0.156
12.1861 4.342 0.157
12.2017 4.741 0.164
12.2173 4.376 0.158
12.2330 4.353 0.157
12.2486 4.319 0.157
12.2642 4.143 0.154
12.2798 4.467 0.160
12.2954 4.541 0.161
12.3110 4.598 0.162
12.3266 4.222 0.155
12.3423 4.291 0.156
12.3579 4.268 0.156
12.3735 4.530 0.161
12.3891 4.490 0.160
12.4047 4.165 0.154
12.4203 3.994 0.151
12.4360 4.615 0.162
12.4516 4.439 0.159
12.4672 4.399 0.158
12.4828 4.154 0.154
12.4984 4.279 0.156
12.5140 4.382 0.158
12.5296 4.479 0.160
12.5453 4.165 0.154
12.5609 3.994 0.151
12.5765 4.257 0.156
12.5921 4.091 0.153
12.6077 4.029 0.152
12.6233 4.148 0.154
12.6390 4.068 0.152
12.6546 4.068 0.152
12.6702 4.342 0.157
12.6858 3.835 0.148
12.7014 4.114 0.153
12.7170 4.000 0.151
12.7326 4.074 0.152
12.7483 4.137 0.154
12.7639 4.120 0.153
12.7795 4.502 0.160
12.7951 4.097 0.153
12.8107 3.801 0.147
12.8263 4.234 0.155
12.8419 4.422 0.159
12.8576 3.949 0.150
12.8732 4.017 0.151
12.8888 3.972 0.150
12.9044 4.234 0.155
12.9200 3.806 0.147
12.9356 4.257 0.156
12.9513 3.966 0.150
12.9669 3.903 0.149
12.9825 4.291 0.156
12.9981 3.960 0.150
13.0137 3.926 0.150
13.0293 4.011 0.151
13.0449 3.789 0.147
13.0606 4.046 0.152
13.0762 3.823 0.148
13.0918 4.143 0.154
13.1074 3.943 0.150
13.1230 4.125 0.153
13.1386 4.319 0.157
13.1543 4.080 0.152
13.1699 3.738 0.146
13.1855 4.211 0.155
13.2011 4.023 0.151
13.2167 4.000 0.151
13.2323 3.687 0.145
13.2479 4.006 0.151
13.2636 3.915 0.149
13.2792 3.846 0.148
13.2948 4.182 0.154
13.3104 4.034 0.152
13.3260 3.972 0.150
13.3416 4.257 0.156
13.3572 3.658 0.144
13.3729 3.675 0.145
13.3885 4.148 0.154
13.4041 3.949 0.150
13.4197 4.188 0.154
13.4353 4.046 0.152
13.4509 4.063 0.152
13.4666 4.239 0.155
13.4822 3.989 0.151
13.4978 3.994 0.151
13.5134 4.188 0.154
13.5290 3.903 0.149
13.5446 3.709 0.145
13.5602 3.892 0.149
13.5759 3.858 0.148
13.5915 4.063 0.152
13.6071 3.880 0.149
13.6227 4.165 0.154
13.6383 3.875 0.149
13.6539 4.177 0.154
13.6695 4.182 0.154
13.6852 4.086 0.153
13.7008 3.818 0.147
13.7164 4.103 0.153
13.7320 4.057 0.152
13.7476 4.057 0.152
13.7632 3.772 0.147
13.7789 4.051 0.152
13.7945 4.091 0.153
13.8101 4.234 0.155
13.8257 3.658 0.144
13.8413 3.955 0.150
13.8569 3.755 0.146
13.8725 3.835 0.148
13.8882 3.624 0.144
13.9038 3.898 0.149
13.9194 3.858 0.148
13.9350 3.858 0.148
13.9506 3.641 0.144
13.9662 3.664 0.144
13.9819 3.863 0.148
13.9975 3.761 0.146
14.0131 3.852 0.148
14.0287 3.670 0.145
14.0443 3.818 0.147
14.0599 3.841 0.148
14.0755 3.812 0.147
14.0912 4.029 0.152
14.1068 3.960 0.150
14.1224 3.812 0.147
14.1380 3.721 0.146
14.1536 3.664 0.144
14.1692 3.983 0.151
14.1848 3.812 0.147
14.2005 3.880 0.149
14.2161 3.801 0.147
14.2317 3.607 0.143
14.2473 3.784 0.147
14.2629 3.721 0.146
14.2785 3.681 0.145
14.2942 3.875 0.149
14.3098 3.880 0.149
14.3254 3.772 0.147
14.3410 3.744 0.146
14.3566 4.040 0.152
14.3722 4.000 0.151
14.3878 4.000 0.151
14.4035 4.034 0.152
14.4191 3.784 0.147
14.4347 3.932 0.150
14.4503 3.886 0.149
14.4659 3.932 0.150
14.4815 3.732 0.146
14.4971 3.966 0.150
14.5128 4.011 0.151
14.5284 4.046 0.152
14.5440 3.892 0.149
14.5596 3.966 0.150
14.5752 4.000 0.151
14.5908 4.160 0.154
14.6065 4.063 0.152
14.6221 3.858 0.148
14.6377 3.880 0.149
14.6533 3.932 0.150
14.6689 4.080 0.152
14.6845 4.120 0.153
14.7001 4.325 0.157
14.7158 4.382 0.158
14.7314 3.835 0.148
14.7470 3.932 0.150
14.7626 4.222 0.155
14.7782 4.222 0.155
14.7938 3.789 0.147
14.8095 3.949 0.150
14.8251 3.578 0.143
14.8407 3.915 0.149
14.8563 4.171 0.154
14.8719 4.034 0.152
14.8875 3.909 0.149
14.9031 4.046 0.152
14.9188 3.983 0.151
14.9344 4.160 0.154
14.9500 3.852 0.148
14.9656 3.709 0.145
14.9812 3.841 0.148
14.9968 3.852 0.148
15.0124 3.601 0.143
15.0281 3.738 0.146
15.0437 3.886 0.149
15.0593 3.732 0.146
15.0749 3.544 0.142
15.0905 3.419 0.140
15.1061 3.521 0.142
15.1218 3.596 0.143
15.1374 3.578 0.143
15.1530 3.533 0.142
15.1686 3.635 0.144
15.1842 3.567 0.143
15.1998 3.704 0.145
15.2154 3.413 0.139
15.2311 3.607 0.143
15.2467 3.453 0.140
15.2623 3.596 0.143
15.2779 3.539 0.142
15.2935 3.533 0.142
15.3091 3.863 0.148
15.3247 3.596 0.143
15.3404 3.544 0.142
15.3560 3.464 0.141
15.3716 3.641 0.144
15.3872 3.368 0.139
15.4028 3.413 0.139
15.4184 3.573 0.143
15.4341 3.539 0.142
15.4497 3.795 0.147
15.4653 3.276 0.137
15.4809 3.584 0.143
15.4965 3.476 0.141
15.5121 3.596 0.143
15.5277 3.413 0.139
15.5434 3.368 0.139
15.5590 3.305 0.137
15.5746 3.601 0.143
15.5902 3.447 0.140
15.6058 3.447 0.140
15.6214 3.476 0.141
15.6371 3.362 0.138
15.6527 3.590 0.143
15.6683 3.715 0.145
15.6839 3.573 0.143
15.6995 3.339 0.138
15.7151 3.516 0.142
15.7307 3.487 0.141
15.7464 3.407 0.139
15.7620 3.453 0.140
15.7776 3.436 0.140
15.7932 3.362 0.138
15.8088 3.539 0.142
15.8244 3.447 0.140
15.8400 3.282 0.137
15.8557 3.248 0.136
15.8713 3.407 0.139
15.8869 3.180 0.135
15.9025 3.487 0.141
15.9181 3.407 0.139
15.9337 3.510 0.141
15.9494 3.738 0.146
15.9650 3.311 0.137
15.9806 3.573 0.143
15.9962 3.476 0.141
16.0118 3.271 0.137
16.0274 3.436 0.140
16.0430 3.516 0.142
16.0587 3.333 0.138
16.0743 3.265 0.136
16.0899 3.482 0.141
16.1055 3.858 0.148
16.1211 3.362 0.138
16.1367 3.613 0.143
16.1523 3.259 0.136
16.1680 3.453 0.140
16.1836 3.464 0.141
16.1992 3.362 0.138
16.2148 3.721 0.146
16.2304 3.436 0.140
16.2460 3.561 0.142
16.2617 3.333 0.138
16.2773 3.709 0.145
16.2929 3.208 0.135
16.3085 3.624 0.144
16.3241 3.333 0.138
16.3397 3.607 0.143
16.3553 3.504 0.141
16.3710 3.208 0.135
16.3866 3.066 0.132
16.4022 3.425 0.140
16.4178 3.601 0.143
16.4334 3.556 0.142
16.4490 3.664 0.144
16.4647 3.305 0.137
16.4803 3.749 0.146
16.4959 3.197 0.135
16.5115 3.140 0.134
16.5271 3.447 0.140
16.5427 3.311 0.137
16.5583 3.248 0.136
16.5740 3.271 0.137
16.5896 3.504 0.141
16.6052 3.407 0.139
16.6208 3.385 0.139
16.6364 3.533 0.142
16.6520 3.516 0.142
16.6676 3.191 0.135
16.6833 3.219 0.135
16.6989 3.219 0.135
16.7145 3.356 0.138
16.7301 3.533 0.142
16.7457 3.356 0.138
16.7613 3.373 0.139
16.7770 3.385 0.139
16.7926 3.516 0.142
16.8082 3.271 0.137
16.8238 3.419 0.140
16.8394 3.271 0.137
16.8550 3.487 0.141
16.8706 3.567 0.143
16.8863 3.356 0.138
16.9019 3.168 0.134
16.9175 3.419 0.140
16.9331 3.362 0.138
16.9487 3.613 0.143
16.9643 3.521 0.142
16.9799 3.379 0.139
16.9956 3.476 0.141
17.0112 3.533 0.142
17.0268 3.561 0.142
17.0424 3.299 0.137
17.0580 3.248 0.136
17.0736 3.259 0.136
17.0893 3.276 0.137
17.1049 3.453 0.140
17.1205 3.516 0.142
17.1361 3.527 0.142
17.1517 3.294 0.137
17.1673 3.345 0.138
17.1829 3.362 0.138
17.1986 3.219 0.135
17.2142 3.351 0.138
17.2298 3.556 0.142
17.2454 3.208 0.135
17.2610 3.419 0.140
17.2766 3.362 0.138
17.2923 3.419 0.140
17.3079 3.476 0.141
17.3235 3.476 0.141
17.3391 3.316 0.137
17.3547 3.328 0.138
17.3703 3.333 0.138
17.3859 3.328 0.138
17.4016 3.254 0.136
17.4172 3.442 0.140
17.4328 3.094 0.133
17.4484 3.214 0.135
17.4640 3.185 0.135
17.4796 3.174 0.134
17.4952 3.379 0.139
17.5109 3.356 0.138
17.5265 3.351 0.138
17.5421 3.476 0.141
17.5577 3.202 0.135
17.5733 3.162 0.134
17.5889 3.339 0.138
17.6046 3.265 0.136
17.6202 3.248 0.136
17.6358 3.276 0.137
17.6514 3.271 0.137
17.6670 3.265 0.136
17.6826 3.294 0.137
17.6982 3.271 0.137
17.7139 3.151 0.134
17.7295 3.231 0.136
17.7451 3.356 0.138
17.7607 3.305 0.137
17.7763 3.219 0.135
17.7919 3.020 0.131
17.8076 3.157 0.134
17.8232 3.288 0.137
17.8388 3.351 0.138
17.8544 3.322 0.138
17.8700 3.157 0.134
17.8856 3.105 0.133
17.9012 3.368 0.139
17.9169 3.009 0.131
17.9325 3.328 0.138
17.9481 3.248 0.136
17.9637 3.311 0.137
17.9793 3.276 0.137
17.9949 3.442 0.140
18.0105 2.980 0.130
18.0262 3.043 0.132
18.0418 3.071 0.132
18.0574 3.333 0.138
18.0730 3.447 0.140
18.0886 3.351 0.138
18.1042 3.185 0.135
18.1199 3.094 0.133
18.1355 3.248 0.136
18.1511 3.128 0.134
18.1667 3.071 0.132
18.1823 2.992 0.131
18.1979 3.054 0.132
18.2135 3.231 0.136
18.2292 3.368 0.139
18.2448 3.442 0.140
18.2604 3.299 0.137
18.2760 3.288 0.137
18.2916 3.305 0.137
18.3072 3.510 0.141
18.3228 3.299 0.137
18.3385 3.071 0.132
18.3541 3.077 0.132
18.3697 3.077 0.132
18.3853 3.271 0.137
18.4009 3.419 0.140
18.4165 3.145 0.134
18.4322 3.265 0.136
18.4478 3.379 0.139
18.4634 3.430 0.140
18.4790 3.128 0.134
18.4946 3.009 0.131
18.5102 3.083 0.133
18.5258 3.254 0.136
18.5415 3.271 0.137
18.5571 3.168 0.134
18.5727 3.145 0.134
18.5883 3.305 0.137
18.6039 3.134 0.134
18.6195 3.305 0.137
18.6352 3.191 0.135
18.6508 3.396 0.139
18.6664 3.043 0.132
18.6820 3.219 0.135
18.6976 3.037 0.132
18.7132 2.929 0.129
18.7288 3.276 0.137
18.7445 3.305 0.137
18.7601 3.071 0.132
18.7757 3.071 0.132
18.7913 3.168 0.134
18.8069 3.162 0.134
18.8225 3.026 0.131
18.8381 3.151 0.134
18.8538 3.105 0.133
18.8694 3.117 0.133
18.8850 3.368 0.139
18.9006 3.362 0.138
18.9162 3.225 0.136
18.9318 3.157 0.134
18.9475 2.826 0.127
18.9631 3.105 0.133
18.9787 2.900 0.129
18.9943 3.185 0.135
19.0099 3.658 0.144
19.0255 3.504 0.141
19.0411 3.191 0.135
19.0568 3.185 0.135
19.0724 3.117 0.133
19.0880 3.105 0.133
19.1036 3.174 0.134
19.1192 3.162 0.134
19.1348 3.379 0.139
19.1504 3.105 0.133
19.1661 3.259 0.136
19.1817 3.168 0.134
19.1973 3.294 0.137
19.2129 2.929 0.129
19.2285 3.294 0.137
19.2441 3.123 0.133
19.2598 3.100 0.133
19.2754 3.083 0.133
19.2910 3.180 0.135
19.3066 3.123 0.133
19.3222 3.100 0.133
19.3378 3.071 0.132
19.3534 2.946 0.130
19.3691 3.316 0.137
19.3847 3.299 0.137
19.4003 3.482 0.141
19.4159 3.516 0.142
19.4315 2.940 0.129
19.4471 3.231 0.136
19.4628 3.254 0.136
19.4784 3.111 0.133
19.4940 2.803 0.126
19.5096 3.043 0.132
19.5252 3.419 0.140
19.5408 3.202 0.135
19.5564 3.151 0.134
19.5721 3.014 0.131
19.5877 3.128 0.134
19.6033 3.259 0.136
19.6189 2.980 0.130
19.6345 3.117 0.133
19.6501 3.248 0.136
19.6657 3.202 0.135
19.6814 3.117 0.133
19.6970 3.117 0.133
19.7126 3.066 0.132
19.7282 3.071 0.132
19.7438 3.043 0.132
19.7594 3.123 0.133
19.7751 2.986 0.130
19.7907 3.180 0.135
19.8063 2.986 0.130
19.8219 3.026 0.131
19.8375 2.917 0.129
19.8531 3.026 0.131
19.8687 3.060 0.132
19.8844 2.900 0.129
19.9000 3.077 0.132
19.9156 3.180 0.135
19.9312 3.037 0.132
19.9468 3.094 0.133
19.9624 3.054 0.132
19.9780 2.883 0.128
19.9937 2.935 0.129
20.0093 2.986 0.130
20.0249 3.128 0.134
20.0405 2.963 0.130
20.0561 3.111 0.133
20.0717 3.225 0.136
20.0874 3.083 0.133
20.1030 3.311 0.137
20.1186 3.430 0.140
20.1342 3.259 0.136
20.1498 3.254 0.136
20.1654 3.191 0.135
20.1810 3.328 0.138
20.1967 3.026 0.131
20.2123 3.208 0.135
20.2279 3.265 0.136
20.2435 3.430 0.140
20.2591 3.202 0.135
20.2747 3.276 0.137
20.2904 3.271 0.137
20.3060 3.316 0.137
20.3216 3.430 0.140
20.3372 3.419 0.140
20.3528 3.510 0.141
20.3684 3.453 0.140
20.3840 3.339 0.138
20.3997 3.476 0.141
20.4153 3.635 0.144
20.4309 3.567 0.143
20.4465 3.265 0.136
20.4621 3.852 0.148
20.4777 3.453 0.140
20.4933 3.727 0.146
20.5090 3.926 0.150
20.5246 3.846 0.148
20.5402 4.143 0.154
20.5558 4.200 0.155
20.5714 4.308 0.157
20.5870 4.610 0.162
20.6027 4.655 0.163
20.6183 4.832 0.166
20.6339 4.729 0.164
20.6495 5.174 0.172
20.6651 5.641 0.179
20.6807 6.342 0.190
20.6963 6.866 0.198
20.7120 8.257 0.217
20.7276 9.106 0.228
20.7432 11.282 0.254
20.7588 12.958 0.272
20.7744 16.855 0.310
20.7900 20.627 0.343
20.8056 27.112 0.393
20.8213 35.391 0.449
20.8369 42.782 0.494
20.8525 45.477 0.509
20.8681 41.226 0.485
20.8837 34.081 0.441
20.8993 27.761 0.398
20.9150 22.798 0.360
20.9306 16.331 0.305
20.9462 10.804 0.248
20.9618 7.994 0.213
20.9774 6.484 0.192
20.9930 5.744 0.181
21.0086 5.248 0.173
21.0243 4.895 0.167
21.0399 4.644 0.163
21.0555 4.370 0.158
21.0711 4.268 0.156
21.0867 3.744 0.146
21.1023 3.875 0.149
21.1180 3.556 0.142
21.1336 3.601 0.143
21.1492 3.259 0.136
21.1648 3.470 0.141
21.1804 3.504 0.141
21.1960 3.447 0.140
21.2116 3.282 0.137
21.2273 3.373 0.139
21.2429 3.105 0.133
21.2585 3.071 0.132
21.2741 3.111 0.133
21.2897 3.003 0.131
21.3053 3.225 0.136
21.3209 3.231 0.136
21.3366 3.191 0.135
21.3522 3.197 0.135
21.3678 3.088 0.133
21.3834 3.077 0.132
21.3990 3.237 0.136
21.4146 3.180 0.135
21.4303 2.878 0.128
21.4459 3.009 0.131
21.4615 2.997 0.131
21.4771 2.866 0.128
21.4927 2.895 0.128
21.5083 3.009 0.131
21.5239 2.929 0.129
21.5396 2.980 0.130
21.5552 3.100 0.133
21.5708 2.900 0.129
21.5864 2.798 0.126
21.6020 2.940 0.129
21.6176 2.935 0.129
21.6332 2.963 0.130
21.6489 2.764 0.125
21.6645 2.684 0.124
21.6801 2.883 0.128
21.6957 2.741 0.125
21.7113 2.718 0.124
21.7269 3.031 0.131
21.7426 2.906 0.129
21.7582 3.066 0.132
21.7738 2.872 0.128
21.7894 2.935 0.129
21.8050 2.957 0.130
21.8206 2.678 0.124
21.8362 2.803 0.126
21.8519 2.821 0.127
21.8675 2.900 0.129
21.8831 2.974 0.130
21.8987 2.963 0.130
21.9143 2.729 0.125
21.9299 2.621 0.122
21.9456 2.690 0.124
21.9612 2.650 0.123
21.9768 2.917 0.129
21.9924 2.809 0.127
22.0080 2.883 0.128
22.0236 2.889 0.128
22.0392 2.769 0.126
22.0549 3.020 0.131
22.0705 2.980 0.130
22.0861 2.872 0.128
22.1017 2.803 0.126
22.1173 2.786 0.126
22.1329 2.667 0.123
22.1485 2.690 0.124
22.1642 2.889 0.128
22.1798 2.724 0.125
22.1954 2.906 0.129
22.2110 2.883 0.128
22.2266 2.860 0.128
22.2422 2.764 0.125
22.2579 2.735 0.125
22.2735 2.917 0.129
22.2891 3.105 0.133
22.3047 2.593 0.122
22.3203 2.678 0.124
22.3359 2.781 0.126
22.3515 2.621 0.122
22.3672 2.752 0.125
22.3828 2.849 0.127
22.3984 2.866 0.128
22.4140 2.729 0.125
22.4296 2.764 0.125
22.4452 2.906 0.129
22.4608 2.741 0.125
22.4765 2.764 0.125
22.4921 2.764 0.125
22.5077 2.707 0.124
22.5233 2.866 0.128
22.5389 2.826 0.127
22.5545 2.747 0.125
22.5702 2.724 0.125
22.5858 2.935 0.129
22.6014 2.712 0.124
22.6170 2.769 0.126
22.6326 2.769 0.126
22.6482 2.655 0.123
22.6638 2.758 0.125
22.6795 2.684 0.124
22.6951 2.690 0.124
22.7107 2.735 0.125
22.7263 2.900 0.129
22.7419 2.980 0.130
22.7575 2.655 0.123
22.7732 2.878 0.128
22.7888 2.792 0.126
22.8044 2.900 0.129
22.8200 2.621 0.122
22.8356 2.752 0.125
22.8512 2.798 0.126
22.8668 2.547 0.120
22.8825 2.638 0.123
22.8981 2.803 0.126
22.9137 2.581 0.121
22.9293 2.473 0.119
22.9449 2.695 0.124
22.9605 2.678 0.124
22.9761 2.758 0.125
22.9918 2.781 0.126
23.0074 2.764 0.125
23.0230 2.821 0.127
23.0386 2.707 0.124
23.0542 2.803 0.126
23.0698 2.479 0.119
23.0855 2.467 0.119
23.1011 2.860 0.128
23.1167 2.456 0.118
23.1323 2.558 0.121
23.1479 2.678 0.124
23.1635 2.570 0.121
23.1791 2.519 0.120
23.1948 2.621 0.122
23.2104 2.872 0.128
23.2260 2.496 0.119
23.2416 2.678 0.124
23.2572 2.764 0.125
23.2728 2.798 0.126
23.2885 2.838 0.127
23.3041 2.735 0.125
23.3197 2.558 0.121
23.3353 2.769 0.126
23.3509 2.923 0.129
23.3665 2.809 0.127
23.3821 2.798 0.126
23.3978 2.501 0.119
23.4134 2.581 0.121
23.4290 2.718 0.124
23.4446 2.678 0.124
23.4602 2.627 0.122
23.4758 2.530 0.120
23.4914 2.695 0.124
23.5071 2.604 0.122
23.5227 2.769 0.126
23.5383 2.581 0.121
23.5539 2.735 0.125
23.5695 2.427 0.118
23.5851 2.558 0.121
23.6008 2.604 0.122
23.6164 2.667 0.123
23.6320 2.900 0.129
23.6476 2.507 0.120
23.6632 2.427 0.118
23.6788 2.564 0.121
23.6944 2.684 0.124
23.7101 2.707 0.124
23.7257 2.490 0.119
23.7413 2.718 0.124
23.7569 2.769 0.126
23.7725 2.701 0.124
23.7881 2.621 0.122
23.8037 2.758 0.125
23.8194 2.541 0.120
23.8350 2.672 0.123
23.8506 2.570 0.121
23.8662 2.826 0.127
23.8818 2.536 0.120
23.8974 2.860 0.128
23.9131 2.690 0.124
23.9287 2.621 0.122
23.9443 2.695 0.124
23.9599 2.519 0.120
23.9755 3.031 0.131
23.9911 3.083 0.133
24.0067 2.758 0.125
24.0224 2.821 0.127
24.0380 2.707 0.124
24.0536 2.678 0.124
24.0692 2.672 0.123
24.0848 2.872 0.128
24.1004 2.724 0.125
24.1161 2.798 0.126
24.1317 2.695 0.124
24.1473 2.695 0.124
24.1629 2.866 0.128
24.1785 2.490 0.119
24.1941 2.507 0.120
24.2097 2.735 0.125
24.2254 2.376 0.116
24.2410 2.501 0.119
24.2566 2.900 0.129
24.2722 2.690 0.124
24.2878 2.342 0.116
24.3034 2.530 0.120
24.3190 2.786 0.126
24.3347 2.712 0.124
24.3503 2.462 0.118
24.3659 2.496 0.119
24.3815 2.536 0.120
24.3971 2.553 0.121
24.4127 2.781 0.126
24.4284 2.764 0.125
24.4440 2.473 0.119
24.4596 2.621 0.122
24.4752 2.507 0.120
24.4908 2.695 0.124
24.5064 2.735 0.125
24.5220 2.541 0.120
24.5377 2.553 0.121
24.5533 2.570 0.121
24.5689 2.684 0.124
24.5845 2.604 0.122
24.6001 2.593 0.122
24.6157 2.809 0.127
24.6313 2.581 0.121
24.6470 2.718 0.124
24.6626 2.957 0.130
24.6782 2.843 0.127
24.6938 3.060 0.132
24.7094 2.940 0.129
24.7250 2.843 0.127
24.7407 3.128 0.134
24.7563 3.185 0.135
24.7719 2.821 0.127
24.7875 2.917 0.129
24.8031 2.547 0.120
24.8187 2.633 0.122
24.8343 2.690 0.124
24.8500 2.593 0.122
24.8656 2.718 0.124
24.8812 2.843 0.127
24.8968 2.997 0.131
24.9124 2.627 0.122
24.9280 2.484 0.119
24.9437 2.450 0.118
24.9593 2.450 0.118
24.9749 2.638 0.123
24.9905 2.570 0.121
25.0061 2.678 0.124
25.0217 2.541 0.120
25.0373 2.946 0.130
25.0530 2.741 0.125
25.0686 2.684 0.124
25.0842 2.929 0.129
25.0998 2.866 0.128
25.1154 2.650 0.123
25.1310 2.530 0.120
25.1466 2.678 0.124
25.1623 2.655 0.123
25.1779 2.678 0.124
25.1935 3.026 0.131
25.2091 2.735 0.125
25.2247 2.872 0.128
25.2403 2.786 0.126
25.2560 2.940 0.129
25.2716 2.992 0.131
25.2872 3.031 0.131
25.3028 2.969 0.130
25.3184 2.536 0.120
25.3340 2.735 0.125
25.3496 2.900 0.129
25.3653 3.128 0.134
25.3809 2.952 0.130
25.3965 2.992 0.131
25.4121 3.219 0.135
25.4277 3.299 0.137
25.4433 3.054 0.132
25.4589 3.077 0.132
25.4746 3.077 0.132
25.4902 3.430 0.140
25.5058 3.180 0.135
25.5214 3.453 0.140
25.5370 3.339 0.138
25.5526 3.596 0.143
25.5683 3.624 0.144
25.5839 3.436 0.140
25.5995 3.624 0.144
25.6151 3.635 0.144
25.6307 3.499 0.141
25.6463 3.419 0.140
25.6619 3.624 0.144
25.6776 3.539 0.142
25.6932 3.407 0.139
25.7088 4.000 0.151
25.7244 4.108 0.153
25.7400 3.977 0.151
25.7556 4.000 0.151
25.7713 3.846 0.148
25.7869 4.103 0.153
25.8025 4.200 0.155
25.8181 4.313 0.157
25.8337 4.245 0.156
25.8493 4.148 0.154
25.8649 3.989 0.151
25.8806 4.348 0.157
25.8962 4.228 0.155
25.9118 4.342 0.157
25.9274 4.097 0.153
25.9430 4.257 0.156
25.9586 4.228 0.155
25.9742 4.684 0.163
25.9899 4.615 0.162
26.0055 4.598 0.162
26.0211 4.747 0.164
26.0367 4.615 0.162
26.0523 4.615 0.162
26.0679 5.333 0.174
26.0836 4.906 0.167
26.0992 5.106 0.171
26.1148 5.049 0.170
26.1304 5.504 0.177
26.1460 5.926 0.184
26.1616 5.584 0.178
26.1772 5.732 0.181
26.1929 6.057 0.186
26.2085 6.621 0.194
26.2241 6.462 0.192
26.2397 7.020 0.200
26.2553 7.732 0.210
26.2709 7.932 0.213
26.2865 8.262 0.217
26.3022 8.428 0.219
26.3178 9.197 0.229
26.3334 9.134 0.228
26.3490 10.473 0.244
26.3646 10.678 0.247
26.3802 11.710 0.258
26.3959 12.496 0.267
26.4115 13.282 0.275
26.4271 14.000 0.282
26.4427 16.194 0.304
26.4583 17.693 0.318
26.4739 20.861 0.345
26.4895 24.627 0.375
26.5052 29.887 0.413
26.5208 36.468 0.456
26.5364 45.306 0.508
26.5520 59.614 0.583
26.5676 81.557 0.682
26.5832 109.712 0.791
26.5989 151.793 0.930
26.6145 194.232 1.052
26.6301 222.512 1.126
26.6457 205.800 1.083
26.6613 167.086 0.976
26.6769 139.895 0.893
26.6925 128.698 0.856
26.7082 112.071 0.799
26.7238 80.241 0.676
26.7394 51.192 0.540
26.7550 34.103 0.441
26.7706 25.117 0.378
26.7862 20.371 0.341
26.8018 17.681 0.317
26.8175 15.710 0.299
26.8331 14.399 0.286
26.8487 12.975 0.272
26.8643 12.513 0.267
26.8799 10.701 0.247
26.8955 10.741 0.247
26.9112 9.647 0.234
26.9268 9.687 0.235
26.9424 9.334 0.231
26.9580 9.077 0.227
26.9736 8.963 0.226
26.9892 9.014 0.227
27.0048 8.906 0.225
27.0205 8.946 0.226
27.0361 8.975 0.226
27.0517 9.089 0.228
27.0673 9.516 0.233
27.0829 9.693 0.235
27.0985 9.772 0.236
27.1141 10.593 0.246
27.1298 10.775 0.248
27.1454 11.014 0.251
27.1610 11.487 0.256
27.1766 12.097 0.263
27.1922 12.775 0.270
27.2078 13.294 0.275
27.2235 14.980 0.292
27.2391 16.137 0.303
27.2547 18.479 0.324
27.2703 21.226 0.348
27.2859 25.397 0.380
27.3015 30.816 0.419
27.3171 37.887 0.465
27.3328 47.705 0.521
27.3484 62.252 0.596
27.3640 82.179 0.684
27.3796 108.903 0.788
27.3952 138.761 0.889
27.4108 169.349 0.982
27.4265 187.007 1.032
27.4421 181.543 1.017
27.4577 164.448 0.968
27.4733 144.402 0.907
27.4889 125.399 0.845
27.5045 109.165 0.789
27.5201 87.028 0.704
27.5358 64.634 0.607
27.5514 46.098 0.513
27.5670 33.972 0.440
27.5826 26.080 0.385
27.5982 20.810 0.344
27.6138 18.023 0.320
27.6294 15.619 0.298
27.6451 13.778 0.280
27.6607 11.453 0.255
27.6763 11.254 0.253
27.6919 10.074 0.240
27.7075 9.299 0.230
27.7231 8.576 0.221
27.7388 8.069 0.214
27.7544 7.573 0.208
27.7700 7.476 0.206
27.7856 6.918 0.199
27.8012 6.678 0.195
27.8168 6.433 0.191
27.8324 5.903 0.183
27.8481 5.482 0.177
27.8637 5.413 0.176
27.8793 5.630 0.179
27.8949 5.390 0.175
27.9105 5.083 0.170
27.9261 5.088 0.170
27.9417 4.741 0.164
27.9574 5.094 0.170
27.9730 5.157 0.171
27.9886 4.450 0.159
28.0042 4.484 0.160
28.0198 4.308 0.157
28.0354 4.114 0.153
28.0511 4.370 0.158
28.0667 4.245 0.156
28.0823 4.450 0.159
28.0979 4.194 0.155
28.1135 4.137 0.154
28.1291 4.114 0.153
28.1447 3.943 0.150
28.1604 3.841 0.148
28.1760 3.618 0.144
28.1916 3.909 0.149
28.2072 3.869 0.148
28.2228 3.596 0.143
28.2384 3.801 0.147
28.2541 3.624 0.144
28.2697 3.806 0.147
28.2853 3.282 0.137
28.3009 3.738 0.146
28.3165 3.898 0.149
28.3321 3.658 0.144
28.3477 3.653 0.144
28.3634 3.379 0.139
28.3790 3.698 0.145
28.3946 3.516 0.142
28.4102 3.459 0.140
28.4258 3.482 0.141
28.4414 3.556 0.142
28.4570 3.339 0.138
28.4727 3.413 0.139
28.4883 3.373 0.139
28.5039 3.316 0.137
28.5195 3.385 0.139
28.5351 3.527 0.142
28.5507 3.282 0.137
28.5664 3.373 0.139
28.5820 3.516 0.142
28.5976 3.373 0.139
28.6132 3.294 0.137
28.6288 3.322 0.138
28.6444 2.997 0.131
28.6600 3.202 0.135
28.6757 2.849 0.127
28.6913 3.202 0.135
28.7069 3.407 0.139
28.7225 2.986 0.130
28.7381 3.071 0.132
28.7537 3.094 0.133
28.7694 3.031 0.131
28.7850 3.168 0.134
28.8006 3.071 0.132
28.8162 2.969 0.130
28.8318 3.105 0.133
28.8474 3.066 0.132
28.8630 3.105 0.133
28.8787 3.105 0.133
28.8943 2.963 0.130
28.9099 3.174 0.134
28.9255 2.980 0.130
28.9411 2.724 0.125
28.9567 3.020 0.131
28.9723 2.849 0.127
28.9880 2.889 0.128
29.0036 3.219 0.135
29.0192 2.815 0.127
29.0348 2.889 0.128
29.0504 2.855 0.128
29.0660 3.134 0.134
29.0817 2.974 0.130
29.0973 2.969 0.130
29.1129 2.900 0.129
29.1285 2.872 0.128
29.1441 3.088 0.133
29.1597 3.003 0.131
29.1753 2.878 0.128
29.1910 2.741 0.125
29.2066 2.872 0.128
29.2222 2.735 0.125
29.2378 2.781 0.126
29.2534 2.798 0.126
29.2690 2.593 0.122
29.2846 2.781 0.126
29.3003 2.661 0.123
29.3159 2.860 0.128
29.3315 2.638 0.123
29.3471 2.741 0.125
29.3627 2.883 0.128
29.3783 3.242 0.136
29.3940 2.923 0.129
29.4096 2.826 0.127
29.4252 2.433 0.118
29.4408 2.627 0.122
29.4564 2.724 0.125
29.4720 2.786 0.126
29.4876 2.741 0.125
29.5033 2.661 0.123
29.5189 2.735 0.125
29.5345 2.821 0.127
29.5501 2.667 0.123
29.5657 2.724 0.125
29.5813 2.467 0.119
29.5970 2.752 0.125
29.6126 2.598 0.122
29.6282 2.593 0.122
29.6438 2.604 0.122
29.6594 2.667 0.123
29.6750 2.724 0.125
29.6906 2.803 0.126
29.7063 2.661 0.123
29.7219 2.507 0.120
29.7375 2.883 0.128
29.7531 2.701 0.124
29.7687 2.393 0.117
29.7843 2.308 0.115
29.7999 2.473 0.119
29.8156 2.621 0.122
29.8312 2.615 0.122
29.8468 2.564 0.121
29.8624 2.615 0.122
29.8780 2.724 0.125
29.8936 2.484 0.119
29.9093 2.598 0.122
29.9249 2.530 0.120
29.9405 2.610 0.122
29.9561 2.382 0.116
29.9717 2.462 0.118
29.9873 2.655 0.123
30.0029 2.633 0.122
30.0186 2.581 0.121
30.0342 2.239 0.113
30.0498 2.222 0.113
30.0654 2.536 0.120
30.0810 2.576 0.121
30.0966 2.581 0.121
30.1122 2.519 0.120
30.1279 2.667 0.123
30.1435 2.450 0.118
30.1591 2.467 0.119
30.1747 2.410 0.117
30.1903 2.427 0.118
30.2059 2.251 0.113
30.2216 2.388 0.117
30.2372 2.524 0.120
30.2528 2.479 0.119
30.2684 2.302 0.115
30.2840 2.530 0.120
30.2996 2.558 0.121
30.3152 2.342 0.116
30.3309 2.353 0.116
30.3465 2.194 0.112
30.3621 2.439 0.118
30.3777 2.621 0.122
30.3933 2.536 0.120
30.4089 2.416 0.117
30.4246 2.467 0.119
30.4402 2.564 0.121
30.4558 2.490 0.119
30.4714 2.467 0.119
30.4870 2.353 0.116
30.5026 2.348 0.116
30.5182 2.308 0.115
30.5339 2.712 0.124
30.5495 2.399 0.117
30.5651 2.342 0.116
30.5807 2.285 0.114
30.5963 2.541 0.120
30.6119 2.427 0.118
30.6275 2.205 0.112
30.6432 2.405 0.117
30.6588 2.234 0.113
30.6744 2.484 0.119
30.6900 2.291 0.114
30.7056 2.296 0.114
30.7212 2.251 0.113
30.7369 2.365 0.116
30.7525 2.148 0.111
30.7681 2.388 0.117
30.7837 2.353 0.116
30.7993 2.217 0.112
30.8149 2.239 0.113
30.8305 2.228 0.113
30.8462 2.393 0.117
30.8618 2.285 0.114
30.8774 2.063 0.108
30.8930 2.462 0.118
30.9086 2.467 0.119
30.9242 2.439 0.118
30.9398 2.336 0.115
30.9555 2.490 0.119
30.9711 2.336 0.115
30.9867 2.410 0.117
31.0023 2.422 0.117
31.0179 2.285 0.114
31.0335 2.245 0.113
31.0492 2.530 0.120
31.0648 2.068 0.109
31.0804 2.160 0.111
31.0960 2.302 0.115
31.1116 2.251 0.113
31.1272 2.296 0.114
31.1428 2.376 0.116
31.1585 2.308 0.115
31.1741 2.410 0.117
31.1897 2.365 0.116
31.2053 2.308 0.115
31.2209 2.234 0.113
31.2365 2.222 0.113
31.2522 2.154 0.111
31.2678 2.222 0.113
31.2834 2.490 0.119
31.2990 2.308 0.115
31.3146 2.262 0.114
31.3302 2.399 0.117
31.3458 2.393 0.117
31.3615 2.205 0.112
31.3771 2.142 0.110
31.3927 2.148 0.111
31.4083 2.268 0.114
31.4239 2.199 0.112
31.4395 2.256 0.113
31.4551 2.063 0.108
31.4708 1.977 0.106
31.4864 2.285 0.114
31.5020 2.165 0.111
31.5176 2.142 0.110
31.5332 2.199 0.112
31.5488 2.137 0.110
31.5645 2.137 0.110
31.5801 2.245 0.113
31.5957 2.194 0.112
31.6113 2.308 0.115
31.6269 1.983 0.106
31.6425 1.983 0.106
31.6581 2.302 0.115
31.6738 2.154 0.111
31.6894 2.154 0.111
31.7050 2.228 0.113
31.7206 1.989 0.106
31.7362 2.211 0.112
31.7518 2.108 0.110
31.7674 2.239 0.113
31.7831 2.160 0.111
31.7987 2.331 0.115
31.8143 2.256 0.113
31.8299 2.074 0.109
31.8455 2.051 0.108
31.8611 2.199 0.112
31.8768 2.154 0.111
31.8924 1.983 0.106
31.9080 2.108 0.110
31.9236 2.029 0.108
31.9392 2.342 0.116
31.9548 1.915 0.104
31.9704 1.943 0.105
31.9861 2.182 0.112
32.0017 2.120 0.110
32.0173 2.177 0.111
32.0329 2.011 0.107
32.0485 2.029 0.108
32.0641 2.103 0.109
32.0798 2.029 0.108
32.0954 2.063 0.108
32.1110 2.182 0.112
32.1266 2.165 0.111
32.1422 2.023 0.107
32.1578 2.199 0.112
32.1734 2.097 0.109
32.1891 2.182 0.112
32.2047 1.932 0.105
32.2203 2.023 0.107
32.2359 2.108 0.110
32.2515 2.051 0.108
32.2671 2.068 0.109
32.2827 2.057 0.108
32.2984 2.086 0.109
32.3140 2.011 0.107
32.3296 2.376 0.116
32.3452 1.966 0.106
32.3608 2.114 0.110
32.3764 2.040 0.108
32.3921 1.915 0.104
32.4077 2.040 0.108
32.4233 2.023 0.107
32.4389 2.348 0.116
32.4545 2.165 0.111
32.4701 2.103 0.109
32.4857 2.228 0.113
32.5014 2.097 0.109
32.5170 2.080 0.109
32.5326 2.125 0.110
32.5482 2.051 0.108
32.5638 2.063 0.108
32.5794 1.949 0.105
32.5950 2.080 0.109
32.6107 1.909 0.104
32.6263 1.789 0.101
32.6419 2.040 0.108
32.6575 2.040 0.108
32.6731 1.886 0.104
32.6887 1.966 0.106
32.7044 2.222 0.113
32.7200 1.932 0.105
32.7356 2.091 0.109
32.7512 1.972 0.106
32.7668 2.103 0.109
32.7824 1.954 0.106
32.7980 1.886 0.104
32.8137 2.091 0.109
32.8293 1.858 0.103
32.8449 1.897 0.104
32.8605 2.023 0.107
32.8761 2.091 0.109
32.8917 2.125 0.110
32.9074 2.040 0.108
32.9230 2.268 0.114
32.9386 1.977 0.106
32.9542 2.103 0.109
32.9698 1.892 0.104
32.9854 1.915 0.104
33.0010 2.040 0.108
33.0167 1.932 0.105
33.0323 1.960 0.106
33.0479 2.120 0.110
33.0635 2.063 0.108
33.0791 1.943 0.105
33.0947 1.852 0.103
33.1103 2.029 0.108
33.1260 1.989 0.106
33.1416 2.080 0.109
33.1572 1.954 0.106
33.1728 1.846 0.103
33.1884 2.011 0.107
33.2040 2.068 0.109
33.2197 1.949 0.105
33.2353 2.091 0.109
33.2509 2.097 0.109
33.2665 2.051 0.108
33.2821 2.120 0.110
33.2977 1.801 0.101
33.3133 2.160 0.111
33.3290 1.818 0.102
33.3446 1.994 0.107
33.3602 2.057 0.108
33.3758 1.966 0.106
33.3914 1.858 0.103
33.4070 2.068 0.109
33.4227 2.006 0.107
33.4383 2.091 0.109
33.4539 1.880 0.104
33.4695 1.812 0.102
33.4851 1.915 0.104
33.5007 1.892 0.104
33.5163 2.154 0.111
33.5320 1.818 0.102
33.5476 2.068 0.109
33.5632 2.040 0.108
33.5788 1.920 0.105
33.5944 2.017 0.107
33.6100 1.880 0.104
33.6256 2.051 0.108
33.6413 1.886 0.104
33.6569 2.097 0.109
33.6725 1.983 0.106
33.6881 1.755 0.100
33.7037 1.909 0.104
33.7193 2.011 0.107
33.7350 1.932 0.105
33.7506 1.926 0.105
33.7662 1.949 0.105
33.7818 1.943 0.105
33.7974 1.806 0.101
33.8130 1.875 0.103
33.8286 1.926 0.105
33.8443 1.766 0.100
33.8599 2.142 0.110
33.8755 1.909 0.104
33.8911 1.966 0.106
33.9067 1.869 0.103
33.9223 2.046 0.108
33.9379 2.011 0.107
33.9536 1.892 0.104
33.9692 1.897 0.104
33.9848 1.892 0.104
34.0004 1.949 0.105
34.0160 2.074 0.109
34.0316 1.875 0.103
34.0473 2.029 0.108
34.0629 2.034 0.108
34.0785 1.915 0.104
34.0941 1.926 0.105
34.1097 1.801 0.101
34.1253 1.875 0.103
34.1409 1.932 0.105
34.1566 1.829 0.102
34.1722 1.829 0.102
34.1878 2.188 0.112
34.2034 1.875 0.103
34.2190 1.943 0.105
34.2346 2.114 0.110
34.2503 2.017 0.107
34.2659 1.960 0.106
34.2815 1.954 0.106
34.2971 1.886 0.104
34.3127 1.766 0.100
34.3283 1.858 0.103
34.3439 1.840 0.102
34.3596 2.063 0.108
34.3752 2.074 0.109
34.3908 1.949 0.105
34.4064 1.858 0.103
34.4220 2.074 0.109
34.4376 1.880 0.104
34.4532 2.103 0.109
34.4689 1.875 0.103
34.4845 2.000 0.107
34.5001 1.897 0.104
34.5157 1.886 0.104
34.5313 2.029 0.108
34.5469 2.131 0.110
34.5626 1.852 0.103
34.5782 2.205 0.112
34.5938 1.960 0.106
34.6094 1.972 0.106
34.6250 1.937 0.105
34.6406 2.103 0.109
34.6562 1.886 0.104
34.6719 2.205 0.112
34.6875 2.103 0.109
34.7031 2.051 0.108
34.7187 2.023 0.107
34.7343 2.131 0.110
34.7499 2.097 0.109
34.7655 2.251 0.113
34.7812 2.199 0.112
34.7968 2.029 0.108
34.8124 2.256 0.113
34.8280 2.057 0.108
34.8436 2.251 0.113
34.8592 2.336 0.115
34.8749 2.422 0.117
34.8905 2.405 0.117
34.9061 2.410 0.117
34.9217 2.325 0.115
34.9373 2.490 0.119
34.9529 2.775 0.126
34.9685 2.547 0.120
34.9842 2.501 0.119
34.9998 2.507 0.120
35.0154 2.604 0.122
35.0310 2.439 0.118
35.0466 2.974 0.130
35.0622 3.020 0.131
35.0779 2.701 0.124
35.0935 2.598 0.122
35.1091 2.832 0.127
35.1247 3.214 0.135
35.1403 3.026 0.131
35.1559 2.929 0.129
35.1715 2.758 0.125
35.1872 2.935 0.129
35.2028 2.741 0.125
35.2184 2.838 0.127
35.2340 2.917 0.129
35.2496 2.764 0.125
35.2652 2.826 0.127
35.2808 2.815 0.127
35.2965 2.690 0.124
35.3121 2.655 0.123
35.3277 2.416 0.117
35.3433 2.633 0.122
35.3589 2.530 0.120
35.3745 2.667 0.123
35.3902 2.479 0.119
35.4058 2.473 0.119
35.4214 2.712 0.124
35.4370 2.980 0.130
35.4526 2.701 0.124
35.4682 2.610 0.122
35.4838 2.530 0.120
35.4995 2.735 0.125
35.5151 2.684 0.124
35.5307 2.798 0.126
35.5463 2.695 0.124
35.5619 2.724 0.125
35.5775 2.957 0.130
35.5931 2.935 0.129
35.6088 3.111 0.133
35.6244 2.923 0.129
35.6400 3.174 0.134
35.6556 2.974 0.130
35.6712 3.316 0.137
35.6868 3.396 0.139
35.7025 3.516 0.142
35.7181 3.755 0.146
35.7337 4.011 0.151
35.7493 3.755 0.146
35.7649 4.154 0.154
35.7805 4.433 0.159
35.7961 5.066 0.170
35.8118 5.123 0.171
35.8274 5.316 0.174
35.8430 5.801 0.182
35.8586 6.331 0.190
35.8742 6.519 0.193
35.8898 7.909 0.212
35.9055 7.738 0.210
35.9211 9.681 0.235
35.9367 10.485 0.244
35.9523 13.265 0.275
35.9679 15.818 0.300
35.9835 20.565 0.342
35.9991 26.622 0.389
36.0148 36.525 0.456
36.0304 49.084 0.529
36.0460 62.862 0.598
36.0616 74.213 0.650
36.0772 76.304 0.659
36.0928 70.976 0.636
36.1084 59.523 0.582
36.1241 51.807 0.543
36.1397 49.357 0.530
36.1553 47.921 0.523
36.1709 44.975 0.506
36.1865 36.588 0.457
36.2021 28.388 0.402
36.2178 20.434 0.341
36.2334 15.328 0.296
36.2490 11.675 0.258
36.2646 9.960 0.238
36.2802 8.422 0.219
36.2958 8.040 0.214
36.3114 6.883 0.198
36.3271 6.513 0.193
36.3427 5.784 0.182
36.3583 5.430 0.176
36.3739 5.379 0.175
36.3895 4.997 0.169
36.4051 5.658 0.180
36.4207 5.322 0.174
36.4364 5.715 0.180
36.4520 6.365 0.190
36.4676 6.952 0.199
36.4832 8.485 0.220
36.4988 10.712 0.247
36.5144 13.852 0.281
36.5301 15.214 0.294
36.5457 15.858 0.301
36.5613 13.396 0.276
36.5769 10.804 0.248
36.5925 9.111 0.228
36.6081 9.573 0.234
36.6237 9.744 0.236
36.6394 9.231 0.229
36.6550 7.636 0.209
36.6706 6.467 0.192
36.6862 4.997 0.169
36.7018 4.239 0.155
36.7174 3.425 0.140
36.7331 3.225 0.136
36.7487 3.151 0.134
36.7643 3.031 0.131
36.7799 2.838 0.127
36.7955 3.054 0.132
36.8111 2.992 0.131
36.8267 2.610 0.122
36.8424 2.764 0.125
36.8580 2.473 0.119
36.8736 2.365 0.116
36.8892 2.490 0.119
36.9048 2.501 0.119
36.9204 2.627 0.122
36.9360 2.570 0.121
36.9517 2.365 0.116
36.9673 2.359 0.116
36.9829 2.439 0.118
36.9985 2.336 0.115
37.0141 2.239 0.113
37.0297 1.977 0.106
37.0454 2.433 0.118
37.0610 2.188 0.112
37.0766 2.302 0.115
37.0922 2.068 0.109
37.1078 2.160 0.111
37.1234 2.348 0.116
37.1390 2.274 0.114
37.1547 2.199 0.112
37.1703 2.063 0.108
37.1859 1.994 0.107
37.2015 2.074 0.109
37.2171 2.086 0.109
37.2327 1.886 0.104
37.2483 1.983 0.106
37.2640 1.858 0.103
37.2796 1.954 0.106
37.2952 1.869 0.103
37.3108 2.086 0.109
37.3264 1.920 0.105
37.3420 1.943 0.105
37.3577 2.000 0.107
37.3733 1.801 0.101
37.3889 1.966 0.106
37.4045 2.011 0.107
37.4201 2.063 0.108
37.4357 1.789 0.101
37.4513 1.989 0.106
37.4670 2.137 0.110
37.4826 1.846 0.103
37.4982 2.086 0.109
37.5138 1.977 0.106
37.5294 2.308 0.115
37.5450 2.034 0.108
37.5607 2.080 0.109
37.5763 1.829 0.102
37.5919 2.097 0.109
37.6075 1.989 0.106
37.6231 1.960 0.106
37.6387 1.977 0.106
37.6543 1.846 0.103
37.6700 1.994 0.107
37.6856 2.097 0.109
37.7012 1.977 0.106
37.7168 2.091 0.109
37.7324 2.103 0.109
37.7480 2.222 0.113
37.7636 2.165 0.111
37.7793 2.211 0.112
37.7949 2.256 0.113
37.8105 2.188 0.112
37.8261 2.097 0.109
37.8417 2.182 0.112
37.8573 2.125 0.110
37.8730 2.097 0.109
37.8886 1.869 0.103
37.9042 2.205 0.112
37.9198 2.074 0.109
37.9354 1.852 0.103
37.9510 1.869 0.103
37.9666 1.846 0.103
37.9823 1.915 0.104
37.9979 1.932 0.105
38.0135 1.915 0.104
38.0291 1.949 0.105
38.0447 1.875 0.103
38.0603 2.051 0.108
38.0759 1.960 0.106
38.0916 2.068 0.109
38.1072 1.886 0.104
38.1228 1.744 0.100
38.1384 1.886 0.104
38.1540 1.926 0.105
38.1696 2.108 0.110
38.1853 1.766 0.100
38.2009 2.080 0.109
38.2165 1.943 0.105
38.2321 1.789 0.101
38.2477 1.806 0.101
38.2633 2.040 0.108
38.2789 1.761 0.100
38.2946 1.937 0.105
38.3102 1.909 0.104
38.3258 1.937 0.105
38.3414 2.034 0.108
38.3570 1.932 0.105
38.3726 1.835 0.102
38.3883 1.818 0.102
38.4039 1.943 0.105
38.4195 1.732 0.099
38.4351 1.755 0.100
38.4507 2.108 0.110
38.4663 1.977 0.106
38.4819 1.869 0.103
38.4976 1.869 0.103
38.5132 1.829 0.102
38.5288 1.897 0.104
38.5444 1.664 0.097
38.5600 1.812 0.102
38.5756 1.823 0.102
38.5912 1.641 0.097
38.6069 1.806 0.101
38.6225 1.920 0.105
38.6381 1.960 0.106
38.6537 1.835 0.102
38.6693 1.749 0.100
38.6849 1.715 0.099
38.7006 1.818 0.102
38.7162 1.812 0.102
38.7318 1.755 0.100
38.7474 2.080 0.109
38.7630 1.818 0.102
38.7786 1.766 0.100
38.7942 2.171 0.111
38.8099 1.932 0.105
38.8255 2.142 0.110
38.8411 2.029 0.108
38.8567 2.171 0.111
38.8723 2.051 0.108
38.8879 2.234 0.113
38.9036 2.194 0.112
38.9192 2.348 0.116
38.9348 2.496 0.119
38.9504 2.370 0.116
38.9660 2.496 0.119
38.9816 2.405 0.117
38.9972 2.895 0.128
39.0129 2.809 0.127
39.0285 3.100 0.133
39.0441 3.419 0.140
39.0597 3.544 0.142
39.0753 3.920 0.149
39.0909 4.137 0.154
39.1065 5.049 0.170
39.1222 6.177 0.188
39.1378 7.613 0.208
39.1534 9.373 0.231
39.1690 11.077 0.251
39.1846 11.812 0.259
39.2002 11.003 0.250
39.2159 10.553 0.245
39.2315 8.929 0.226
39.2471 8.222 0.216
39.2627 8.718 0.223
39.2783 7.949 0.213
39.2939 8.439 0.219
39.3095 7.675 0.209
39.3252 6.228 0.188
39.3408 5.852 0.183
39.3564 5.413 0.176
39.3720 5.647 0.179
39.3876 6.057 0.186
39.4032 7.031 0.200
39.4188 9.094 0.228
39.4345 11.180 0.252
39.4501 13.824 0.281
39.4657 14.137 0.284
39.4813 11.932 0.261
39.4969 9.607 0.234
39.5125 7.413 0.206
39.5282 7.214 0.203
39.5438 7.960 0.213
39.5594 8.348 0.218
39.5750 8.097 0.215
39.5906 6.120 0.187
39.6062 4.809 0.166
39.6218 3.624 0.144
39.6375 3.311 0.137
39.6531 3.037 0.132
39.6687 2.883 0.128
39.6843 2.456 0.118
39.6999 2.422 0.117
39.7155 2.467 0.119
39.7312 2.256 0.113
39.7468 2.410 0.117
39.7624 2.450 0.118
39.7780 2.388 0.117
39.7936 2.393 0.117
39.8092 2.325 0.115
39.8248 2.331 0.115
39.8405 2.370 0.116
39.8561 2.217 0.112
39.8717 2.068 0.109
39.8873 2.165 0.111
39.9029 2.279 0.114
39.9185 2.125 0.110
39.9341 2.131 0.110
39.9498 2.000 0.107
39.9654 1.994 0.107
39.9810 2.234 0.113
39.9966 2.074 0.109
40.0122 2.165 0.111
40.0278 2.228 0.113
40.0435 2.325 0.115
40.0591 2.228 0.113
40.0747 2.513 0.120
40.0903 2.148 0.111
40.1059 2.519 0.120
40.1215 2.547 0.120
40.1371 2.570 0.121
40.1528 2.701 0.124
40.1684 2.912 0.129
40.1840 2.883 0.128
40.1996 3.248 0.136
40.2152 3.692 0.145
40.2308 4.382 0.158
40.2464 5.356 0.175
40.2621 6.866 0.198
40.2777 7.943 0.213
40.2933 7.704 0.210
40.3089 6.764 0.196
40.3245 5.601 0.179
40.3401 4.502 0.160
40.3558 4.701 0.164
40.3714 5.151 0.171
40.3870 5.237 0.173
40.4026 4.752 0.165
40.4182 3.852 0.148
40.4338 3.294 0.137
40.4494 2.792 0.126
40.4651 2.553 0.121
40.4807 2.513 0.120
40.4963 2.274 0.114
40.5119 2.376 0.116
40.5275 2.262 0.114
40.5431 2.091 0.109
40.5588 2.034 0.108
40.5744 2.091 0.109
40.5900 2.057 0.108
40.6056 2.137 0.110
40.6212 1.989 0.106
40.6368 2.034 0.108
40.6524 2.222 0.113
40.6681 1.932 0.105
40.6837 1.932 0.105
40.6993 2.108 0.110
40.7149 2.222 0.113
40.7305 2.148 0.111
40.7461 2.000 0.107
40.7617 2.011 0.107
40.7774 2.103 0.109
40.7930 2.228 0.113
40.8086 2.393 0.117
40.8242 2.291 0.114
40.8398 2.433 0.118
40.8554 2.547 0.120
40.8711 2.439 0.118
40.8867 2.382 0.116
40.9023 2.655 0.123
40.9179 2.747 0.125
40.9335 2.923 0.129
40.9491 2.655 0.123
40.9647 3.202 0.135
40.9804 3.322 0.138
40.9960 3.271 0.137
41.0116 3.709 0.145
41.0272 3.590 0.143
41.0428 4.308 0.157
41.0584 4.177 0.154
41.0740 5.043 0.170
41.0897 5.231 0.173
41.1053 5.584 0.178
41.1209 7.049 0.200
41.1365 8.701 0.223
41.1521 10.940 0.250
41.1677 14.912 0.291
41.1834 19.584 0.334
41.1990 27.476 0.396
41.2146 33.927 0.440
41.2302 37.277 0.461
41.2458 36.086 0.453
41.2614 31.408 0.423
41.2770 25.009 0.377
41.2927 21.898 0.353
41.3083 21.157 0.347
41.3239 22.855 0.361
41.3395 22.377 0.357
41.3551 19.972 0.337
41.3707 15.795 0.300
41.3864 12.034 0.262
41.4020 8.570 0.221
41.4176 7.009 0.200
41.4332 5.476 0.177
41.4488 4.889 0.167
41.4644 3.920 0.149
41.4800 3.539 0.142
41.4957 3.453 0.140
41.5113 3.214 0.135
41.5269 3.248 0.136
41.5425 2.775 0.126
41.5581 2.781 0.126
41.5737 2.667 0.123
41.5893 2.359 0.116
41.6050 2.433 0.118
41.6206 2.199 0.112
41.6362 2.080 0.109
41.6518 2.296 0.114
41.6674 2.245 0.113
41.6830 2.194 0.112
41.6987 2.154 0.111
41.7143 2.217 0.112
41.7299 2.177 0.111
41.7455 2.080 0.109
41.7611 2.154 0.111
41.7767 2.063 0.108
41.7923 2.125 0.110
41.8080 1.954 0.106
41.8236 1.926 0.105
41.8392 2.046 0.108
41.8548 2.068 0.109
41.8704 2.160 0.111
41.8860 2.034 0.108
41.9016 1.863 0.103
41.9173 1.858 0.103
41.9329 1.966 0.106
41.9485 2.011 0.107
41.9641 1.994 0.107
41.9797 1.897 0.104
41.9953 2.000 0.107
42.0110 2.234 0.113
42.0266 2.160 0.111
42.0422 1.818 0.102
42.0578 1.949 0.105
42.0734 2.182 0.112
42.0890 2.256 0.113
42.1046 1.989 0.106
42.1203 2.074 0.109
42.1359 1.795 0.101
42.1515 1.943 0.105
42.1671 2.239 0.113
42.1827 1.943 0.105
42.1983 2.120 0.110
42.2140 2.256 0.113
42.2296 2.171 0.111
42.2452 2.382 0.116
42.2608 2.382 0.116
42.2764 2.325 0.115
42.2920 2.541 0.120
42.3076 2.724 0.125
42.3233 2.980 0.130
42.3389 3.066 0.132
42.3545 3.464 0.141
42.3701 4.200 0.155
42.3857 4.855 0.166
42.4013 6.359 0.190
42.4169 8.342 0.218
42.4326 10.074 0.240
42.4482 10.331 0.243
42.4638 9.060 0.227
42.4794 6.895 0.198
42.4950 5.504 0.177
42.5106 5.219 0.172
42.5263 5.852 0.183
42.5419 6.069 0.186
42.5575 6.559 0.193
42.5731 5.932 0.184
42.5887 4.849 0.166
42.6043 3.561 0.142
42.6199 2.781 0.126
42.6356 2.667 0.123
42.6512 2.490 0.119
42.6668 2.365 0.116
42.6824 2.205 0.112
42.6980 2.029 0.108
42.7136 2.182 0.112
42.7292 2.165 0.111
42.7449 2.080 0.109
42.7605 2.000 0.107
42.7761 1.687 0.098
42.7917 2.131 0.110
42.8073 1.880 0.104
42.8229 1.812 0.102
42.8386 1.863 0.103
42.8542 1.846 0.103
42.8698 1.915 0.104
42.8854 1.943 0.105
42.9010 1.932 0.105
42.9166 1.761 0.100
42.9322 2.006 0.107
42.9479 2.017 0.107
42.9635 1.915 0.104
42.9791 1.949 0.105
42.9947 1.778 0.101
43.0103 1.903 0.104
43.0259 1.966 0.106
43.0416 1.915 0.104
43.0572 1.823 0.102
43.0728 1.795 0.101
43.0884 1.880 0.104
43.1040 1.994 0.107
43.1196 2.023 0.107
43.1352 1.943 0.105
43.1509 2.142 0.110
43.1665 1.966 0.106
43.1821 2.086 0.109
43.1977 1.994 0.107
43.2133 2.057 0.108
43.2289 2.427 0.118
43.2445 2.103 0.109
43.2602 2.445 0.118
43.2758 2.205 0.112
43.2914 2.462 0.118
43.3070 2.479 0.119
43.3226 2.365 0.116
43.3382 2.313 0.115
43.3539 2.319 0.115
43.3695 2.376 0.116
43.3851 2.627 0.122
43.4007 2.336 0.115
43.4163 2.251 0.113
43.4319 2.131 0.110
43.4475 2.194 0.112
43.4632 2.177 0.111
43.4788 2.108 0.110
43.4944 2.120 0.110
43.5100 2.006 0.107
43.5256 1.949 0.105
43.5412 2.285 0.114
43.5568 2.063 0.108
43.5725 2.074 0.109
43.5881 1.875 0.103
43.6037 1.806 0.101
43.6193 1.897 0.104
43.6349 2.097 0.109
43.6505 1.897 0.104
43.6662 2.063 0.108
43.6818 1.949 0.105
43.6974 1.858 0.103
43.7130 1.994 0.107
43.7286 1.966 0.106
43.7442 2.171 0.111
43.7598 2.205 0.112
43.7755 1.972 0.106
43.7911 2.068 0.109
43.8067 2.279 0.114
43.8223 2.370 0.116
43.8379 2.513 0.120
43.8535 2.678 0.124
43.8692 2.667 0.123
43.8848 3.088 0.133
43.9004 3.151 0.134
43.9160 3.425 0.140
43.9316 4.000 0.151
43.9472 4.467 0.160
43.9628 5.618 0.179
43.9785 7.094 0.201
43.9941 9.168 0.229
44.0097 10.975 0.250
44.0253 12.581 0.268
44.0409 13.077 0.273
44.0565 12.844 0.271
44.0721 10.240 0.242
44.0878 8.832 0.224
44.1034 8.245 0.217
44.1190 7.926 0.213
44.1346 7.903 0.212
44.1502 8.410 0.219
44.1658 7.806 0.211
44.1815 6.769 0.196
44.1971 5.299 0.174
44.2127 4.228 0.155
44.2283 3.356 0.138
44.2439 3.180 0.135
44.2595 2.604 0.122
44.2751 2.513 0.120
44.2908 2.131 0.110
44.3064 2.228 0.113
44.3220 2.017 0.107
44.3376 1.835 0.102
44.3532 2.029 0.108
44.3688 1.937 0.105
44.3845 1.960 0.106
44.4001 1.755 0.100
44.4157 1.749 0.100
44.4313 1.823 0.102
44.4469 1.784 0.101
44.4625 1.698 0.098
44.4781 1.635 0.097
44.4938 1.658 0.097
44.5094 1.801 0.101
44.5250 1.573 0.095
44.5406 1.761 0.100
44.5562 1.641 0.097
44.5718 1.681 0.098
44.5874 1.464 0.091
44.6031 1.778 0.101
44.6187 1.664 0.097
44.6343 1.658 0.097
44.6499 1.840 0.102
44.6655 1.595 0.095
44.6811 1.692 0.098
44.6968 1.658 0.097
44.7124 1.652 0.097
44.7280 1.453 0.091
44.7436 1.709 0.099
44.7592 1.390 0.089
44.7748 1.442 0.091
44.7904 1.578 0.095
44.8061 1.510 0.093
44.8217 1.550 0.094
44.8373 1.584 0.095
44.8529 1.504 0.093
44.8685 1.544 0.094
44.8841 1.521 0.093
44.8997 1.544 0.094
44.9154 1.590 0.095
44.9310 1.556 0.094
44.9466 1.556 0.094
44.9622 1.556 0.094
44.9778 1.613 0.096
44.9934 1.561 0.094
45.0091 1.647 0.097
45.0247 1.567 0.094
45.0403 1.476 0.092
45.0559 1.356 0.088
45.0715 1.368 0.088
45.0871 1.430 0.090
45.1027 1.715 0.099
45.1184 1.521 0.093
45.1340 1.459 0.091
45.1496 1.453 0.091
45.1652 1.578 0.095
45.1808 1.362 0.088
45.1964 1.510 0.093
45.2121 1.379 0.089
45.2277 1.567 0.094
45.2433 1.482 0.092
45.2589 1.858 0.103
45.2745 1.652 0.097
45.2901 1.436 0.090
45.3057 1.635 0.097
45.3214 1.556 0.094
45.3370 1.470 0.092
45.3526 1.544 0.094
45.3682 1.533 0.093
45.3838 1.538 0.094
45.3994 1.727 0.099
45.4150 1.516 0.093
45.4307 1.556 0.094
45.4463 1.544 0.094
45.4619 1.647 0.097
45.4775 1.687 0.098
45.4931 1.607 0.096
45.5087 1.658 0.097
45.5244 1.618 0.096
45.5400 1.840 0.102
45.5556 1.755 0.100
45.5712 1.652 0.097
45.5868 1.829 0.102
45.6024 1.852 0.103
45.6180 1.766 0.100
45.6337 1.954 0.106
45.6493 2.006 0.107
45.6649 2.148 0.111
45.6805 2.274 0.114
45.6961 2.747 0.125
45.7117 2.735 0.125
45.7273 3.339 0.138
45.7430 4.342 0.157
45.7586 5.470 0.177
45.7742 6.405 0.191
45.7898 6.918 0.199
45.8054 6.490 0.192
45.8210 5.299 0.174
45.8367 4.063 0.152
45.8523 3.812 0.147
45.8679 3.618 0.144
45.8835 3.960 0.150
45.8991 4.559 0.161
45.9147 4.205 0.155
45.9303 3.664 0.144
45.9460 2.969 0.130
45.9616 2.342 0.116
45.9772 2.074 0.109
45.9928 2.080 0.109
46.0084 1.892 0.104
46.0240 1.886 0.104
46.0397 1.863 0.103
46.0553 1.749 0.100
46.0709 1.573 0.095
46.0865 1.738 0.100
46.1021 1.732 0.099
46.1177 1.556 0.094
46.1333 1.590 0.095
46.1490 1.516 0.093
46.1646 1.493 0.092
46.1802 1.333 0.087
46.1958 1.493 0.092
46.2114 1.396 0.089
46.2270 1.453 0.091
46.2426 1.442 0.091
46.2583 1.567 0.094
46.2739 1.385 0.089
46.2895 1.464 0.091
46.3051 1.305 0.086
46.3207 1.476 0.092
46.3363 1.499 0.092
46.3520 1.333 0.087
46.3676 1.487 0.092
46.3832 1.368 0.088
46.3988 1.482 0.092
46.4144 1.493 0.092
46.4300 1.459 0.091
46.4456 1.328 0.087
46.4613 1.459 0.091
46.4769 1.322 0.087
46.4925 1.413 0.090
46.5081 1.373 0.088
46.5237 1.288 0.086
46.5393 1.368 0.088
46.5549 1.373 0.088
46.5706 1.311 0.086
46.5862 1.299 0.086
46.6018 1.459 0.091
46.6174 1.248 0.084
46.6330 1.362 0.088
46.6486 1.350 0.088
46.6643 1.236 0.084
46.6799 1.459 0.091
46.6955 1.447 0.091
46.7111 1.430 0.090
46.7267 1.476 0.092
46.7423 1.333 0.087
46.7579 1.311 0.086
46.7736 1.345 0.088
46.7892 1.464 0.091
46.8048 1.510 0.093
46.8204 1.276 0.085
46.8360 1.362 0.088
46.8516 1.180 0.082
46.8673 1.407 0.090
46.8829 1.208 0.083
46.8985 1.328 0.087
46.9141 1.236 0.084
46.9297 1.362 0.088
46.9453 1.328 0.087
46.9609 1.311 0.086
46.9766 1.368 0.088
46.9922 1.390 0.089
47.0078 1.219 0.083
47.0234 1.356 0.088
47.0390 1.396 0.089
47.0546 1.407 0.090
47.0702 1.316 0.087
47.0859 1.385 0.089
47.1015 1.316 0.087
47.1171 1.333 0.087
47.1327 1.134 0.080
47.1483 1.470 0.092
47.1639 1.362 0.088
47.1796 1.402 0.089
47.1952 1.322 0.087
47.2108 1.219 0.083
47.2264 1.236 0.084
47.2420 1.259 0.085
47.2576 1.442 0.091
47.2732 1.573 0.095
47.2889 1.413 0.090
47.3045 1.402 0.089
47.3201 1.242 0.084
47.3357 1.288 0.086
47.3513 1.350 0.088
47.3669 1.288 0.086
47.3825 1.225 0.084
47.3982 1.293 0.086
47.4138 1.259 0.085
47.4294 1.476 0.092
47.4450 1.402 0.089
47.4606 1.339 0.087
47.4762 1.333 0.087
47.4919 1.282 0.085
47.5075 1.299 0.086
47.5231 1.254 0.085
47.5387 1.339 0.087
47.5543 1.231 0.084
47.5699 1.390 0.089
47.5855 1.282 0.085
47.6012 1.254 0.085
47.6168 1.333 0.087
47.6324 1.202 0.083
47.6480 1.362 0.088
47.6636 1.425 0.090
47.6792 1.493 0.092
47.6949 1.419 0.090
47.7105 1.299 0.086
47.7261 1.282 0.085
47.7417 1.094 0.079
47.7573 1.288 0.086
47.7729 1.282 0.085
47.7885 1.333 0.087
47.8042 1.339 0.087
47.8198 1.271 0.085
47.8354 1.373 0.088
47.8510 1.305 0.086
47.8666 1.293 0.086
47.8822 1.333 0.087
47.8978 1.219 0.083
47.9135 1.248 0.084
47.9291 1.214 0.083
47.9447 1.197 0.083
47.9603 1.345 0.088
47.9759 1.396 0.089
47.9915 1.214 0.083
48.0072 1.396 0.089
48.0228 1.396 0.089
48.0384 1.459 0.091
48.0540 1.407 0.090
48.0696 1.499 0.092
48.0852 1.282 0.085
48.1008 1.305 0.086
48.1165 1.521 0.093
48.1321 1.430 0.090
48.1477 1.476 0.092
48.1633 1.225 0.084
48.1789 1.328 0.087
48.1945 1.350 0.088
48.2101 1.333 0.087
48.2258 1.299 0.086
48.2414 1.396 0.089
48.2570 1.436 0.090
48.2726 1.373 0.088
48.2882 1.271 0.085
48.3038 1.236 0.084
48.3195 1.362 0.088
48.3351 1.328 0.087
48.3507 1.151 0.081
48.3663 1.482 0.092
48.3819 1.259 0.085
48.3975 1.333 0.087
48.4131 1.311 0.086
48.4288 1.339 0.087
48.4444 1.373 0.088
48.4600 1.464 0.091
48.4756 1.248 0.084
48.4912 1.316 0.087
48.5068 1.447 0.091
48.5225 1.516 0.093
48.5381 1.419 0.090
48.5537 1.487 0.092
48.5693 1.379 0.089
48.5849 1.350 0.088
48.6005 1.476 0.092
48.6161 1.373 0.088
48.6318 1.311 0.086
48.6474 1.254 0.085
48.6630 1.482 0.092
48.6786 1.430 0.090
48.6942 1.647 0.097
48.7098 1.744 0.100
48.7254 1.670 0.098
48.7411 1.647 0.097
48.7567 1.533 0.093
48.7723 1.607 0.096
48.7879 1.538 0.094
48.8035 1.339 0.087
48.8191 1.385 0.089
48.8348 1.362 0.088
48.8504 1.333 0.087
48.8660 1.311 0.086
48.8816 1.328 0.087
48.8972 1.573 0.095
48.9128 1.516 0.093
48.9284 1.407 0.090
48.9441 1.459 0.091
48.9597 1.447 0.091
48.9753 1.464 0.091
48.9909 1.396 0.089
49.0065 1.362 0.088
49.0221 1.464 0.091
49.0378 1.248 0.084
49.0534 1.402 0.089
49.0690 1.436 0.090
49.0846 1.345 0.088
49.1002 1.533 0.093
49.1158 1.556 0.094
49.1314 1.413 0.090
49.1471 1.362 0.088
49.1627 1.425 0.090
49.1783 1.407 0.090
49.1939 1.618 0.096
49.2095 1.538 0.094
49.2251 1.379 0.089
49.2407 1.493 0.092
49.2564 1.561 0.094
49.2720 1.499 0.092
49.2876 1.601 0.096
49.3032 1.293 0.086
49.3188 1.407 0.090
49.3344 1.544 0.094
49.3501 1.413 0.090
49.3657 1.453 0.091
49.3813 1.430 0.090
49.3969 1.453 0.091
49.4125 1.248 0.084
49.4281 1.527 0.093
49.4437 1.556 0.094
49.4594 1.527 0.093
49.4750 1.333 0.087
49.4906 1.521 0.093
49.5062 1.567 0.094
49.5218 1.333 0.087
49.5374 1.561 0.094
49.5530 1.510 0.093
49.5687 1.504 0.093
49.5843 1.407 0.090
49.5999 1.698 0.098
49.6155 1.761 0.100
49.6311 1.635 0.097
49.6467 1.823 0.102
49.6624 1.613 0.096
49.6780 1.510 0.093
49.6936 1.658 0.097
49.7092 1.823 0.102
49.7248 1.744 0.100
49.7404 1.744 0.100
49.7560 1.664 0.097
49.7717 1.761 0.100
49.7873 1.846 0.103
49.8029 2.211 0.112
49.8185 1.989 0.106
49.8341 2.279 0.114
49.8497 2.439 0.118
49.8654 2.507 0.120
49.8810 2.376 0.116
49.8966 2.604 0.122
49.9122 2.410 0.117
49.9278 2.735 0.125
49.9434 2.798 0.126
49.9590 3.026 0.131
49.9747 2.946 0.130
49.9903 3.510 0.141
50.0059 3.544 0.142
50.0215 4.319 0.157
50.0371 4.764 0.165
50.0527 5.875 0.183
50.0683 7.886 0.212
50.0840 10.684 0.247
50.0996 15.123 0.294
50.1152 19.693 0.335
50.1308 21.721 0.352
50.1464 21.522 0.350
50.1620 16.787 0.309
50.1777 12.388 0.266
50.1933 9.499 0.233
50.2089 8.285 0.217
50.2245 8.923 0.225
50.2401 10.513 0.245
50.2557 11.675 0.258
50.2713 12.308 0.265
50.2870 11.117 0.252
50.3026 8.433 0.219
50.3182 5.533 0.178
50.3338 4.211 0.155
50.3494 3.675 0.145
50.3650 3.151 0.134
50.3806 2.803 0.126
50.3963 2.581 0.121
50.4119 2.530 0.120
50.4275 2.319 0.115
50.4431 2.331 0.115
50.4587 2.051 0.108
50.4743 2.034 0.108
50.4900 1.977 0.106
50.5056 2.080 0.109
50.5212 2.040 0.108
50.5368 1.852 0.103
50.5524 2.040 0.108
50.5680 1.784 0.101
50.5836 1.949 0.105
50.5993 2.029 0.108
50.6149 2.211 0.112
50.6305 2.057 0.108
50.6461 1.806 0.101
50.6617 1.880 0.104
50.6773 1.709 0.099
50.6930 1.772 0.100
50.7086 1.544 0.094
50.7242 1.897 0.104
50.7398 1.937 0.105
50.7554 1.960 0.106
50.7710 1.846 0.103
50.7866 1.926 0.105
50.8023 1.510 0.093
50.8179 1.521 0.093
50.8335 1.510 0.093
50.8491 1.595 0.095
50.8647 1.493 0.092
50.8803 1.379 0.089
50.8959 1.396 0.089
50.9116 1.419 0.090
50.9272 1.459 0.091
50.9428 1.464 0.091
50.9584 1.504 0.093
50.9740 1.453 0.091
50.9896 1.459 0.091
51.0053 1.254 0.085
51.0209 1.390 0.089
51.0365 1.550 0.094
51.0521 1.521 0.093
51.0677 1.225 0.084
51.0833 1.322 0.087
51.0989 1.368 0.088
51.1146 1.442 0.091
51.1302 1.379 0.089
51.1458 1.407 0.090
51.1614 1.293 0.086
51.1770 1.356 0.088
51.1926 1.339 0.087
51.2082 1.202 0.083
51.2239 1.407 0.090
51.2395 1.356 0.088
51.2551 1.345 0.088
51.2707 1.356 0.088
51.2863 1.470 0.092
51.3019 1.265 0.085
51.3176 1.288 0.086
51.3332 1.373 0.088
51.3488 1.482 0.092
51.3644 1.373 0.088
51.3800 1.482 0.092
51.3956 1.453 0.091
51.4112 1.373 0.088
51.4269 1.254 0.085
51.4425 1.442 0.091
51.4581 1.436 0.090
51.4737 1.624 0.096
51.4893 1.236 0.084
51.5049 1.476 0.092
51.5206 1.425 0.090
51.5362 1.356 0.088
51.5518 1.436 0.090
51.5674 1.521 0.093
51.5830 1.236 0.084
51.5986 1.476 0.092
51.6142 1.464 0.091
51.6299 1.362 0.088
51.6455 1.362 0.088
51.6611 1.328 0.087
51.6767 1.390 0.089
51.6923 1.436 0.090
51.7079 1.242 0.084
51.7235 1.379 0.089
51.7392 1.231 0.084
51.7548 1.396 0.089
51.7704 1.345 0.088
51.7860 1.248 0.084
51.8016 1.368 0.088
51.8172 1.339 0.087
51.8329 1.362 0.088
51.8485 1.345 0.088
51.8641 1.482 0.092
51.8797 1.385 0.089
51.8953 1.339 0.087
51.9109 1.373 0.088
51.9265 1.459 0.091
51.9422 1.322 0.087
51.9578 1.368 0.088
51.9734 1.402 0.089
51.9890 1.288 0.086
52.0046 1.345 0.088
52.0202 1.413 0.090
52.0358 1.368 0.088
52.0515 1.322 0.087
52.0671 1.316 0.087
52.0827 1.476 0.092
52.0983 1.499 0.092
52.1139 1.282 0.085
52.1295 1.339 0.087
52.1452 1.618 0.096
52.1608 1.362 0.088
52.1764 1.345 0.088
52.1920 1.311 0.086
52.2076 1.402 0.089
52.2232 1.316 0.087
52.2388 1.430 0.090
52.2545 1.470 0.092
52.2701 1.630 0.096
52.2857 1.538 0.094
52.3013 1.464 0.091
52.3169 1.425 0.090
52.3325 1.869 0.103
52.3482 1.818 0.102
52.3638 1.704 0.099
52.3794 1.556 0.094
52.3950 1.789 0.101
52.4106 1.698 0.098
52.4262 1.926 0.105
52.4418 1.863 0.103
52.4575 1.858 0.103
52.4731 1.715 0.099
52.4887 1.556 0.094
52.5043 1.749 0.100
52.5199 2.000 0.107
52.5355 1.732 0.099
52.5511 1.840 0.102
52.5668 1.949 0.105
52.5824 1.761 0.100
52.5980 1.977 0.106
52.6136 1.966 0.106
52.6292 1.840 0.102
52.6448 1.749 0.100
52.6605 1.681 0.098
52.6761 1.613 0.096
52.6917 1.943 0.105
52.7073 1.647 0.097
52.7229 1.709 0.099
52.7385 1.852 0.103
52.7541 1.527 0.093
52.7698 1.664 0.097
52.7854 1.846 0.103
52.8010 1.801 0.101
52.8166 1.687 0.098
52.8322 1.550 0.094
52.8478 1.658 0.097
52.8634 1.624 0.096
52.8791 1.858 0.103
52.8947 1.573 0.095
52.9103 1.675 0.098
52.9259 1.647 0.097
52.9415 1.840 0.102
52.9571 1.487 0.092
52.9728 1.658 0.097
52.9884 1.556 0.094
53.0040 1.647 0.097
53.0196 1.584 0.095
53.0352 1.584 0.095
53.0508 1.778 0.101
53.0664 1.544 0.094
53.0821 1.852 0.103
53.0977 1.595 0.095
53.1133 1.749 0.100
53.1289 1.590 0.095
53.1445 1.652 0.097
53.1601 1.595 0.095
53.1758 1.692 0.098
53.1914 1.738 0.100
53.2070 1.476 0.092
53.2226 1.858 0.103
53.2382 1.544 0.094
53.2538 1.812 0.102
53.2694 1.692 0.098
53.2851 1.727 0.099
53.3007 1.652 0.097
53.3163 1.784 0.101
53.3319 1.812 0.102
53.3475 1.818 0.102
53.3631 1.869 0.103
53.3787 1.607 0.096
53.3944 1.835 0.102
53.4100 1.504 0.093
53.4256 1.897 0.104
53.4412 1.652 0.097
53.4568 1.761 0.100
53.4724 1.675 0.098
53.4881 1.926 0.105
53.5037 1.903 0.104
53.5193 1.784 0.101
53.5349 1.823 0.102
53.5505 1.601 0.096
53.5661 1.943 0.105
53.5817 2.011 0.107
53.5974 1.909 0.104
53.6130 1.949 0.105
53.6286 2.177 0.111
53.6442 2.308 0.115
53.6598 1.932 0.105
53.6754 2.114 0.110
53.6910 2.108 0.110
53.7067 2.131 0.110
53.7223 2.348 0.116
53.7379 2.342 0.116
53.7535 2.285 0.114
53.7691 2.262 0.114
53.7847 2.268 0.114
53.8004 2.388 0.117
53.8160 2.370 0.116
53.8316 2.547 0.120
53.8472 2.570 0.121
53.8628 2.695 0.124
53.8784 2.917 0.129
53.8940 2.781 0.126
53.9097 3.140 0.134
53.9253 3.180 0.135
53.9409 3.567 0.143
53.9565 3.368 0.139
53.9721 4.040 0.152
53.9877 4.017 0.151
54.0034 4.792 0.165
54.0190 4.997 0.169
54.0346 5.368 0.175
54.0502 5.738 0.181
54.0658 6.080 0.186
54.0814 6.695 0.195
54.0970 6.889 0.198
54.1127 7.128 0.202
54.1283 8.456 0.220
54.1439 8.519 0.220
54.1595 10.262 0.242
54.1751 11.408 0.255
54.1907 13.242 0.275
54.2063 16.918 0.310
54.2220 21.778 0.352
54.2376 26.867 0.391
54.2532 36.838 0.458
54.2688 50.183 0.535
54.2844 66.315 0.615
54.3000 80.412 0.677
54.3157 87.763 0.707
54.3313 85.290 0.697
54.3469 71.859 0.640
54.3625 56.884 0.569
54.3781 45.539 0.509
54.3937 39.346 0.473
54.4093 38.673 0.469
54.4250 42.292 0.491
54.4406 47.505 0.520
54.4562 49.608 0.532
54.4718 47.522 0.520
54.4874 42.303 0.491
54.5030 34.098 0.441
54.5187 25.288 0.380
54.5343 18.678 0.326
54.5499 14.166 0.284
54.5655 12.308 0.265
54.5811 9.704 0.235
54.5967 8.376 0.218
54.6123 7.641 0.209
54.6280 7.305 0.204
54.6436 6.131 0.187
54.6592 5.618 0.179
54.6748 5.778 0.181
54.6904 4.832 0.166
54.7060 5.088 0.170
54.7216 4.872 0.167
54.7373 4.701 0.164
54.7529 4.576 0.161
54.7685 4.553 0.161
54.7841 4.570 0.161
54.7997 5.379 0.175
54.8153 6.103 0.186
54.8310 7.180 0.202
54.8466 7.898 0.212
54.8622 8.787 0.224
54.8778 8.730 0.223
54.8934 7.681 0.209
54.9090 6.125 0.187
54.9246 5.077 0.170
54.9403 4.547 0.161
54.9559 4.587 0.162
54.9715 4.701 0.164
54.9871 4.838 0.166
55.0027 5.476 0.177
55.0183 5.704 0.180
55.0339 5.482 0.177
55.0496 4.536 0.161
55.0652 3.749 0.146
55.0808 3.544 0.142
55.0964 3.128 0.134
55.1120 2.826 0.127
55.1276 2.752 0.125
55.1433 2.775 0.126
55.1589 2.758 0.125
55.1745 2.747 0.125
55.1901 2.524 0.120
55.2057 2.490 0.119
55.2213 2.781 0.126
55.2369 2.638 0.123
55.2526 3.031 0.131
55.2682 2.974 0.130
55.2838 3.373 0.139
55.2994 4.057 0.152
55.3150 4.405 0.158
55.3306 4.194 0.155
55.3463 3.841 0.148
55.3619 3.214 0.135
55.3775 2.969 0.130
55.3931 2.809 0.127
55.4087 2.667 0.123
55.4243 2.558 0.121
55.4399 2.900 0.129
55.4556 3.345 0.138
55.4712 3.316 0.137
55.4868 3.197 0.135
55.5024 2.786 0.126
55.5180 2.456 0.118
55.5336 2.302 0.115
55.5492 2.182 0.112
55.5649 2.074 0.109
55.5805 1.869 0.103
55.5961 1.840 0.102
55.6117 1.903 0.104
55.6273 2.063 0.108
55.6429 1.897 0.104
55.6586 2.080 0.109
55.6742 1.960 0.106
55.6898 2.086 0.109
55.7054 1.715 0.099
55.7210 1.835 0.102
55.7366 1.789 0.101
55.7522 1.727 0.099
55.7679 1.744 0.100
55.7835 1.727 0.099
55.7991 1.943 0.105
55.8147 1.613 0.096
55.8303 1.761 0.100
55.8459 1.687 0.098
55.8615 1.755 0.100
55.8772 1.954 0.106
55.8928 1.875 0.103
55.9084 1.578 0.095
55.9240 1.829 0.102
55.9396 1.778 0.101
55.9552 1.647 0.097
55.9709 1.795 0.101
55.9865 1.721 0.099
56.0021 1.897 0.104
56.0177 1.863 0.103
56.0333 1.766 0.100
56.0489 1.812 0.102
56.0645 1.875 0.103
56.0802 1.778 0.101
56.0958 1.920 0.105
56.1114 1.852 0.103
56.1270 1.903 0.104
56.1426 1.909 0.104
56.1582 1.926 0.105
56.1739 1.863 0.103
56.1895 1.903 0.104
56.2051 1.892 0.104
56.2207 2.137 0.110
56.2363 2.188 0.112
56.2519 2.331 0.115
56.2675 2.291 0.114
56.2832 2.490 0.119
56.2988 2.462 0.118
56.3144 2.809 0.127
56.3300 2.752 0.125
56.3456 2.866 0.128
56.3612 2.940 0.129
56.3768 2.952 0.130
56.3925 2.952 0.130
56.4081 3.407 0.139
56.4237 3.276 0.137
56.4393 3.544 0.142
56.4549 3.994 0.151
56.4705 4.456 0.159
56.4862 4.667 0.163
56.5018 5.351 0.175
56.5174 6.279 0.189
56.5330 7.601 0.208
56.5486 10.319 0.242
56.5642 13.214 0.274
56.5798 16.644 0.308
56.5955 21.488 0.350
56.6111 25.858 0.384
56.6267 26.314 0.387
56.6423 25.334 0.380
56.6579 21.214 0.348
56.6735 16.394 0.306
56.6891 13.339 0.276
56.7048 11.653 0.258
56.7204 11.607 0.257
56.7360 12.581 0.268
56.7516 14.325 0.286
56.7672 15.436 0.297
56.7828 15.448 0.297
56.7985 13.425 0.277
56.8141 11.596 0.257
56.8297 8.929 0.226
56.8453 6.997 0.200
56.8609 5.465 0.176
56.8765 4.587 0.162
56.8921 3.858 0.148
56.9078 3.533 0.142
56.9234 3.197 0.135
56.9390 2.997 0.131
56.9546 2.712 0.124
56.9702 2.661 0.123
56.9858 2.564 0.121
57.0015 2.308 0.115
57.0171 2.365 0.116
57.0327 2.348 0.116
57.0483 2.011 0.107
57.0639 2.131 0.110
57.0795 2.057 0.108
57.0951 2.086 0.109
57.1108 2.194 0.112
57.1264 2.017 0.107
57.1420 2.108 0.110
57.1576 1.983 0.106
57.1732 2.125 0.110
57.1888 2.228 0.113
57.2044 2.182 0.112
57.2201 2.285 0.114
57.2357 2.296 0.114
57.2513 2.074 0.109
57.2669 2.091 0.109
57.2825 2.125 0.110
57.2981 2.057 0.108
57.3138 2.017 0.107
57.3294 1.994 0.107
57.3450 2.011 0.107
57.3606 2.279 0.114
57.3762 1.972 0.106
57.3918 2.023 0.107
57.4074 2.177 0.111
57.4231 2.074 0.109
57.4387 1.977 0.106
57.4543 2.142 0.110
57.4699 2.228 0.113
57.4855 1.966 0.106
57.5011 2.074 0.109
57.5167 1.920 0.105
57.5324 1.846 0.103
57.5480 2.108 0.110
57.5636 1.840 0.102
57.5792 1.926 0.105
57.5948 2.074 0.109
57.6104 1.789 0.101
57.6261 1.772 0.100
57.6417 1.749 0.100
57.6573 1.823 0.102
57.6729 1.766 0.100
57.6885 1.926 0.105
57.7041 2.006 0.107
57.7197 1.863 0.103
57.7354 1.664 0.097
57.7510 1.715 0.099
57.7666 1.647 0.097
57.7822 1.709 0.099
57.7978 1.704 0.099
57.8134 1.578 0.095
57.8291 1.755 0.100
57.8447 1.652 0.097
57.8603 1.527 0.093
57.8759 1.482 0.092
57.8915 1.538 0.094
57.9071 1.556 0.094
57.9227 1.550 0.094
57.9384 1.482 0.092
57.9540 1.447 0.091
57.9696 1.476 0.092
57.9852 1.504 0.093
58.0008 1.464 0.091
58.0164 1.561 0.094
58.0320 1.368 0.088
58.0477 1.430 0.090
58.0633 1.407 0.090
58.0789 1.613 0.096
58.0945 1.567 0.094
58.1101 1.550 0.094
58.1257 1.499 0.092
58.1414 1.470 0.092
58.1570 1.407 0.090
58.1726 1.311 0.086
58.1882 1.476 0.092
58.2038 1.493 0.092
58.2194 1.436 0.090
58.2350 1.322 0.087
58.2507 1.402 0.089
58.2663 1.413 0.090
58.2819 1.299 0.086
58.2975 1.305 0.086
58.3131 1.350 0.088
58.3287 1.311 0.086
58.3443 1.430 0.090
58.3600 1.390 0.089
58.3756 1.470 0.092
58.3912 1.345 0.088
58.4068 1.442 0.091
58.4224 1.362 0.088
58.4380 1.396 0.089
58.4537 1.322 0.087
58.4693 1.470 0.092
58.4849 1.282 0.085
58.5005 1.430 0.090
58.5161 1.311 0.086
58.5317 1.464 0.091
58.5473 1.504 0.093
58.5630 1.305 0.086
58.5786 1.385 0.089
58.5942 1.231 0.084
58.6098 1.390 0.089
58.6254 1.390 0.089
58.6410 1.464 0.091
58.6567 1.293 0.086
58.6723 1.385 0.089
58.6879 1.362 0.088
58.7035 1.425 0.090
58.7191 1.385 0.089
58.7347 1.225 0.084
58.7503 1.487 0.092
58.7660 1.373 0.088
58.7816 1.419 0.090
58.7972 1.333 0.087
58.8128 1.419 0.090
58.8284 1.396 0.089
58.8440 1.339 0.087
58.8596 1.453 0.091
58.8753 1.328 0.087
58.8909 1.430 0.090
58.9065 1.236 0.084
58.9221 1.499 0.092
58.9377 1.368 0.088
58.9533 1.419 0.090
58.9690 1.385 0.089
58.9846 1.356 0.088
59.0002 1.556 0.094
59.0158 1.333 0.087
59.0314 1.561 0.094
59.0470 1.510 0.093
59.0626 1.356 0.088
59.0783 1.516 0.093
59.0939 1.339 0.087
59.1095 1.453 0.091
59.1251 1.339 0.087
59.1407 1.578 0.095
59.1563 1.299 0.086
59.1720 1.396 0.089
59.1876 1.425 0.090
59.2032 1.487 0.092
59.2188 1.202 0.083
59.2344 1.499 0.092
59.2500 1.567 0.094
59.2656 1.180 0.082
59.2813 1.413 0.090
59.2969 1.544 0.094
59.3125 1.419 0.090
59.3281 1.339 0.087
59.3437 1.379 0.089
59.3593 1.681 0.098
59.3749 1.499 0.092
59.3906 1.630 0.096
59.4062 1.425 0.090
59.4218 1.567 0.094
59.4374 1.584 0.095
59.4530 1.556 0.094
59.4686 1.538 0.094
59.4843 1.561 0.094
59.4999 1.795 0.101
59.5155 1.624 0.096
59.5311 1.499 0.092
59.5467 1.801 0.101
59.5623 1.578 0.095
59.5779 1.835 0.102
59.5936 1.521 0.093
59.6092 1.892 0.104
59.6248 1.784 0.101
59.6404 1.989 0.106
59.6560 1.909 0.104
59.6716 2.148 0.111
59.6872 2.165 0.111
59.7029 2.222 0.113
59.7185 2.256 0.113
59.7341 2.570 0.121
59.7497 2.325 0.115
59.7653 2.234 0.113
59.7809 2.558 0.121
59.7966 2.462 0.118
59.8122 2.946 0.130
59.8278 3.305 0.137
59.8434 3.345 0.138
59.8590 3.823 0.148
59.8746 4.786 0.165
59.8902 5.932 0.184
59.9059 7.277 0.204
59.9215 10.325 0.243
59.9371 12.969 0.272
59.9527 15.003 0.292
59.9683 13.995 0.282
59.9839 11.505 0.256
59.9996 8.707 0.223
60.0152 6.319 0.190
60.0308 5.721 0.181
60.0464 5.060 0.170
60.0620 5.043 0.170
60.0776 6.091 0.186
60.0932 6.655 0.195
60.1089 7.972 0.213
60.1245 8.462 0.220
60.1401 7.185 0.202
60.1557 5.915 0.184
60.1713 4.291 0.156
60.1869 3.504 0.141
60.2025 3.128 0.134
60.2182 2.684 0.124
60.2338 2.279 0.114
60.2494 2.182 0.112
60.2650 2.108 0.110
60.2806 2.194 0.112
60.2962 1.897 0.104
60.3119 1.989 0.106
60.3275 1.892 0.104
60.3431 1.687 0.098
60.3587 1.692 0.098
60.3743 1.709 0.099
60.3899 1.772 0.100
60.4055 1.801 0.101
60.4212 1.624 0.096
60.4368 1.510 0.093
60.4524 1.493 0.092
60.4680 1.516 0.093
60.4836 1.499 0.092
60.4992 1.362 0.088
60.5148 1.499 0.092
60.5305 1.487 0.092
60.5461 1.476 0.092
60.5617 1.573 0.095
60.5773 1.442 0.091
60.5929 1.635 0.097
60.6085 1.590 0.095
60.6242 1.504 0.093
60.6398 1.527 0.093
60.6554 1.407 0.090
60.6710 1.305 0.086
60.6866 1.407 0.090
60.7022 1.396 0.089
60.7178 1.413 0.090
60.7335 1.521 0.093
60.7491 1.453 0.091
60.7647 1.379 0.089
60.7803 1.425 0.090
60.7959 1.442 0.091
60.8115 1.521 0.093
60.8272 1.436 0.090
60.8428 1.470 0.092
60.8584 1.556 0.094
60.8740 1.419 0.090
60.8896 1.390 0.089
60.9052 1.231 0.084
60.9208 1.339 0.087
60.9365 1.248 0.084
60.9521 1.442 0.091
60.9677 1.322 0.087
60.9833 1.322 0.087
60.9989 1.276 0.085
61.0145 1.442 0.091
61.0301 1.339 0.087
61.0458 1.276 0.085
61.0614 1.430 0.090
61.0770 1.436 0.090
61.0926 1.482 0.092
61.1082 1.299 0.086
61.1238 1.276 0.085
61.1395 1.425 0.090
61.1551 1.561 0.094
61.1707 1.407 0.090
61.1863 1.385 0.089
61.2019 1.282 0.085
61.2175 1.259 0.085
61.2331 1.533 0.093
61.2488 1.345 0.088
61.2644 1.185 0.082
61.2800 1.293 0.086
61.2956 1.271 0.085
61.3112 1.482 0.092
61.3268 1.259 0.085
61.3424 1.282 0.085
61.3581 1.328 0.087
61.3737 1.453 0.091
61.3893 1.316 0.087
61.4049 1.339 0.087
61.4205 1.436 0.090
61.4361 1.413 0.090
61.4518 1.419 0.090
61.4674 1.561 0.094
61.4830 1.390 0.089
61.4986 1.402 0.089
61.5142 1.288 0.086
61.5298 1.407 0.090
61.5454 1.430 0.090
61.5611 1.276 0.085
61.5767 1.271 0.085
61.5923 1.419 0.090
61.6079 1.299 0.086
61.6235 1.385 0.089
61.6391 1.345 0.088
61.6548 1.578 0.095
61.6704 1.493 0.092
61.6860 1.425 0.090
61.7016 1.288 0.086
61.7172 1.197 0.083
61.7328 1.350 0.088
61.7484 1.305 0.086
61.7641 1.350 0.088
61.7797 1.350 0.088
61.7953 1.350 0.088
61.8109 1.430 0.090
61.8265 1.339 0.087
61.8421 1.333 0.087
61.8577 1.368 0.088
61.8734 1.282 0.085
61.8890 1.339 0.087
61.9046 1.305 0.086
61.9202 1.333 0.087
61.9358 1.276 0.085
61.9514 1.322 0.087
61.9671 1.214 0.083
61.9827 1.293 0.086
61.9983 1.362 0.088
62.0139 1.379 0.089
62.0295 1.504 0.093
62.0451 1.425 0.090
62.0607 1.425 0.090
62.0764 1.345 0.088
62.0920 1.214 0.083
62.1076 1.248 0.084
62.1232 1.430 0.090
62.1388 1.584 0.095
62.1544 1.345 0.088
62.1700 1.396 0.089
62.1857 1.282 0.085
62.2013 1.578 0.095
62.2169 1.419 0.090
62.2325 1.407 0.090
62.2481 1.407 0.090
62.2637 1.442 0.091
62.2794 1.373 0.088
62.2950 1.413 0.090
62.3106 1.373 0.088
62.3262 1.425 0.090
62.3418 1.527 0.093
62.3574 1.430 0.090
62.3730 1.744 0.100
62.3887 1.595 0.095
62.4043 1.544 0.094
62.4199 1.647 0.097
62.4355 1.590 0.095
62.4511 1.806 0.101
62.4667 1.846 0.103
62.4824 1.766 0.100
62.4980 1.852 0.103
62.5136 2.000 0.107
62.5292 1.766 0.100
62.5448 1.915 0.104
62.5604 2.091 0.109
62.5760 2.256 0.113
62.5917 2.405 0.117
62.6073 2.610 0.122
62.6229 2.878 0.128
62.6385 3.049 0.132
62.6541 3.766 0.146
62.6697 4.838 0.166
62.6853 5.493 0.177
62.7010 7.351 0.205
62.7166 8.855 0.225
62.7322 10.735 0.247
62.7478 11.943 0.261
62.7634 12.433 0.266
62.7790 11.425 0.255
62.7947 9.727 0.235
62.8103 7.732 0.210
62.8259 6.616 0.194
62.8415 5.430 0.176
62.8571 5.630 0.179
62.8727 5.692 0.180
62.8883 5.920 0.184
62.9040 6.724 0.196
62.9196 7.533 0.207
62.9352 7.499 0.207
62.9508 6.644 0.195
62.9664 5.647 0.179
62.9820 4.633 0.162
62.9976 3.846 0.148
63.0133 3.328 0.138
63.0289 2.866 0.128
63.0445 2.382 0.116
63.0601 2.256 0.113
63.0757 2.120 0.110
63.0913 2.091 0.109
63.1070 1.909 0.104
63.1226 2.029 0.108
63.1382 1.903 0.104
63.1538 1.727 0.099
63.1694 1.721 0.099
63.1850 1.823 0.102
63.2006 1.721 0.099
63.2163 1.664 0.097
63.2319 1.618 0.096
63.2475 1.550 0.094
63.2631 1.675 0.098
63.2787 1.601 0.096
63.2943 1.248 0.084
63.3100 1.499 0.092
63.3256 1.402 0.089
63.3412 1.544 0.094
63.3568 1.533 0.093
63.3724 1.482 0.092
63.3880 1.544 0.094
63.4036 1.521 0.093
63.4193 1.413 0.090
63.4349 1.316 0.087
63.4505 1.271 0.085
63.4661 1.533 0.093
63.4817 1.550 0.094
63.4973 1.396 0.089
63.5129 1.425 0.090
63.5286 1.407 0.090
63.5442 1.464 0.091
63.5598 1.675 0.098
63.5754 1.499 0.092
63.5910 1.618 0.096
63.6066 1.647 0.097
63.6223 1.533 0.093
63.6379 1.578 0.095
63.6535 1.652 0.097
63.6691 1.738 0.100
63.6847 1.567 0.094
63.7003 1.954 0.106
63.7159 1.846 0.103
63.7316 1.943 0.105
63.7472 1.829 0.102
63.7628 2.108 0.110
63.7784 2.091 0.109
63.7940 1.835 0.102
63.8096 2.114 0.110
63.8252 2.234 0.113
63.8409 2.262 0.114
63.8565 2.365 0.116
63.8721 2.388 0.117
63.8877 2.855 0.128
63.9033 2.974 0.130
63.9189 3.351 0.138
63.9346 3.806 0.147
63.9502 4.718 0.164
63.9658 5.556 0.178
63.9814 7.168 0.202
63.9970 9.089 0.228
64.0126 11.248 0.253
64.0282 12.821 0.270
64.0439 13.943 0.282
64.0595 13.852 0.281
64.0751 11.926 0.261
64.0907 9.721 0.235
64.1063 8.069 0.214
64.1219 6.786 0.197
64.1376 5.898 0.183
64.1532 5.806 0.182
64.1688 6.593 0.194
64.1844 6.935 0.199
64.2000 8.051 0.214
64.2156 8.257 0.217
64.2312 8.091 0.215
64.2469 6.986 0.200
64.2625 6.069 0.186
64.2781 5.043 0.170
64.2937 4.439 0.159
64.3093 3.288 0.137
64.3249 2.872 0.128
64.3405 2.690 0.124
64.3562 2.501 0.119
64.3718 2.382 0.116
64.3874 2.086 0.109
64.4030 2.051 0.108
64.4186 1.903 0.104
64.4342 1.880 0.104
64.4499 1.755 0.100
64.4655 1.789 0.101
64.4811 1.795 0.101
64.4967 1.641 0.097
64.5123 1.607 0.096
64.5279 1.544 0.094
64.5435 1.447 0.091
64.5592 1.516 0.093
64.5748 1.407 0.090
64.5904 1.436 0.090
64.6060 1.419 0.090
64.6216 1.487 0.092
64.6372 1.442 0.091
64.6529 1.487 0.092
64.6685 1.350 0.088
64.6841 1.254 0.085
64.6997 1.219 0.083
64.7153 1.288 0.086
64.7309 1.538 0.094
64.7465 1.265 0.085
64.7622 1.373 0.088
64.7778 1.322 0.087
64.7934 1.396 0.089
64.8090 1.476 0.092
64.8246 1.231 0.084
64.8402 1.442 0.091
64.8558 1.442 0.091
64.8715 1.236 0.084
64.8871 1.419 0.090
64.9027 1.350 0.088
64.9183 1.470 0.092
64.9339 1.236 0.084
64.9495 1.231 0.084
64.9652 1.225 0.084
64.9808 1.231 0.084
64.9964 1.390 0.089
65.0120 1.333 0.087
65.0276 1.248 0.084
65.0432 1.208 0.083
65.0588 1.305 0.086
65.0745 1.259 0.085
65.0901 1.339 0.087
65.1057 1.328 0.087
65.1213 1.350 0.088
65.1369 1.259 0.085
65.1525 1.259 0.085
65.1681 1.248 0.084
65.1838 1.350 0.088
65.1994 1.447 0.091
65.2150 1.162 0.081
65.2306 1.333 0.087
65.2462 1.373 0.088
65.2618 1.459 0.091
65.2775 1.436 0.090
65.2931 1.470 0.092
65.3087 1.419 0.090
65.3243 1.265 0.085
65.3399 1.390 0.089
65.3555 1.482 0.092
65.3711 1.316 0.087
65.3868 1.407 0.090
65.4024 1.442 0.091
65.4180 1.504 0.093
65.4336 1.430 0.090
65.4492 1.692 0.098
65.4648 1.932 0.105
65.4805 1.784 0.101
65.4961 2.063 0.108
65.5117 2.137 0.110
65.5273 2.131 0.110
65.5429 1.761 0.100
65.5585 1.812 0.102
65.5741 1.641 0.097
65.5898 1.784 0.101
65.6054 1.738 0.100
65.6210 1.607 0.096
65.6366 1.823 0.102
65.6522 1.778 0.101
65.6678 1.875 0.103
65.6834 1.823 0.102
65.6991 1.943 0.105
65.7147 1.709 0.099
65.7303 1.829 0.102
65.7459 2.006 0.107
65.7615 2.029 0.108
65.7771 1.835 0.102
65.7928 1.994 0.107
65.8084 1.869 0.103
65.8240 1.727 0.099
65.8396 1.664 0.097
65.8552 1.447 0.091
65.8708 1.550 0.094
65.8864 1.402 0.089
65.9021 1.578 0.095
65.9177 1.550 0.094
65.9333 1.464 0.091
65.9489 1.550 0.094
65.9645 1.687 0.098
65.9801 1.544 0.094
65.9957 1.453 0.091
66.0114 1.430 0.090
66.0270 1.527 0.093
66.0426 1.390 0.089
66.0582 1.265 0.085
66.0738 1.430 0.090
66.0894 1.202 0.083
66.1051 1.362 0.088
66.1207 1.299 0.086
66.1363 1.419 0.090
66.1519 1.311 0.086
66.1675 1.425 0.090
66.1831 1.316 0.087
66.1987 1.145 0.081
66.2144 1.236 0.084
66.2300 1.362 0.088
66.2456 1.436 0.090
66.2612 1.407 0.090
66.2768 1.350 0.088
66.2924 1.464 0.091
66.3081 1.573 0.095
66.3237 1.493 0.092
66.3393 1.379 0.089
66.3549 1.573 0.095
66.3705 1.487 0.092
66.3861 1.464 0.091
66.4017 1.527 0.093
66.4174 1.521 0.093
66.4330 1.493 0.092
66.4486 1.521 0.093
66.4642 1.624 0.096
66.4798 1.413 0.090
66.4954 1.339 0.087
66.5110 1.698 0.098
66.5267 1.533 0.093
66.5423 1.385 0.089
66.5579 1.504 0.093
66.5735 1.402 0.089
66.5891 1.521 0.093
66.6047 1.573 0.095
66.6204 1.630 0.096
66.6360 1.470 0.092
66.6516 1.521 0.093
66.6672 1.345 0.088
66.6828 1.476 0.092
66.6984 1.311 0.086
66.7140 1.379 0.089
66.7297 1.510 0.093
66.7453 1.407 0.090
66.7609 1.499 0.092
66.7765 1.464 0.091
66.7921 1.510 0.093
66.8077 1.407 0.090
66.8233 1.544 0.094
66.8390 1.521 0.093
66.8546 1.322 0.087
66.8702 1.556 0.094
66.8858 1.425 0.090
66.9014 1.373 0.088
66.9170 1.333 0.087
66.9327 1.407 0.090
66.9483 1.670 0.098
66.9639 1.362 0.088
66.9795 1.550 0.094
66.9951 1.413 0.090
67.0107 1.482 0.092
67.0263 1.442 0.091
67.0420 1.499 0.092
67.0576 1.459 0.091
67.0732 1.379 0.089
67.0888 1.561 0.094
67.1044 1.607 0.096
67.1200 1.419 0.090
67.1357 1.630 0.096
67.1513 1.482 0.092
67.1669 1.390 0.089
67.1825 1.624 0.096
67.1981 1.670 0.098
67.2137 1.715 0.099
67.2293 1.567 0.094
67.2450 1.675 0.098
67.2606 1.470 0.092
67.2762 1.561 0.094
67.2918 1.732 0.099
67.3074 1.590 0.095
67.3230 1.801 0.101
67.3386 1.704 0.099
67.3543 1.749 0.100
67.3699 1.658 0.097
67.3855 1.926 0.105
67.4011 1.687 0.098
67.4167 1.869 0.103
67.4323 1.801 0.101
67.4480 1.778 0.101
67.4636 2.103 0.109
67.4792 2.017 0.107
67.4948 2.131 0.110
67.5104 1.846 0.103
67.5260 1.966 0.106
67.5416 2.165 0.111
67.5573 2.291 0.114
67.5729 2.353 0.116
67.5885 2.439 0.118
67.6041 2.410 0.117
67.6197 2.821 0.127
67.6353 3.031 0.131
67.6509 3.425 0.140
67.6666 4.091 0.153
67.6822 4.741 0.164
67.6978 6.012 0.185
67.7134 7.476 0.206
67.7290 8.855 0.225
67.7446 9.806 0.236
67.7603 8.598 0.221
67.7759 7.299 0.204
67.7915 5.413 0.176
67.8071 4.729 0.164
67.8227 4.268 0.156
67.8383 3.886 0.149
67.8539 4.165 0.154
67.8696 4.148 0.154
67.8852 4.900 0.167
67.9008 5.254 0.173
67.9164 5.806 0.182
67.9320 6.125 0.187
67.9476 6.365 0.190
67.9633 5.561 0.178
67.9789 5.339 0.174
67.9945 4.313 0.157
68.0101 3.972 0.150
68.0257 4.160 0.154
68.0413 4.462 0.159
68.0569 5.031 0.169
68.0726 5.749 0.181
68.0882 6.707 0.195
68.1038 8.188 0.216
68.1194 10.188 0.241
68.1350 11.920 0.261
68.1506 11.784 0.259
68.1662 10.695 0.247
68.1819 8.821 0.224
68.1975 6.769 0.196
68.2131 5.898 0.183
68.2287 6.228 0.188
68.2443 6.336 0.190
68.2599 6.821 0.197
68.2756 8.154 0.216
68.2912 9.436 0.232
68.3068 11.037 0.251
68.3224 12.490 0.267
68.3380 11.544 0.256
68.3536 9.658 0.235
68.3692 7.670 0.209
68.3849 6.473 0.192
68.4005 4.992 0.169
68.4161 4.849 0.166
68.4317 4.370 0.158
68.4473 4.581 0.162
68.4629 4.992 0.169
68.4785 4.912 0.167
68.4942 5.168 0.172
68.5098 4.980 0.168
68.5254 5.071 0.170
68.5410 4.524 0.161
68.5566 3.937 0.150
68.5722 3.162 0.134
68.5879 3.316 0.137
68.6035 3.100 0.133
68.6191 3.276 0.137
68.6347 3.111 0.133
68.6503 3.077 0.132
68.6659 2.929 0.129
68.6815 3.128 0.134
68.6972 3.071 0.132
68.7128 3.390 0.139
68.7284 3.168 0.134
68.7440 3.413 0.139
68.7596 3.476 0.141
68.7752 3.464 0.141
68.7909 3.818 0.147
68.8065 3.898 0.149
68.8221 4.325 0.157
68.8377 4.832 0.166
68.8533 5.254 0.173
68.8689 5.886 0.183
68.8845 7.071 0.201
68.9002 8.012 0.214
68.9158 9.362 0.231
68.9314 12.143 0.263
68.9470 15.208 0.294
68.9626 18.496 0.325
68.9782 23.066 0.363
68.9938 26.890 0.391
69.0095 26.798 0.391
69.0251 25.613 0.382
69.0407 22.183 0.356
69.0563 18.194 0.322
69.0719 14.399 0.286
69.0875 11.738 0.259
69.1032 11.419 0.255
69.1188 10.656 0.246
69.1344 10.479 0.244
69.1500 11.818 0.259
69.1656 13.419 0.277
69.1812 14.035 0.283
69.1968 15.049 0.293
69.2125 15.784 0.300
69.2281 13.522 0.278
69.2437 11.180 0.252
69.2593 9.516 0.233
69.2749 7.419 0.206
69.2905 6.160 0.187
69.3061 4.895 0.167
69.3218 4.638 0.163
69.3374 4.040 0.152
69.3530 3.368 0.139
69.3686 3.584 0.143
69.3842 3.316 0.137
69.3998 3.402 0.139
69.4155 3.014 0.131
69.4311 2.860 0.128
69.4467 2.969 0.130
69.4623 3.066 0.132
69.4779 2.615 0.122
69.4935 2.775 0.126
69.5091 2.843 0.127
69.5248 2.638 0.123
69.5404 2.747 0.125
69.5560 2.786 0.126
69.5716 2.860 0.128
69.5872 2.900 0.129
69.6028 2.661 0.123
69.6185 2.895 0.128
69.6341 3.117 0.133
69.6497 3.556 0.142
69.6653 3.527 0.142
69.6809 3.983 0.151
69.6965 4.667 0.163
69.7121 5.647 0.179
69.7278 6.826 0.197
69.7434 8.371 0.218
69.7590 10.160 0.241
69.7746 12.610 0.268
69.7902 14.325 0.286
69.8058 14.223 0.285
69.8214 13.180 0.274
69.8371 11.841 0.260
69.8527 9.886 0.237
69.8683 7.784 0.211
69.8839 6.633 0.194
69.8995 5.892 0.183
69.9151 5.920 0.184
69.9308 5.846 0.183
69.9464 6.604 0.194
69.9620 7.163 0.202
69.9776 7.761 0.210
69.9932 8.684 0.222
70.0088 8.502 0.220
70.0244 7.858 0.212
70.0401 6.553 0.193
70.0557 5.590 0.178
70.0713 4.741 0.164
70.0869 3.687 0.145
70.1025 3.527 0.142
70.1181 2.969 0.130
70.1338 2.513 0.120
70.1494 2.171 0.111
70.1650 2.405 0.117
70.1806 2.148 0.111
70.1962 1.903 0.104
70.2118 2.188 0.112
70.2274 2.086 0.109
70.2431 1.772 0.100
70.2587 1.647 0.097
70.2743 1.727 0.099
70.2899 1.670 0.098
70.3055 1.698 0.098
70.3211 1.641 0.097
70.3367 1.766 0.100
70.3524 1.613 0.096
70.3680 1.698 0.098
70.3836 1.607 0.096
70.3992 1.584 0.095
70.4148 1.396 0.089
70.4304 1.328 0.087
70.4461 1.402 0.089
70.4617 1.464 0.091
70.4773 1.425 0.090
70.4929 1.430 0.090
70.5085 1.385 0.089
70.5241 1.345 0.088
70.5397 1.362 0.088
70.5554 1.470 0.092
70.5710 1.362 0.088
70.5866 1.487 0.092
70.6022 1.402 0.089
70.6178 1.453 0.091
70.6334 1.436 0.090
70.6490 1.259 0.085
70.6647 1.379 0.089
70.6803 1.396 0.089
70.6959 1.322 0.087
70.7115 1.282 0.085
70.7271 1.288 0.086
70.7427 1.419 0.090
70.7584 1.219 0.083
70.7740 1.265 0.085
70.7896 1.339 0.087
70.8052 1.373 0.088
70.8208 1.305 0.086
70.8364 1.202 0.083
70.8520 1.567 0.094
70.8677 1.305 0.086
70.8833 1.191 0.082
70.8989 1.328 0.087
70.9145 1.242 0.084
70.9301 1.276 0.085
70.9457 1.265 0.085
70.9614 1.231 0.084
70.9770 1.219 0.083
70.9926 1.180 0.082
71.0082 1.168 0.082
71.0238 1.174 0.082
71.0394 1.225 0.084
71.0550 1.459 0.091
71.0707 1.151 0.081
71.0863 1.202 0.083
71.1019 1.305 0.086
71.1175 1.197 0.083
71.1331 1.259 0.085
71.1487 1.145 0.081
71.1643 1.219 0.083
71.1800 1.305 0.086
71.1956 1.111 0.080
71.2112 1.105 0.079
71.2268 1.288 0.086
71.2424 1.208 0.083
71.2580 1.362 0.088
71.2737 1.231 0.084
71.2893 1.105 0.079
71.3049 1.208 0.083
71.3205 1.088 0.079
71.3361 1.265 0.085
71.3517 1.134 0.080
71.3673 1.094 0.079
71.3830 1.180 0.082
71.3986 1.145 0.081
71.4142 1.356 0.088
71.4298 1.191 0.082
71.4454 1.048 0.077
71.4610 1.219 0.083
71.4766 1.151 0.081
71.4923 1.293 0.086
71.5079 1.162 0.081
71.5235 1.214 0.083
71.5391 1.174 0.082
71.5547 1.037 0.077
71.5703 1.020 0.076
71.5860 1.282 0.085
71.6016 1.100 0.079
71.6172 1.134 0.080
71.6328 1.140 0.081
71.6484 0.991 0.075
71.6640 1.248 0.084
71.6796 1.168 0.082
71.6953 1.191 0.082
71.7109 1.094 0.079
71.7265 1.197 0.083
71.7421 1.254 0.085
71.7577 1.219 0.083
71.7733 0.940 0.073
71.7890 1.140 0.081
71.8046 1.094 0.079
71.8202 1.316 0.087
71.8358 1.379 0.089
71.8514 1.293 0.086
71.8670 1.140 0.081
71.8826 1.134 0.080
71.8983 1.202 0.083
71.9139 1.111 0.080
71.9295 1.305 0.086
71.9451 1.157 0.081
71.9607 1.174 0.082
71.9763 1.140 0.081
71.9919 1.248 0.084
72.0076 1.293 0.086
72.0232 1.225 0.084
72.0388 1.242 0.084
72.0544 1.094 0.079
72.0700 1.180 0.082
72.0856 1.271 0.085
72.1013 1.191 0.082
72.1169 1.288 0.086
72.1325 1.202 0.083
72.1481 1.180 0.082
72.1637 1.202 0.083
72.1793 1.094 0.079
72.1949 1.305 0.086
72.2106 1.328 0.087
72.2262 1.242 0.084
72.2418 1.311 0.086
72.2574 1.385 0.089
72.2730 1.447 0.091
72.2886 1.293 0.086
72.3042 1.538 0.094
72.3199 1.442 0.091
72.3355 1.459 0.091
72.3511 1.840 0.102
72.3667 2.023 0.107
72.3823 2.205 0.112
72.3979 2.285 0.114
72.4136 2.513 0.120
72.4292 2.769 0.126
72.4448 2.376 0.116
72.4604 2.217 0.112
72.4760 1.915 0.104
72.4916 1.784 0.101
72.5072 1.635 0.097
72.5229 1.641 0.097
72.5385 1.356 0.088
72.5541 1.721 0.099
72.5697 1.447 0.091
72.5853 1.858 0.103
72.6009 1.915 0.104
72.6166 2.006 0.107
72.6322 1.880 0.104
72.6478 1.897 0.104
72.6634 1.698 0.098
72.6790 1.704 0.099
72.6946 1.533 0.093
72.7102 1.368 0.088
72.7259 1.345 0.088
72.7415 1.419 0.090
72.7571 1.345 0.088
72.7727 1.259 0.085
72.7883 1.111 0.080
72.8039 1.145 0.081
72.8195 1.191 0.082
72.8352 1.197 0.083
72.8508 1.231 0.084
72.8664 1.311 0.086
72.8820 1.162 0.081
72.8976 1.088 0.079
72.9132 1.151 0.081
72.9289 1.436 0.090
72.9445 1.373 0.088
72.9601 1.185 0.082
72.9757 1.168 0.082
72.9913 1.151 0.081
73.0069 1.214 0.083
73.0225 1.248 0.084
73.0382 1.282 0.085
73.0538 1.219 0.083
73.0694 1.385 0.089
73.0850 1.094 0.079
73.1006 1.265 0.085
73.1162 1.208 0.083
73.1318 1.191 0.082
73.1475 1.328 0.087
73.1631 1.236 0.084
73.1787 1.350 0.088
73.1943 1.311 0.086
73.2099 1.356 0.088
73.2255 1.436 0.090
73.2412 1.413 0.090
73.2568 1.265 0.085
73.2724 1.333 0.087
73.2880 1.385 0.089
73.3036 1.470 0.092
73.3192 1.413 0.090
73.3348 1.504 0.093
73.3505 1.687 0.098
73.3661 1.630 0.096
73.3817 2.086 0.109
73.3973 2.040 0.108
73.4129 2.422 0.117
73.4285 2.992 0.131
73.4442 3.185 0.135
73.4598 3.618 0.144
73.4754 3.966 0.150
73.4910 3.242 0.136
73.5066 2.667 0.123
73.5222 2.450 0.118
73.5378 2.046 0.108
73.5535 1.840 0.102
73.5691 1.863 0.103
73.5847 1.652 0.097
73.6003 1.943 0.105
73.6159 1.818 0.102
73.6315 1.920 0.105
73.6471 2.222 0.113
73.6628 2.445 0.118
73.6784 2.587 0.121
73.6940 2.376 0.116
73.7096 2.011 0.107
73.7252 1.892 0.104
73.7408 1.687 0.098
73.7565 1.510 0.093
73.7721 1.527 0.093
73.7877 1.259 0.085
73.8033 1.333 0.087
73.8189 1.316 0.087
73.8345 1.231 0.084
73.8501 1.356 0.088
73.8658 1.174 0.082
73.8814 1.088 0.079
73.8970 1.151 0.081
73.9126 1.248 0.084
73.9282 1.174 0.082
73.9438 1.208 0.083
73.9594 1.248 0.084
73.9751 1.054 0.078
73.9907 1.128 0.080
74.0063 1.128 0.080
74.0219 1.088 0.079
74.0375 1.288 0.086
74.0531 1.162 0.081
74.0688 1.282 0.085
74.0844 1.248 0.084
74.1000 1.185 0.082
74.1156 1.117 0.080
74.1312 1.157 0.081
74.1468 1.219 0.083
74.1624 1.191 0.082
74.1781 1.185 0.082
74.1937 1.100 0.079
74.2093 1.271 0.085
74.2249 1.288 0.086
74.2405 1.288 0.086
74.2561 1.117 0.080
74.2718 1.031 0.077
74.2874 1.140 0.081
74.3030 1.100 0.079
74.3186 1.180 0.082
74.3342 1.248 0.084
74.3498 1.162 0.081
74.3654 1.185 0.082
74.3811 1.419 0.090
74.3967 1.447 0.091
74.4123 1.430 0.090
74.4279 1.345 0.088
74.4435 1.259 0.085
74.4591 1.339 0.087
74.4747 1.333 0.087
74.4904 1.265 0.085
74.5060 1.168 0.082
74.5216 1.180 0.082
74.5372 1.145 0.081
74.5528 1.214 0.083
74.5684 1.322 0.087
74.5841 1.157 0.081
74.5997 1.208 0.083
74.6153 1.248 0.084
74.6309 1.185 0.082
74.6465 1.242 0.084
74.6621 1.316 0.087
74.6777 1.100 0.079
74.6934 1.225 0.084
74.7090 1.151 0.081
74.7246 1.088 0.079
74.7402 1.134 0.080
74.7558 1.293 0.086
74.7714 0.946 0.073
74.7871 1.123 0.080
74.8027 1.168 0.082
74.8183 1.214 0.083
74.8339 1.054 0.078
74.8495 1.185 0.082
74.8651 1.100 0.079
74.8807 1.180 0.082
74.8964 1.043 0.077
74.9120 1.071 0.078
74.9276 1.174 0.082
74.9432 1.214 0.083
74.9588 1.134 0.080
74.9744 1.180 0.082
74.9900 1.242 0.084
75.0057 1.123 0.080
75.0213 1.174 0.082
75.0369 1.180 0.082
75.0525 1.231 0.084
75.0681 1.054 0.078
75.0837 1.094 0.079
75.0994 0.969 0.074
75.1150 1.219 0.083
75.1306 1.083 0.079
75.1462 1.180 0.082
75.1618 1.083 0.079
75.1774 1.083 0.079
75.1930 1.071 0.078
75.2087 1.197 0.083
75.2243 1.191 0.082
75.2399 1.333 0.087
75.2555 1.134 0.080
75.2711 1.282 0.085
75.2867 1.168 0.082
75.3023 1.299 0.086
75.3180 1.248 0.084
75.3336 1.231 0.084
75.3492 1.276 0.085
75.3648 1.390 0.089
75.3804 1.442 0.091
75.3960 1.299 0.086
75.4117 1.356 0.088
75.4273 1.442 0.091
75.4429 1.333 0.087
75.4585 1.328 0.087
75.4741 1.425 0.090
75.4897 1.419 0.090
75.5053 1.647 0.097
75.5210 1.715 0.099
75.5366 1.573 0.095
75.5522 1.886 0.104
75.5678 1.892 0.104
75.5834 2.217 0.112
75.5990 2.558 0.121
75.6147 3.362 0.138
75.6303 3.516 0.142
75.6459 4.536 0.161
75.6615 4.974 0.168
75.6771 4.473 0.160
75.6927 3.749 0.146
75.7083 3.094 0.133
75.7240 2.741 0.125
75.7396 2.148 0.111
75.7552 2.040 0.108
75.7708 1.892 0.104
75.7864 1.972 0.106
75.8020 1.880 0.104
75.8176 2.188 0.112
75.8333 2.171 0.111
75.8489 2.690 0.124
75.8645 2.860 0.128
75.8801 3.265 0.136
75.8957 2.826 0.127
75.9113 2.564 0.121
75.9270 2.359 0.116
75.9426 1.915 0.104
75.9582 1.744 0.100
75.9738 1.425 0.090
75.9894 1.595 0.095
76.0050 1.350 0.088
76.0206 1.630 0.096
76.0363 1.248 0.084
76.0519 1.368 0.088
76.0675 1.322 0.087
76.0831 1.242 0.084
76.0987 1.396 0.089
76.1143 1.271 0.085
76.1299 1.390 0.089
76.1456 1.299 0.086
76.1612 1.350 0.088
76.1768 1.350 0.088
76.1924 1.140 0.081
76.2080 1.436 0.090
76.2236 1.299 0.086
76.2393 1.333 0.087
76.2549 1.288 0.086
76.2705 1.413 0.090
76.2861 1.208 0.083
76.3017 1.231 0.084
76.3173 1.459 0.091
76.3329 1.419 0.090
76.3486 1.453 0.091
76.3642 1.544 0.094
76.3798 1.521 0.093
76.3954 1.533 0.093
76.4110 1.670 0.098
76.4266 1.812 0.102
76.4423 1.915 0.104
76.4579 2.046 0.108
76.4735 2.536 0.120
76.4891 2.598 0.122
76.5047 3.083 0.133
76.5203 4.103 0.153
76.5359 4.131 0.153
76.5516 4.000 0.151
76.5672 3.949 0.150
76.5828 3.362 0.138
76.5984 2.667 0.123
76.6140 2.274 0.114
76.6296 2.274 0.114
76.6452 2.114 0.110
76.6609 2.046 0.108
76.6765 2.006 0.107
76.6921 1.926 0.105
76.7077 2.234 0.113
76.7233 2.376 0.116
76.7389 2.370 0.116
76.7546 2.541 0.120
76.7702 2.838 0.127
76.7858 2.558 0.121
76.8014 2.410 0.117
76.8170 2.211 0.112
76.8326 1.926 0.105
76.8482 1.840 0.102
76.8639 1.704 0.099
76.8795 1.755 0.100
76.8951 1.538 0.094
76.9107 1.436 0.090
76.9263 1.385 0.089
76.9419 1.299 0.086
76.9575 1.390 0.089
76.9732 1.276 0.085
76.9888 1.345 0.088
77.0044 1.208 0.083
