'Id: "" Comment: "Single 30 min qual/quant raw material scan" Operator: "Paul  Stutzman" Anode: "Cu" Scantype: "Locked Coupled" TimePerStep: "175.496" X: "0" Y: "0" Z: "0" 
20.0000 4.353 0.157
20.0156 4.775 0.165
20.0312 4.217 0.155
20.0468 4.456 0.159
20.0625 4.786 0.165
20.0781 4.821 0.166
20.0937 5.003 0.169
20.1093 5.197 0.172
20.1249 5.601 0.179
20.1405 5.259 0.173
20.1562 5.573 0.178
20.1718 5.647 0.179
20.1874 5.601 0.179
20.2030 5.544 0.178
20.2186 5.556 0.178
20.2342 5.823 0.182
20.2498 5.687 0.180
20.2655 5.767 0.181
20.2811 5.567 0.178
20.2967 5.732 0.181
20.3123 5.903 0.183
20.3279 6.029 0.185
20.3435 6.040 0.186
20.3591 6.331 0.190
20.3748 6.103 0.186
20.3904 6.684 0.195
20.4060 6.627 0.194
20.4216 6.872 0.198
20.4372 7.083 0.201
20.4528 7.334 0.204
20.4685 7.470 0.206
20.4841 7.875 0.212
20.4997 8.251 0.217
20.5153 8.712 0.223
20.5309 9.094 0.228
20.5465 9.265 0.230
20.5621 9.425 0.232
20.5778 10.428 0.244
20.5934 11.014 0.251
20.6090 11.858 0.260
20.6246 12.997 0.272
20.6402 14.616 0.289
20.6558 17.015 0.311
20.6714 20.046 0.338
20.6871 24.798 0.376
20.7027 29.978 0.413
20.7183 38.058 0.466
20.7339 47.973 0.523
20.7495 63.682 0.602
20.7651 84.224 0.693
20.7808 112.134 0.799
20.7964 150.892 0.927
20.8120 201.304 1.071
20.8276 245.282 1.182
20.8432 263.459 1.225
20.8588 238.718 1.166
20.8744 188.283 1.036
20.8901 147.143 0.916
20.9057 112.857 0.802
20.9213 72.423 0.642
20.9369 40.668 0.481
20.9525 23.294 0.364
20.9681 17.197 0.313
20.9838 14.724 0.290
20.9994 12.656 0.269
21.0150 11.693 0.258
21.0306 10.445 0.244
21.0462 9.550 0.233
21.0618 9.356 0.231
21.0774 8.450 0.219
21.0931 7.715 0.210
21.1087 7.425 0.206
21.1243 7.003 0.200
21.1399 6.712 0.196
21.1555 6.650 0.195
21.1711 6.091 0.186
21.1867 6.473 0.192
21.2024 6.063 0.186
21.2180 6.268 0.189
21.2336 5.835 0.182
21.2492 5.767 0.181
21.2648 5.823 0.182
21.2804 5.738 0.181
21.2961 5.385 0.175
21.3117 5.351 0.175
21.3273 5.487 0.177
21.3429 5.430 0.176
21.3585 5.049 0.170
21.3741 5.231 0.173
21.3897 5.294 0.174
21.4054 5.408 0.176
21.4210 5.299 0.174
21.4366 5.328 0.174
21.4522 5.174 0.172
21.4678 4.889 0.167
21.4834 5.128 0.171
21.4990 4.866 0.167
21.5147 5.020 0.169
21.5303 4.519 0.160
21.5459 4.974 0.168
21.5615 4.906 0.167
21.5771 4.621 0.162
21.5927 4.895 0.167
21.6084 4.724 0.164
21.6240 4.872 0.167
21.6396 4.804 0.165
21.6552 4.644 0.163
21.6708 4.729 0.164
21.6864 4.615 0.162
21.7020 4.581 0.162
21.7177 4.576 0.161
21.7333 4.593 0.162
21.7489 4.507 0.160
21.7645 4.365 0.158
21.7801 4.530 0.161
21.7957 4.353 0.157
21.8114 4.581 0.162
21.8270 4.393 0.158
21.8426 4.490 0.160
21.8582 4.547 0.161
21.8738 4.268 0.156
21.8894 4.427 0.159
21.9050 4.507 0.160
21.9207 4.621 0.162
21.9363 4.462 0.159
21.9519 4.496 0.160
21.9675 4.524 0.161
21.9831 4.376 0.158
21.9987 4.405 0.158
22.0143 4.519 0.160
22.0300 4.541 0.161
22.0456 4.650 0.163
22.0612 4.570 0.161
22.0768 4.764 0.165
22.0924 4.633 0.162
22.1080 4.638 0.163
22.1237 4.524 0.161
22.1393 4.285 0.156
22.1549 4.188 0.154
22.1705 4.405 0.158
22.1861 4.006 0.151
22.2017 4.319 0.157
22.2173 4.217 0.155
22.2330 4.473 0.160
22.2486 4.160 0.154
22.2642 4.285 0.156
22.2798 4.296 0.156
22.2954 4.029 0.152
22.3110 4.245 0.156
22.3266 4.205 0.155
22.3423 3.863 0.148
22.3579 4.125 0.153
22.3735 4.051 0.152
22.3891 4.370 0.158
22.4047 4.279 0.156
22.4203 4.148 0.154
22.4360 4.097 0.153
22.4516 4.365 0.158
22.4672 3.761 0.146
22.4828 4.234 0.155
22.4984 3.966 0.150
22.5140 4.148 0.154
22.5296 4.108 0.153
22.5453 4.046 0.152
22.5609 3.989 0.151
22.5765 4.011 0.151
22.5921 4.239 0.155
22.6077 4.097 0.153
22.6233 4.228 0.155
22.6390 4.154 0.154
22.6546 4.245 0.156
22.6702 4.125 0.153
22.6858 4.040 0.152
22.7014 3.880 0.149
22.7170 4.057 0.152
22.7326 4.074 0.152
22.7483 3.983 0.151
22.7639 4.148 0.154
22.7795 4.080 0.152
22.7951 4.080 0.152
22.8107 3.960 0.150
22.8263 4.034 0.152
22.8419 3.704 0.145
22.8576 3.738 0.146
22.8732 3.761 0.146
22.8888 4.234 0.155
22.9044 3.858 0.148
22.9200 4.268 0.156
22.9356 3.880 0.149
22.9513 3.920 0.149
22.9669 4.228 0.155
22.9825 4.211 0.155
22.9981 3.926 0.150
23.0137 3.937 0.150
23.0293 4.011 0.151
23.0449 3.994 0.151
23.0606 4.182 0.154
23.0762 3.806 0.147
23.0918 3.909 0.149
23.1074 3.630 0.144
23.1230 4.011 0.151
23.1386 3.841 0.148
23.1543 3.977 0.151
23.1699 3.709 0.145
23.1855 3.818 0.147
23.2011 3.937 0.150
23.2167 3.846 0.148
23.2323 3.675 0.145
23.2479 3.937 0.150
23.2636 4.268 0.156
23.2792 3.892 0.149
23.2948 3.584 0.143
23.3104 4.125 0.153
23.3260 3.784 0.147
23.3416 3.863 0.148
23.3572 3.955 0.150
23.3729 3.983 0.151
23.3885 3.727 0.146
23.4041 3.812 0.147
23.4197 3.823 0.148
23.4353 4.188 0.154
23.4509 3.852 0.148
23.4666 3.835 0.148
23.4822 4.017 0.151
23.4978 4.086 0.153
23.5134 3.898 0.149
23.5290 3.561 0.142
23.5446 3.681 0.145
23.5602 4.251 0.156
23.5759 4.017 0.151
23.5915 3.852 0.148
23.6071 3.863 0.148
23.6227 3.886 0.149
23.6383 4.211 0.155
23.6539 3.778 0.147
23.6695 3.949 0.150
23.6852 3.749 0.146
23.7008 4.177 0.154
23.7164 3.596 0.143
23.7320 3.977 0.151
23.7476 3.915 0.149
23.7632 4.057 0.152
23.7789 4.131 0.153
23.7945 4.091 0.153
23.8101 4.120 0.153
23.8257 3.932 0.150
23.8413 4.034 0.152
23.8569 4.057 0.152
23.8725 4.040 0.152
23.8882 4.120 0.153
23.9038 4.308 0.157
23.9194 4.570 0.161
23.9350 4.627 0.162
23.9506 5.117 0.171
23.9662 5.618 0.179
23.9819 6.017 0.185
23.9975 6.348 0.190
24.0131 6.445 0.192
24.0287 5.920 0.184
24.0443 5.123 0.171
24.0599 4.502 0.160
24.0755 4.433 0.159
24.0912 4.182 0.154
24.1068 4.011 0.151
24.1224 4.034 0.152
24.1380 3.698 0.145
24.1536 4.120 0.153
24.1692 4.086 0.153
24.1848 4.000 0.151
24.2005 3.863 0.148
24.2161 3.977 0.151
24.2317 3.858 0.148
24.2473 3.778 0.147
24.2629 3.784 0.147
24.2785 3.937 0.150
24.2942 3.972 0.150
24.3098 3.630 0.144
24.3254 3.789 0.147
24.3410 4.046 0.152
24.3566 4.046 0.152
24.3722 3.761 0.146
24.3878 4.217 0.155
24.4035 3.784 0.147
24.4191 4.034 0.152
24.4347 4.034 0.152
24.4503 3.806 0.147
24.4659 3.823 0.148
24.4815 3.841 0.148
24.4971 3.972 0.150
24.5128 3.664 0.144
24.5284 3.972 0.150
24.5440 4.000 0.151
24.5596 3.960 0.150
24.5752 3.875 0.149
24.5908 3.937 0.150
24.6065 3.835 0.148
24.6221 3.886 0.149
24.6377 4.011 0.151
24.6533 3.960 0.150
24.6689 4.114 0.153
24.6845 3.909 0.149
24.7001 3.926 0.150
24.7158 4.057 0.152
24.7314 4.188 0.154
24.7470 3.926 0.150
24.7626 4.097 0.153
24.7782 3.994 0.151
24.7938 4.239 0.155
24.8095 4.137 0.154
24.8251 4.046 0.152
24.8407 4.046 0.152
24.8563 4.029 0.152
24.8719 4.074 0.152
24.8875 4.188 0.154
24.9031 3.886 0.149
24.9188 4.011 0.151
24.9344 4.006 0.151
24.9500 4.131 0.153
24.9656 4.188 0.154
24.9812 4.091 0.153
24.9968 4.103 0.153
25.0124 4.143 0.154
25.0281 4.000 0.151
25.0437 4.160 0.154
25.0593 4.496 0.160
25.0749 4.182 0.154
25.0905 4.205 0.155
25.1061 4.257 0.156
25.1218 3.903 0.149
25.1374 4.450 0.159
25.1530 4.416 0.159
25.1686 4.462 0.159
25.1842 4.137 0.154
25.1998 4.382 0.158
25.2154 4.530 0.161
25.2311 4.519 0.160
25.2467 4.502 0.160
25.2623 4.376 0.158
25.2779 4.496 0.160
25.2935 4.467 0.160
25.3091 4.439 0.159
25.3247 4.621 0.162
25.3404 4.399 0.158
25.3560 4.313 0.157
25.3716 4.690 0.163
25.3872 4.564 0.161
25.4028 4.690 0.163
25.4184 4.684 0.163
25.4341 4.980 0.168
25.4497 5.294 0.174
25.4653 4.963 0.168
25.4809 4.895 0.167
25.4965 5.237 0.173
25.5121 5.487 0.177
25.5277 5.408 0.176
25.5434 5.333 0.174
25.5590 5.590 0.178
25.5746 5.596 0.179
25.5902 5.892 0.183
25.6058 6.080 0.186
25.6214 5.960 0.184
25.6371 6.342 0.190
25.6527 6.815 0.197
25.6683 7.413 0.206
25.6839 7.858 0.212
25.6995 8.946 0.226
25.7151 9.607 0.234
25.7307 9.772 0.236
25.7464 9.675 0.235
25.7620 10.228 0.241
25.7776 10.200 0.241
25.7932 10.108 0.240
25.8088 10.200 0.241
25.8244 10.302 0.242
25.8400 11.083 0.251
25.8557 10.587 0.246
25.8713 10.730 0.247
25.8869 11.254 0.253
25.9025 10.758 0.248
25.9181 11.305 0.254
25.9337 11.254 0.253
25.9494 11.379 0.255
25.9650 11.573 0.257
25.9806 12.422 0.266
25.9962 11.812 0.259
26.0118 12.006 0.262
26.0274 12.017 0.262
26.0430 12.262 0.264
26.0587 12.758 0.270
26.0743 12.650 0.268
26.0899 12.627 0.268
26.1055 13.499 0.277
26.1211 13.989 0.282
26.1367 14.582 0.288
26.1523 15.111 0.293
26.1680 16.297 0.305
26.1836 17.300 0.314
26.1992 17.624 0.317
26.2148 19.653 0.335
26.2304 19.943 0.337
26.2460 22.747 0.360
26.2617 24.166 0.371
26.2773 25.465 0.381
26.2929 27.545 0.396
26.3085 29.556 0.410
26.3241 30.958 0.420
26.3397 33.106 0.434
26.3553 35.796 0.452
26.3710 36.873 0.458
26.3866 40.018 0.478
26.4022 43.198 0.496
26.4178 47.574 0.521
26.4334 54.007 0.555
26.4490 63.426 0.601
26.4647 78.839 0.670
26.4803 97.854 0.747
26.4959 124.977 0.844
26.5115 163.058 0.964
26.5271 222.495 1.126
26.5427 307.329 1.323
26.5583 442.979 1.589
26.5740 637.319 1.906
26.5896 891.696 2.254
26.6052 1178.534 2.591
26.6208 1343.643 2.767
26.6364 1244.074 2.662
26.6520 977.527 2.360
26.6676 787.602 2.118
26.6833 698.369 1.995
26.6989 584.646 1.825
26.7145 388.362 1.488
26.7301 211.298 1.097
26.7457 114.407 0.807
26.7613 77.677 0.665
26.7770 59.768 0.584
26.7926 51.574 0.542
26.8082 44.018 0.501
26.8238 39.505 0.474
26.8394 35.157 0.448
26.8550 30.445 0.417
26.8706 26.969 0.392
26.8863 25.454 0.381
26.9019 22.399 0.357
26.9175 20.234 0.340
26.9331 19.983 0.337
26.9487 18.684 0.326
26.9643 17.550 0.316
26.9799 16.205 0.304
26.9956 16.422 0.306
27.0112 15.123 0.294
27.0268 14.314 0.286
27.0424 14.354 0.286
27.0580 13.550 0.278
27.0736 13.174 0.274
27.0893 13.049 0.273
27.1049 12.405 0.266
27.1205 12.200 0.264
27.1361 11.556 0.257
27.1517 11.288 0.254
27.1673 11.277 0.253
27.1829 11.026 0.251
27.1986 11.089 0.251
27.2142 10.456 0.244
27.2298 10.052 0.239
27.2454 10.000 0.239
27.2610 9.949 0.238
27.2766 9.459 0.232
27.2923 9.504 0.233
27.3079 9.111 0.228
27.3235 8.861 0.225
27.3391 8.866 0.225
27.3547 8.923 0.225
27.3703 8.633 0.222
27.3859 8.633 0.222
27.4016 8.638 0.222
27.4172 8.296 0.217
27.4328 8.405 0.219
27.4484 7.983 0.213
27.4640 8.342 0.218
27.4796 8.228 0.217
27.4952 8.154 0.216
27.5109 7.231 0.203
27.5265 7.636 0.209
27.5421 7.385 0.205
27.5577 7.288 0.204
27.5733 7.385 0.205
27.5889 7.202 0.203
27.6046 7.504 0.207
27.6202 7.231 0.203
27.6358 7.220 0.203
27.6514 7.442 0.206
27.6670 7.123 0.201
27.6826 6.661 0.195
27.6982 6.866 0.198
27.7139 6.644 0.195
27.7295 6.997 0.200
27.7451 6.747 0.196
27.7607 6.678 0.195
27.7763 6.302 0.190
27.7919 6.718 0.196
27.8076 6.576 0.194
27.8232 6.416 0.191
27.8388 6.410 0.191
27.8544 6.228 0.188
27.8700 6.086 0.186
27.8856 5.692 0.180
27.9012 6.348 0.190
27.9169 5.915 0.184
27.9325 6.239 0.189
27.9481 6.450 0.192
27.9637 6.331 0.190
27.9793 5.903 0.183
27.9949 6.063 0.186
28.0105 6.279 0.189
28.0262 5.846 0.183
28.0418 6.040 0.186
28.0574 6.023 0.185
28.0730 5.784 0.182
28.0886 6.046 0.186
28.1042 5.755 0.181
28.1199 5.687 0.180
28.1355 5.732 0.181
28.1511 5.869 0.183
28.1667 5.767 0.181
28.1823 5.653 0.179
28.1979 5.618 0.179
28.2135 5.681 0.180
28.2292 5.658 0.180
28.2448 5.425 0.176
28.2604 5.487 0.177
28.2760 4.895 0.167
28.2916 5.390 0.175
28.3072 5.316 0.174
28.3228 5.607 0.179
28.3385 5.721 0.181
28.3541 5.419 0.176
28.3697 5.225 0.173
28.3853 5.436 0.176
28.4009 5.504 0.177
28.4165 5.379 0.175
28.4322 5.368 0.175
28.4478 5.197 0.172
28.4634 5.180 0.172
28.4790 5.219 0.172
28.4946 5.635 0.179
28.5102 4.906 0.167
28.5258 4.912 0.167
28.5415 5.168 0.172
28.5571 5.014 0.169
28.5727 5.322 0.174
28.5883 4.923 0.167
28.6039 4.809 0.166
28.6195 5.288 0.174
28.6352 4.940 0.168
28.6508 5.163 0.172
28.6664 5.049 0.170
28.6820 4.923 0.167
28.6976 4.986 0.169
28.7132 4.917 0.167
28.7288 5.237 0.173
28.7445 4.855 0.166
28.7601 5.299 0.174
28.7757 4.826 0.166
28.7913 4.889 0.167
28.8069 4.855 0.166
28.8225 4.610 0.162
28.8381 5.174 0.172
28.8538 4.906 0.167
28.8694 5.009 0.169
28.8850 4.986 0.169
28.9006 4.701 0.164
28.9162 5.066 0.170
28.9318 4.576 0.161
28.9475 4.547 0.161
28.9631 4.809 0.166
28.9787 5.037 0.169
28.9943 4.946 0.168
29.0099 4.815 0.166
29.0255 4.895 0.167
29.0411 4.986 0.169
29.0568 4.946 0.168
29.0724 4.718 0.164
29.0880 5.009 0.169
29.1036 4.855 0.166
29.1192 4.752 0.165
29.1348 4.997 0.169
29.1504 4.883 0.167
29.1661 4.815 0.166
29.1817 4.484 0.160
29.1973 4.581 0.162
29.2129 4.439 0.159
29.2285 4.399 0.158
29.2441 4.388 0.158
29.2598 4.758 0.165
29.2754 4.684 0.163
29.2910 4.633 0.162
29.3066 4.564 0.161
29.3222 4.963 0.168
29.3378 5.083 0.170
29.3534 4.872 0.167
29.3691 4.786 0.165
29.3847 4.752 0.165
29.4003 4.598 0.162
29.4159 5.060 0.170
29.4315 4.929 0.168
29.4471 4.502 0.160
29.4628 4.553 0.161
29.4784 4.388 0.158
29.4940 4.610 0.162
29.5096 4.615 0.162
29.5252 4.541 0.161
29.5408 4.165 0.154
29.5564 4.547 0.161
29.5721 4.245 0.156
29.5877 4.313 0.157
29.6033 4.359 0.158
29.6189 4.319 0.157
29.6345 4.205 0.155
29.6501 4.296 0.156
29.6657 4.217 0.155
29.6814 4.040 0.152
29.6970 4.388 0.158
29.7126 4.268 0.156
29.7282 4.131 0.153
29.7438 4.262 0.156
29.7594 4.416 0.159
29.7751 4.302 0.157
29.7907 4.171 0.154
29.8063 4.200 0.155
29.8219 4.359 0.158
29.8375 4.285 0.156
29.8531 4.217 0.155
29.8687 4.154 0.154
29.8844 3.920 0.149
29.9000 4.393 0.158
29.9156 3.915 0.149
29.9312 4.051 0.152
29.9468 4.171 0.154
29.9624 4.302 0.157
29.9780 4.063 0.152
29.9937 4.006 0.151
30.0093 3.960 0.150
30.0249 3.812 0.147
30.0405 3.869 0.148
30.0561 4.017 0.151
30.0717 3.983 0.151
30.0874 4.302 0.157
30.1030 4.034 0.152
30.1186 4.063 0.152
30.1342 3.994 0.151
30.1498 4.165 0.154
30.1654 4.296 0.156
30.1810 3.983 0.151
30.1967 4.068 0.152
30.2123 3.989 0.151
30.2279 4.017 0.151
30.2435 4.120 0.153
30.2591 4.160 0.154
30.2747 3.806 0.147
30.2904 3.744 0.146
30.3060 4.063 0.152
30.3216 3.761 0.146
30.3372 4.017 0.151
30.3528 3.681 0.145
30.3684 4.137 0.154
30.3840 3.829 0.148
30.3997 3.635 0.144
30.4153 3.915 0.149
30.4309 3.732 0.146
30.4465 3.949 0.150
30.4621 4.023 0.151
30.4777 3.778 0.147
30.4933 3.738 0.146
30.5090 3.658 0.144
30.5246 3.812 0.147
30.5402 3.784 0.147
30.5558 3.835 0.148
30.5714 3.590 0.143
30.5870 3.533 0.142
30.6027 3.516 0.142
30.6183 3.766 0.146
30.6339 3.932 0.150
30.6495 3.453 0.140
30.6651 3.898 0.149
30.6807 3.447 0.140
30.6963 3.972 0.150
30.7120 3.835 0.148
30.7276 3.761 0.146
30.7432 3.801 0.147
30.7588 3.698 0.145
30.7744 3.430 0.140
30.7900 3.630 0.144
30.8056 3.755 0.146
30.8213 3.915 0.149
30.8369 3.590 0.143
30.8525 3.835 0.148
30.8681 3.596 0.143
30.8837 3.772 0.147
30.8993 4.165 0.154
30.9150 3.578 0.143
30.9306 3.858 0.148
30.9462 3.704 0.145
30.9618 3.920 0.149
30.9774 3.778 0.147
30.9930 3.727 0.146
31.0086 3.653 0.144
31.0243 3.829 0.148
31.0399 3.858 0.148
31.0555 3.527 0.142
31.0711 3.806 0.147
31.0867 3.812 0.147
31.1023 3.442 0.140
31.1180 3.504 0.141
31.1336 3.453 0.140
31.1492 3.430 0.140
31.1648 3.464 0.141
31.1804 3.727 0.146
31.1960 3.653 0.144
31.2116 3.402 0.139
31.2273 3.396 0.139
31.2429 3.459 0.140
31.2585 3.584 0.143
31.2741 3.578 0.143
31.2897 3.162 0.134
31.3053 3.487 0.141
31.3209 3.516 0.142
31.3366 3.818 0.147
31.3522 3.544 0.142
31.3678 3.556 0.142
31.3834 3.510 0.141
31.3990 3.510 0.141
31.4146 3.516 0.142
31.4303 3.499 0.141
31.4459 3.499 0.141
31.4615 3.425 0.140
31.4771 3.276 0.137
31.4927 3.464 0.141
31.5083 3.351 0.138
31.5239 3.504 0.141
31.5396 3.430 0.140
31.5552 3.248 0.136
31.5708 3.425 0.140
31.5864 3.311 0.137
31.6020 3.356 0.138
31.6176 3.447 0.140
31.6332 3.482 0.141
31.6489 3.368 0.139
31.6645 3.333 0.138
31.6801 3.248 0.136
31.6957 3.328 0.138
31.7113 3.225 0.136
31.7269 3.299 0.137
31.7426 3.322 0.138
31.7582 3.379 0.139
31.7738 3.265 0.136
31.7894 3.259 0.136
31.8050 3.162 0.134
31.8206 3.345 0.138
31.8362 3.351 0.138
31.8519 3.214 0.135
31.8675 3.339 0.138
31.8831 2.992 0.131
31.8987 3.294 0.137
31.9143 3.351 0.138
31.9299 3.140 0.134
31.9456 3.214 0.135
31.9612 3.276 0.137
31.9768 3.521 0.142
31.9924 3.436 0.140
32.0080 3.402 0.139
32.0236 3.351 0.138
32.0392 3.288 0.137
32.0549 3.419 0.140
32.0705 3.162 0.134
32.0861 3.550 0.142
32.1017 3.396 0.139
32.1173 3.447 0.140
32.1329 3.521 0.142
32.1485 3.607 0.143
32.1642 3.487 0.141
32.1798 3.510 0.141
32.1954 3.704 0.145
32.2110 3.521 0.142
32.2266 3.516 0.142
32.2422 3.464 0.141
32.2579 3.390 0.139
32.2735 3.407 0.139
32.2891 3.567 0.143
32.3047 3.151 0.134
32.3203 3.516 0.142
32.3359 3.578 0.143
32.3515 3.459 0.140
32.3672 3.407 0.139
32.3828 3.333 0.138
32.3984 3.333 0.138
32.4140 3.134 0.134
32.4296 3.145 0.134
32.4452 3.345 0.138
32.4608 3.379 0.139
32.4765 3.276 0.137
32.4921 3.419 0.140
32.5077 3.425 0.140
32.5233 3.442 0.140
32.5389 3.339 0.138
32.5545 3.339 0.138
32.5702 3.276 0.137
32.5858 3.613 0.143
32.6014 3.105 0.133
32.6170 3.499 0.141
32.6326 3.385 0.139
32.6482 3.151 0.134
32.6638 3.294 0.137
32.6795 3.219 0.135
32.6951 3.311 0.137
32.7107 3.442 0.140
32.7263 3.185 0.135
32.7419 2.855 0.128
32.7575 3.197 0.135
32.7732 3.185 0.135
32.7888 2.969 0.130
32.8044 3.117 0.133
32.8200 3.276 0.137
32.8356 2.832 0.127
32.8512 3.305 0.137
32.8668 3.276 0.137
32.8825 3.248 0.136
32.8981 3.197 0.135
32.9137 3.003 0.131
32.9293 3.413 0.139
32.9449 3.105 0.133
32.9605 3.105 0.133
32.9761 3.596 0.143
32.9918 3.254 0.136
33.0074 2.997 0.131
33.0230 2.992 0.131
33.0386 3.157 0.134
33.0542 3.271 0.137
33.0698 3.162 0.134
33.0855 2.974 0.130
33.1011 2.935 0.129
33.1167 2.992 0.131
33.1323 3.111 0.133
33.1479 3.219 0.135
33.1635 3.128 0.134
33.1791 3.071 0.132
33.1948 3.407 0.139
33.2104 3.351 0.138
33.2260 3.402 0.139
33.2416 3.351 0.138
33.2572 3.088 0.133
33.2728 3.282 0.137
33.2885 3.145 0.134
33.3041 3.128 0.134
33.3197 3.214 0.135
33.3353 3.282 0.137
33.3509 2.946 0.130
33.3665 2.917 0.129
33.3821 3.094 0.133
33.3978 2.986 0.130
33.4134 3.105 0.133
33.4290 2.832 0.127
33.4446 2.952 0.130
33.4602 2.866 0.128
33.4758 2.895 0.128
33.4914 2.923 0.129
33.5071 2.952 0.130
33.5227 2.878 0.128
33.5383 2.775 0.126
33.5539 2.866 0.128
33.5695 2.735 0.125
33.5851 2.838 0.127
33.6008 3.208 0.135
33.6164 3.094 0.133
33.6320 3.077 0.132
33.6476 3.151 0.134
33.6632 2.974 0.130
33.6788 3.162 0.134
33.6944 2.980 0.130
33.7101 3.145 0.134
33.7257 2.906 0.129
33.7413 2.855 0.128
33.7569 2.872 0.128
33.7725 2.940 0.129
33.7881 2.644 0.123
33.8037 2.912 0.129
33.8194 2.798 0.126
33.8350 2.815 0.127
33.8506 3.003 0.131
33.8662 2.974 0.130
33.8818 2.781 0.126
33.8974 2.969 0.130
33.9131 3.003 0.131
33.9287 2.917 0.129
33.9443 2.912 0.129
33.9599 2.849 0.127
33.9755 2.786 0.126
33.9911 2.878 0.128
34.0067 3.031 0.131
34.0224 3.083 0.133
34.0380 2.809 0.127
34.0536 2.878 0.128
34.0692 2.741 0.125
34.0848 2.815 0.127
34.1004 2.684 0.124
34.1161 2.672 0.123
34.1317 2.889 0.128
34.1473 3.026 0.131
34.1629 2.900 0.129
34.1785 2.690 0.124
34.1941 3.031 0.131
34.2097 2.860 0.128
34.2254 2.923 0.129
34.2410 2.775 0.126
34.2566 2.798 0.126
34.2722 2.587 0.121
34.2878 2.724 0.125
34.3034 2.878 0.128
34.3190 3.043 0.132
34.3347 3.054 0.132
34.3503 3.026 0.131
34.3659 3.014 0.131
34.3815 2.872 0.128
34.3971 2.707 0.124
34.4127 2.952 0.130
34.4284 2.758 0.125
34.4440 2.598 0.122
34.4596 2.650 0.123
34.4752 2.997 0.131
34.4908 2.826 0.127
34.5064 2.712 0.124
34.5220 2.672 0.123
34.5377 2.604 0.122
34.5533 2.695 0.124
34.5689 2.741 0.125
34.5845 2.815 0.127
34.6001 2.524 0.120
34.6157 2.878 0.128
34.6313 2.963 0.130
34.6470 2.570 0.121
34.6626 2.872 0.128
34.6782 2.952 0.130
34.6938 2.724 0.125
34.7094 2.672 0.123
34.7250 2.809 0.127
34.7407 2.872 0.128
34.7563 2.798 0.126
34.7719 3.031 0.131
34.7875 2.661 0.123
34.8031 2.963 0.130
34.8187 2.860 0.128
34.8343 2.889 0.128
34.8500 2.792 0.126
34.8656 2.792 0.126
34.8812 2.895 0.128
34.8968 2.667 0.123
34.9124 2.843 0.127
34.9280 2.672 0.123
34.9437 2.855 0.128
34.9593 2.957 0.130
34.9749 2.741 0.125
34.9905 2.992 0.131
35.0061 3.157 0.134
35.0217 2.969 0.130
35.0373 3.299 0.137
35.0530 3.231 0.136
35.0686 3.464 0.141
35.0842 3.265 0.136
35.0998 3.476 0.141
35.1154 3.516 0.142
35.1310 3.533 0.142
35.1466 3.692 0.145
35.1623 3.721 0.146
35.1779 3.618 0.144
35.1935 3.926 0.150
35.2091 3.675 0.145
35.2247 3.607 0.143
35.2403 3.385 0.139
35.2560 3.561 0.142
35.2716 3.430 0.140
35.2872 3.345 0.138
35.3028 3.185 0.135
35.3184 3.322 0.138
35.3340 3.197 0.135
35.3496 3.191 0.135
35.3653 3.117 0.133
35.3809 2.940 0.129
35.3965 2.935 0.129
35.4121 3.248 0.136
35.4277 3.128 0.134
35.4433 3.231 0.136
35.4589 3.060 0.132
35.4746 3.117 0.133
35.4902 2.940 0.129
35.5058 3.145 0.134
35.5214 3.014 0.131
35.5370 3.094 0.133
35.5526 3.037 0.132
35.5683 2.883 0.128
35.5839 2.935 0.129
35.5995 2.974 0.130
35.6151 3.094 0.133
35.6307 2.866 0.128
35.6463 3.242 0.136
35.6619 3.140 0.134
35.6776 3.049 0.132
35.6932 2.906 0.129
35.7088 2.883 0.128
35.7244 3.214 0.135
35.7400 2.895 0.128
35.7556 3.083 0.133
35.7713 2.917 0.129
35.7869 2.821 0.127
35.8025 2.946 0.130
35.8181 2.980 0.130
35.8337 2.935 0.129
35.8493 2.940 0.129
35.8649 2.900 0.129
35.8806 3.157 0.134
35.8962 2.992 0.131
35.9118 2.974 0.130
35.9274 2.974 0.130
35.9430 3.128 0.134
35.9586 3.202 0.135
35.9742 3.054 0.132
35.9899 3.049 0.132
36.0055 3.299 0.137
36.0211 3.134 0.134
36.0367 3.254 0.136
36.0523 3.259 0.136
36.0679 3.447 0.140
36.0836 3.180 0.135
36.0992 3.561 0.142
36.1148 3.596 0.143
36.1304 3.664 0.144
36.1460 3.806 0.147
36.1616 3.607 0.143
36.1772 4.040 0.152
36.1929 4.091 0.153
36.2085 4.006 0.151
36.2241 4.570 0.161
36.2397 4.547 0.161
36.2553 5.043 0.170
36.2709 5.259 0.173
36.2865 5.305 0.174
36.3022 5.653 0.179
36.3178 6.000 0.185
36.3334 6.091 0.186
36.3490 6.775 0.196
36.3646 7.544 0.207
36.3802 8.393 0.219
36.3959 9.430 0.232
36.4115 11.607 0.257
36.4271 15.180 0.294
36.4427 20.359 0.341
36.4583 28.588 0.404
36.4739 38.434 0.468
36.4895 53.500 0.552
36.5052 71.295 0.637
36.5208 86.652 0.703
36.5364 85.039 0.696
36.5520 69.061 0.627
36.5676 51.232 0.540
36.5832 41.072 0.484
36.5989 42.935 0.495
36.6145 46.161 0.513
36.6301 43.528 0.498
36.6457 34.673 0.444
36.6613 21.596 0.351
36.6769 12.764 0.270
36.6925 9.128 0.228
36.7082 7.214 0.203
36.7238 6.382 0.191
36.7394 5.772 0.181
36.7550 5.271 0.173
36.7706 4.889 0.167
36.7862 4.826 0.166
36.8018 4.650 0.163
36.8175 4.171 0.154
36.8331 3.977 0.151
36.8487 3.852 0.148
36.8643 3.789 0.147
36.8799 3.732 0.146
36.8955 3.681 0.145
36.9112 3.744 0.146
36.9268 3.561 0.142
36.9424 3.510 0.141
36.9580 3.453 0.140
36.9736 3.453 0.140
36.9892 3.653 0.144
37.0048 3.339 0.138
37.0205 3.197 0.135
37.0361 3.390 0.139
37.0517 3.197 0.135
37.0673 3.168 0.134
37.0829 3.077 0.132
37.0985 3.185 0.135
37.1141 3.151 0.134
37.1298 3.031 0.131
37.1454 3.026 0.131
37.1610 2.974 0.130
37.1766 3.031 0.131
37.1922 3.077 0.132
37.2078 3.060 0.132
37.2235 3.117 0.133
37.2391 2.718 0.124
37.2547 2.889 0.128
37.2703 2.912 0.129
37.2859 3.066 0.132
37.3015 2.912 0.129
37.3171 2.684 0.124
37.3328 2.912 0.129
37.3484 2.974 0.130
37.3640 2.741 0.125
37.3796 2.878 0.128
37.3952 2.826 0.127
37.4108 2.678 0.124
37.4265 2.952 0.130
37.4421 2.724 0.125
37.4577 2.735 0.125
37.4733 2.729 0.125
37.4889 2.946 0.130
37.5045 2.969 0.130
37.5201 2.633 0.122
37.5358 3.071 0.132
37.5514 2.798 0.126
37.5670 2.536 0.120
37.5826 2.644 0.123
37.5982 2.576 0.121
37.6138 2.849 0.127
37.6294 2.695 0.124
37.6451 2.701 0.124
37.6607 2.758 0.125
37.6763 3.077 0.132
37.6919 2.912 0.129
37.7075 2.912 0.129
37.7231 2.764 0.125
37.7388 3.071 0.132
37.7544 3.014 0.131
37.7700 2.878 0.128
37.7856 2.940 0.129
37.8012 2.957 0.130
37.8168 2.638 0.123
37.8324 2.672 0.123
37.8481 2.627 0.122
37.8637 2.809 0.127
37.8793 2.855 0.128
37.8949 2.695 0.124
37.9105 2.889 0.128
37.9261 2.593 0.122
37.9417 2.604 0.122
37.9574 2.655 0.123
37.9730 2.684 0.124
37.9886 2.661 0.123
38.0042 2.764 0.125
38.0198 2.792 0.126
38.0354 2.718 0.124
38.0511 2.826 0.127
38.0667 2.849 0.127
38.0823 2.638 0.123
38.0979 2.718 0.124
38.1135 2.769 0.126
38.1291 2.775 0.126
38.1447 2.655 0.123
38.1604 3.191 0.135
38.1760 2.900 0.129
38.1916 3.105 0.133
38.2072 2.946 0.130
38.2228 2.786 0.126
38.2384 2.843 0.127
38.2541 2.786 0.126
38.2697 2.678 0.124
38.2853 2.627 0.122
38.3009 2.843 0.127
38.3165 2.781 0.126
38.3321 2.849 0.127
38.3477 2.923 0.129
38.3634 2.917 0.129
38.3790 2.564 0.121
38.3946 2.974 0.130
38.4102 2.672 0.123
38.4258 2.775 0.126
38.4414 2.650 0.123
38.4570 2.718 0.124
38.4727 2.758 0.125
38.4883 2.655 0.123
38.5039 2.644 0.123
38.5195 2.741 0.125
38.5351 2.952 0.130
38.5507 2.581 0.121
38.5664 2.809 0.127
38.5820 3.066 0.132
38.5976 2.895 0.128
38.6132 2.661 0.123
38.6288 2.712 0.124
38.6444 2.769 0.126
38.6600 2.929 0.129
38.6757 2.769 0.126
38.6913 2.724 0.125
38.7069 2.952 0.130
38.7225 2.786 0.126
38.7381 2.986 0.130
38.7537 2.672 0.123
38.7694 2.570 0.121
38.7850 3.066 0.132
38.8006 2.935 0.129
38.8162 3.049 0.132
38.8318 2.855 0.128
38.8474 3.105 0.133
38.8630 3.180 0.135
38.8787 2.957 0.130
38.8943 3.043 0.132
38.9099 3.151 0.134
38.9255 3.094 0.133
38.9411 3.305 0.137
38.9567 3.208 0.135
38.9723 3.248 0.136
38.9880 2.974 0.130
39.0036 3.237 0.136
39.0192 3.316 0.137
39.0348 3.430 0.140
39.0504 3.356 0.138
39.0660 3.521 0.142
39.0817 3.578 0.143
39.0973 3.949 0.150
39.1129 4.068 0.152
39.1285 4.456 0.159
39.1441 4.502 0.160
39.1597 4.416 0.159
39.1753 4.382 0.158
39.1910 4.473 0.160
39.2066 4.855 0.166
39.2222 5.128 0.171
39.2378 5.225 0.173
39.2534 5.983 0.185
39.2690 5.789 0.182
39.2846 6.182 0.188
39.3003 7.345 0.205
39.3159 8.251 0.217
39.3315 9.841 0.237
39.3471 12.581 0.268
39.3627 16.234 0.304
39.3783 22.667 0.359
39.3940 30.918 0.420
39.4096 42.052 0.490
39.4252 56.394 0.567
39.4408 66.093 0.614
39.4564 68.372 0.624
39.4720 56.332 0.567
39.4876 39.351 0.474
39.5033 31.835 0.426
39.5189 31.533 0.424
39.5345 34.855 0.446
39.5501 35.864 0.452
39.5657 32.103 0.428
39.5813 23.539 0.366
39.5970 14.718 0.290
39.6126 9.436 0.232
39.6282 7.356 0.205
39.6438 6.091 0.186
39.6594 5.527 0.177
39.6750 5.493 0.177
39.6906 4.661 0.163
39.7063 4.650 0.163
39.7219 4.063 0.152
39.7375 3.898 0.149
39.7531 4.046 0.152
39.7687 4.029 0.152
39.7843 3.721 0.146
39.7999 3.738 0.146
39.8156 3.584 0.143
39.8312 3.607 0.143
39.8468 3.613 0.143
39.8624 3.601 0.143
39.8780 3.755 0.146
39.8936 3.630 0.144
39.9093 3.806 0.147
39.9249 3.863 0.148
39.9405 3.641 0.144
39.9561 3.955 0.150
39.9717 3.675 0.145
39.9873 4.091 0.153
40.0029 3.994 0.151
40.0186 4.023 0.151
40.0342 4.222 0.155
40.0498 4.182 0.154
40.0654 4.650 0.163
40.0810 4.678 0.163
40.0966 4.809 0.166
40.1122 4.935 0.168
40.1279 5.544 0.178
40.1435 6.433 0.191
40.1591 7.311 0.204
40.1747 8.764 0.223
40.1903 11.328 0.254
40.2059 15.425 0.296
40.2216 20.673 0.343
40.2372 27.807 0.398
40.2528 35.898 0.452
40.2684 42.206 0.490
40.2840 41.471 0.486
40.2996 32.633 0.431
40.3152 23.738 0.368
40.3309 18.097 0.321
40.3465 19.795 0.336
40.3621 22.234 0.356
40.3777 23.180 0.363
40.3933 19.989 0.337
40.4089 15.168 0.294
40.4246 9.533 0.233
40.4402 6.673 0.195
40.4558 5.356 0.175
40.4714 4.821 0.166
40.4870 4.279 0.156
40.5026 3.937 0.150
40.5182 3.841 0.148
40.5339 3.647 0.144
40.5495 3.499 0.141
40.5651 3.225 0.136
40.5807 3.407 0.139
40.5963 3.322 0.138
40.6119 3.265 0.136
40.6275 3.265 0.136
40.6432 3.117 0.133
40.6588 3.180 0.135
40.6744 3.014 0.131
40.6900 3.009 0.131
40.7056 2.860 0.128
40.7212 3.117 0.133
40.7369 3.145 0.134
40.7525 3.242 0.136
40.7681 3.117 0.133
40.7837 3.168 0.134
40.7993 3.094 0.133
40.8149 3.117 0.133
40.8305 3.299 0.137
40.8462 3.071 0.132
40.8618 3.031 0.131
40.8774 3.390 0.139
40.8930 3.151 0.134
40.9086 3.259 0.136
40.9242 3.174 0.134
40.9398 3.094 0.133
40.9555 3.162 0.134
40.9711 2.986 0.130
40.9867 2.786 0.126
41.0023 2.952 0.130
41.0179 2.946 0.130
41.0335 2.929 0.129
41.0492 2.963 0.130
41.0648 3.003 0.131
41.0804 2.872 0.128
41.0960 2.946 0.130
41.1116 3.049 0.132
41.1272 2.758 0.125
41.1428 3.043 0.132
41.1585 2.672 0.123
41.1741 2.775 0.126
41.1897 2.929 0.129
41.2053 3.111 0.133
41.2209 2.929 0.129
41.2365 3.066 0.132
41.2522 2.940 0.129
41.2678 2.786 0.126
41.2834 3.020 0.131
41.2990 3.071 0.132
41.3146 2.553 0.121
41.3302 2.707 0.124
41.3458 2.855 0.128
41.3615 2.952 0.130
41.3771 2.906 0.129
41.3927 2.604 0.122
41.4083 2.900 0.129
41.4239 2.501 0.119
41.4395 2.501 0.119
41.4551 2.957 0.130
41.4708 2.650 0.123
41.4864 2.610 0.122
41.5020 2.815 0.127
41.5176 2.729 0.125
41.5332 2.969 0.130
41.5488 2.809 0.127
41.5645 2.815 0.127
41.5801 2.900 0.129
41.5957 2.974 0.130
41.6113 2.889 0.128
41.6269 2.615 0.122
41.6425 2.963 0.130
41.6581 2.832 0.127
41.6738 2.798 0.126
41.6894 2.980 0.130
41.7050 2.701 0.124
41.7206 2.718 0.124
41.7362 2.593 0.122
41.7518 2.712 0.124
41.7674 2.838 0.127
41.7831 2.900 0.129
41.7987 2.764 0.125
41.8143 2.923 0.129
41.8299 2.729 0.125
41.8455 2.747 0.125
41.8611 3.145 0.134
41.8768 2.838 0.127
41.8924 2.718 0.124
41.9080 2.718 0.124
41.9236 2.724 0.125
41.9392 2.781 0.126
41.9548 2.986 0.130
41.9704 2.917 0.129
41.9861 2.900 0.129
42.0017 3.071 0.132
42.0173 3.111 0.133
42.0329 3.066 0.132
42.0485 3.442 0.140
42.0641 3.482 0.141
42.0798 3.567 0.143
42.0954 3.413 0.139
42.1110 3.789 0.147
42.1266 3.727 0.146
42.1422 4.108 0.153
42.1578 4.143 0.154
42.1734 4.399 0.158
42.1891 4.405 0.158
42.2047 4.672 0.163
42.2203 4.935 0.168
42.2359 5.140 0.171
42.2515 5.539 0.178
42.2671 5.920 0.184
42.2827 6.222 0.188
42.2984 7.123 0.201
42.3140 8.359 0.218
42.3296 10.826 0.248
42.3452 13.938 0.282
42.3608 18.673 0.326
42.3764 26.297 0.387
42.3921 35.784 0.452
42.4077 47.990 0.523
42.4233 59.232 0.581
42.4389 61.551 0.592
42.4545 51.733 0.543
42.4701 36.913 0.459
42.4857 28.018 0.400
42.5014 26.257 0.387
42.5170 29.260 0.408
42.5326 32.576 0.431
42.5482 32.291 0.429
42.5638 27.585 0.396
42.5794 19.186 0.331
42.5950 12.143 0.263
42.6107 8.291 0.217
42.6263 6.137 0.187
42.6419 5.442 0.176
42.6575 5.094 0.170
42.6731 4.496 0.160
42.6887 4.051 0.152
42.7044 4.011 0.151
42.7200 3.869 0.148
42.7356 3.607 0.143
42.7512 3.510 0.141
42.7668 3.533 0.142
42.7824 3.214 0.135
42.7980 3.231 0.136
42.8137 3.180 0.135
42.8293 3.140 0.134
42.8449 3.265 0.136
42.8605 3.020 0.131
42.8761 2.952 0.130
42.8917 3.043 0.132
42.9074 2.866 0.128
42.9230 2.940 0.129
42.9386 2.952 0.130
42.9542 2.935 0.129
42.9698 3.020 0.131
42.9854 2.997 0.131
43.0010 2.815 0.127
43.0167 3.259 0.136
43.0323 2.832 0.127
43.0479 2.883 0.128
43.0635 2.883 0.128
43.0791 2.821 0.127
43.0947 2.821 0.127
43.1103 2.667 0.123
43.1260 2.741 0.125
43.1416 2.860 0.128
43.1572 3.162 0.134
43.1728 2.821 0.127
43.1884 2.917 0.129
43.2040 3.009 0.131
43.2197 2.900 0.129
43.2353 3.009 0.131
43.2509 3.060 0.132
43.2665 2.946 0.130
43.2821 3.208 0.135
43.2977 3.214 0.135
43.3133 3.237 0.136
43.3290 2.832 0.127
43.3446 3.168 0.134
43.3602 3.111 0.133
43.3758 2.821 0.127
43.3914 3.117 0.133
43.4070 3.077 0.132
43.4227 3.037 0.132
43.4383 3.066 0.132
43.4539 2.690 0.124
43.4695 3.066 0.132
43.4851 2.792 0.126
43.5007 2.883 0.128
43.5163 2.821 0.127
43.5320 2.519 0.120
43.5476 2.775 0.126
43.5632 2.490 0.119
43.5788 2.815 0.127
43.5944 2.433 0.118
43.6100 2.661 0.123
43.6256 2.239 0.113
43.6413 2.684 0.124
43.6569 2.450 0.118
43.6725 2.598 0.122
43.6881 2.547 0.120
43.7037 2.467 0.119
43.7193 2.610 0.122
43.7350 2.439 0.118
43.7506 2.450 0.118
43.7662 2.496 0.119
43.7818 2.342 0.116
43.7974 2.382 0.116
43.8130 2.547 0.120
43.8286 2.450 0.118
43.8443 2.479 0.119
43.8599 2.405 0.117
43.8755 2.325 0.115
43.8911 2.285 0.114
43.9067 2.501 0.119
43.9223 2.513 0.120
43.9379 2.410 0.117
43.9536 2.445 0.118
43.9692 2.228 0.113
43.9848 2.205 0.112
44.0004 2.576 0.121
44.0160 2.422 0.117
44.0316 2.239 0.113
44.0473 2.331 0.115
44.0629 2.473 0.119
44.0785 2.410 0.117
44.0941 2.501 0.119
44.1097 2.399 0.117
44.1253 2.251 0.113
44.1409 2.507 0.120
44.1566 2.399 0.117
44.1722 2.490 0.119
44.1878 2.342 0.116
44.2034 2.581 0.121
44.2190 2.359 0.116
44.2346 2.547 0.120
44.2503 2.353 0.116
44.2659 2.353 0.116
44.2815 2.376 0.116
44.2971 2.382 0.116
44.3127 2.348 0.116
44.3283 2.507 0.120
44.3439 2.353 0.116
44.3596 2.365 0.116
44.3752 2.382 0.116
44.3908 2.365 0.116
44.4064 2.490 0.119
44.4220 2.348 0.116
44.4376 2.245 0.113
44.4532 2.445 0.118
44.4689 2.439 0.118
44.4845 2.370 0.116
44.5001 2.439 0.118
44.5157 2.393 0.117
44.5313 2.251 0.113
44.5469 2.148 0.111
44.5626 2.513 0.120
44.5782 2.365 0.116
44.5938 2.376 0.116
44.6094 2.142 0.110
44.6250 2.319 0.115
44.6406 2.359 0.116
44.6562 2.251 0.113
44.6719 2.382 0.116
44.6875 2.348 0.116
44.7031 2.285 0.114
44.7187 2.399 0.117
44.7343 2.405 0.117
44.7499 2.445 0.118
44.7655 2.171 0.111
44.7812 2.536 0.120
44.7968 2.473 0.119
44.8124 2.445 0.118
44.8280 2.177 0.111
44.8436 2.519 0.120
44.8592 2.399 0.117
44.8749 2.467 0.119
44.8905 2.393 0.117
44.9061 2.541 0.120
44.9217 2.462 0.118
44.9373 2.405 0.117
44.9529 2.536 0.120
44.9685 2.479 0.119
44.9842 2.843 0.127
44.9998 2.781 0.126
45.0154 2.581 0.121
45.0310 2.570 0.121
45.0466 2.336 0.115
45.0622 2.348 0.116
45.0779 2.690 0.124
45.0935 2.120 0.110
45.1091 2.353 0.116
45.1247 2.610 0.122
45.1403 2.524 0.120
45.1559 2.399 0.117
45.1715 2.427 0.118
45.1872 2.633 0.122
45.2028 2.507 0.120
45.2184 2.416 0.117
45.2340 2.336 0.115
45.2496 2.564 0.121
45.2652 2.513 0.120
45.2808 2.553 0.121
45.2965 2.405 0.117
45.3121 2.302 0.115
45.3277 2.393 0.117
45.3433 2.775 0.126
45.3589 2.735 0.125
45.3745 2.661 0.123
45.3902 2.712 0.124
45.4058 2.786 0.126
45.4214 2.963 0.130
45.4370 2.843 0.127
45.4526 3.202 0.135
45.4682 3.328 0.138
45.4838 3.157 0.134
45.4995 3.299 0.137
45.5151 3.311 0.137
45.5307 3.681 0.145
45.5463 3.789 0.147
45.5619 3.949 0.150
45.5775 4.137 0.154
45.5931 3.937 0.150
45.6088 4.336 0.157
45.6244 4.929 0.168
45.6400 5.368 0.175
45.6556 5.886 0.183
45.6712 7.202 0.203
45.6868 9.522 0.233
45.7025 13.020 0.272
45.7181 16.439 0.306
45.7337 23.300 0.364
45.7493 30.058 0.414
45.7649 37.118 0.460
45.7805 38.263 0.467
45.7961 33.984 0.440
45.8118 23.926 0.369
45.8274 17.824 0.319
45.8430 15.163 0.294
45.8586 16.764 0.309
45.8742 19.237 0.331
45.8898 20.946 0.345
45.9055 19.710 0.335
45.9211 16.639 0.308
45.9367 11.054 0.251
45.9523 7.385 0.205
45.9679 5.453 0.176
45.9835 4.496 0.160
45.9991 4.046 0.152
46.0148 3.521 0.142
46.0304 3.459 0.140
46.0460 3.197 0.135
46.0616 2.946 0.130
46.0772 3.077 0.132
46.0928 2.906 0.129
46.1084 2.917 0.129
46.1241 2.695 0.124
46.1397 2.803 0.126
46.1553 2.809 0.127
46.1709 2.536 0.120
46.1865 2.519 0.120
46.2021 2.621 0.122
46.2178 2.519 0.120
46.2334 2.678 0.124
46.2490 2.348 0.116
46.2646 2.399 0.117
46.2802 2.604 0.122
46.2958 2.450 0.118
46.3114 2.462 0.118
46.3271 2.313 0.115
46.3427 2.530 0.120
46.3583 2.211 0.112
46.3739 2.370 0.116
46.3895 2.365 0.116
46.4051 2.342 0.116
46.4207 2.450 0.118
46.4364 2.445 0.118
46.4520 2.336 0.115
46.4676 2.376 0.116
46.4832 2.319 0.115
46.4988 2.342 0.116
46.5144 2.325 0.115
46.5301 2.137 0.110
46.5457 2.256 0.113
46.5613 2.336 0.115
46.5769 2.148 0.111
46.5925 2.365 0.116
46.6081 2.262 0.114
46.6237 2.188 0.112
46.6394 2.154 0.111
46.6550 2.171 0.111
46.6706 2.103 0.109
46.6862 2.199 0.112
46.7018 2.114 0.110
46.7174 2.325 0.115
46.7331 2.302 0.115
46.7487 2.108 0.110
46.7643 2.388 0.117
46.7799 2.165 0.111
46.7955 2.131 0.110
46.8111 2.336 0.115
46.8267 2.439 0.118
46.8424 2.125 0.110
46.8580 2.199 0.112
46.8736 2.217 0.112
46.8892 2.313 0.115
46.9048 2.120 0.110
46.9204 2.433 0.118
46.9360 2.177 0.111
46.9517 2.068 0.109
46.9673 2.365 0.116
46.9829 2.245 0.113
46.9985 2.108 0.110
47.0141 2.160 0.111
47.0297 2.268 0.114
47.0454 2.467 0.119
47.0610 2.177 0.111
47.0766 2.046 0.108
47.0922 2.222 0.113
47.1078 2.245 0.113
47.1234 2.217 0.112
47.1390 2.051 0.108
47.1547 2.479 0.119
47.1703 2.154 0.111
47.1859 2.205 0.112
47.2015 2.160 0.111
47.2171 1.903 0.104
47.2327 2.228 0.113
47.2483 2.251 0.113
47.2640 2.279 0.114
47.2796 2.274 0.114
47.2952 2.285 0.114
47.3108 2.245 0.113
47.3264 2.353 0.116
47.3420 2.165 0.111
47.3577 2.285 0.114
47.3733 2.142 0.110
47.3889 2.165 0.111
47.4045 1.994 0.107
47.4201 2.416 0.117
47.4357 2.160 0.111
47.4513 2.262 0.114
47.4670 2.125 0.110
47.4826 2.160 0.111
47.4982 2.142 0.110
47.5138 2.268 0.114
47.5294 2.086 0.109
47.5450 2.108 0.110
47.5607 2.142 0.110
47.5763 2.308 0.115
47.5919 2.217 0.112
47.6075 2.034 0.108
47.6231 2.239 0.113
47.6387 2.125 0.110
47.6543 1.994 0.107
47.6700 2.217 0.112
47.6856 2.188 0.112
47.7012 2.194 0.112
47.7168 2.046 0.108
47.7324 2.108 0.110
47.7480 1.989 0.106
47.7636 2.199 0.112
47.7793 2.057 0.108
47.7949 2.217 0.112
47.8105 2.108 0.110
47.8261 2.046 0.108
47.8417 2.279 0.114
47.8573 2.148 0.111
47.8730 2.416 0.117
47.8886 2.177 0.111
47.9042 2.142 0.110
47.9198 2.068 0.109
47.9354 1.926 0.105
47.9510 2.188 0.112
47.9666 2.239 0.113
47.9823 2.000 0.107
47.9979 2.268 0.114
48.0135 2.086 0.109
48.0291 1.949 0.105
48.0447 2.068 0.109
48.0603 2.217 0.112
48.0759 2.103 0.109
48.0916 2.046 0.108
48.1072 2.274 0.114
48.1228 2.217 0.112
48.1384 2.114 0.110
48.1540 2.137 0.110
48.1696 2.023 0.107
48.1853 2.256 0.113
48.2009 2.211 0.112
48.2165 2.086 0.109
48.2321 2.188 0.112
48.2477 2.302 0.115
48.2633 2.177 0.111
48.2789 2.422 0.117
48.2946 2.086 0.109
48.3102 2.433 0.118
48.3258 2.547 0.120
48.3414 2.530 0.120
48.3570 2.291 0.114
48.3726 2.376 0.116
48.3883 2.427 0.118
48.4039 2.370 0.116
48.4195 2.672 0.123
48.4351 2.228 0.113
48.4507 2.251 0.113
48.4663 2.262 0.114
48.4819 2.456 0.118
48.4976 2.308 0.115
48.5132 2.410 0.117
48.5288 2.313 0.115
48.5444 2.581 0.121
48.5600 2.593 0.122
48.5756 2.331 0.115
48.5912 2.359 0.116
48.6069 2.484 0.119
48.6225 2.279 0.114
48.6381 2.633 0.122
48.6537 2.256 0.113
48.6693 2.256 0.113
48.6849 2.524 0.120
48.7006 2.256 0.113
48.7162 2.131 0.110
48.7318 2.382 0.116
48.7474 2.399 0.117
48.7630 2.194 0.112
48.7786 2.433 0.118
48.7942 2.388 0.117
48.8099 2.479 0.119
48.8255 2.621 0.122
48.8411 2.467 0.119
48.8567 2.331 0.115
48.8723 2.302 0.115
48.8879 2.399 0.117
48.9036 2.678 0.124
48.9192 2.450 0.118
48.9348 2.610 0.122
48.9504 2.547 0.120
48.9660 2.445 0.118
48.9816 2.256 0.113
48.9972 2.541 0.120
49.0129 2.547 0.120
49.0285 2.422 0.117
49.0441 2.416 0.117
49.0597 2.758 0.125
49.0753 2.769 0.126
49.0909 2.541 0.120
49.1065 2.541 0.120
49.1222 2.712 0.124
49.1378 2.490 0.119
49.1534 2.872 0.128
49.1690 2.684 0.124
49.1846 2.843 0.127
49.2002 2.832 0.127
49.2159 2.462 0.118
49.2315 2.627 0.122
49.2471 2.912 0.129
49.2627 2.832 0.127
49.2783 2.228 0.113
49.2939 2.821 0.127
49.3095 2.860 0.128
49.3252 2.843 0.127
49.3408 2.655 0.123
49.3564 2.809 0.127
49.3720 2.701 0.124
49.3876 2.655 0.123
49.4032 2.969 0.130
49.4188 2.849 0.127
49.4345 2.917 0.129
49.4501 2.826 0.127
49.4657 2.843 0.127
49.4813 2.775 0.126
49.4969 2.832 0.127
49.5125 3.026 0.131
49.5282 2.935 0.129
49.5438 3.077 0.132
49.5594 3.202 0.135
49.5750 2.974 0.130
49.5906 3.168 0.134
49.6062 3.396 0.139
49.6218 3.174 0.134
49.6375 3.425 0.140
49.6531 3.328 0.138
49.6687 3.590 0.143
49.6843 3.539 0.142
49.6999 3.744 0.146
49.7155 3.909 0.149
49.7312 4.331 0.157
49.7468 4.496 0.160
49.7624 4.604 0.162
49.7780 4.889 0.167
49.7936 5.316 0.174
49.8092 5.670 0.180
49.8248 5.749 0.181
49.8405 6.439 0.192
49.8561 6.752 0.196
49.8717 7.140 0.202
49.8873 7.778 0.211
49.9029 7.863 0.212
49.9185 8.291 0.217
49.9341 9.259 0.230
49.9498 9.955 0.238
49.9654 11.071 0.251
49.9810 12.792 0.270
49.9966 14.958 0.292
50.0122 19.305 0.332
50.0278 26.154 0.386
50.0435 36.206 0.454
50.0591 49.619 0.532
50.0747 69.853 0.631
50.0903 93.341 0.729
50.1059 119.404 0.825
50.1215 133.496 0.872
50.1371 121.895 0.833
50.1528 93.489 0.730
50.1684 60.839 0.589
50.1840 47.374 0.520
50.1996 44.200 0.502
50.2152 49.881 0.533
50.2308 58.890 0.579
50.2464 67.232 0.619
50.2621 68.868 0.626
50.2777 56.936 0.570
50.2933 38.816 0.470
50.3089 24.530 0.374
50.3245 15.265 0.295
50.3401 11.254 0.253
50.3558 8.792 0.224
50.3714 7.778 0.211
50.3870 6.678 0.195
50.4026 6.365 0.190
50.4182 6.057 0.186
50.4338 5.681 0.180
50.4494 5.157 0.171
50.4651 4.946 0.168
50.4807 4.610 0.162
50.4963 4.559 0.161
50.5119 4.627 0.162
50.5275 4.433 0.159
50.5431 4.826 0.166
50.5588 4.957 0.168
50.5744 5.527 0.177
50.5900 5.681 0.180
50.6056 5.504 0.177
50.6212 5.014 0.169
50.6368 4.268 0.156
50.6524 4.097 0.153
50.6681 3.687 0.145
50.6837 3.692 0.145
50.6993 3.818 0.147
50.7149 3.949 0.150
50.7305 4.154 0.154
50.7461 4.040 0.152
50.7617 3.624 0.144
50.7774 3.345 0.138
50.7930 2.992 0.131
50.8086 3.066 0.132
50.8242 2.724 0.125
50.8398 2.826 0.127
50.8554 3.026 0.131
50.8711 2.923 0.129
50.8867 3.083 0.133
50.9023 2.781 0.126
50.9179 2.598 0.122
50.9335 3.049 0.132
50.9491 2.553 0.121
50.9647 2.821 0.127
50.9804 2.564 0.121
50.9960 2.547 0.120
51.0116 2.422 0.117
51.0272 2.473 0.119
51.0428 2.484 0.119
51.0584 2.479 0.119
51.0740 2.256 0.113
51.0897 2.513 0.120
51.1053 2.359 0.116
51.1209 2.473 0.119
51.1365 2.604 0.122
51.1521 2.296 0.114
51.1677 2.558 0.121
51.1834 2.473 0.119
51.1990 2.524 0.120
51.2146 2.496 0.119
51.2302 2.490 0.119
51.2458 2.234 0.113
51.2614 2.393 0.117
51.2770 2.524 0.120
51.2927 2.598 0.122
51.3083 2.342 0.116
51.3239 2.154 0.111
51.3395 2.222 0.113
51.3551 2.382 0.116
51.3707 2.393 0.117
51.3864 2.433 0.118
51.4020 1.869 0.103
51.4176 2.302 0.115
51.4332 2.279 0.114
51.4488 2.199 0.112
51.4644 2.313 0.115
51.4800 2.576 0.121
51.4957 2.313 0.115
51.5113 2.256 0.113
51.5269 2.239 0.113
51.5425 2.194 0.112
51.5581 2.285 0.114
51.5737 2.108 0.110
51.5893 2.331 0.115
51.6050 2.245 0.113
51.6206 2.137 0.110
51.6362 2.433 0.118
51.6518 2.262 0.114
51.6674 2.410 0.117
51.6830 2.194 0.112
51.6987 2.268 0.114
51.7143 2.313 0.115
51.7299 2.382 0.116
51.7455 2.479 0.119
51.7611 2.342 0.116
51.7767 2.245 0.113
51.7923 2.370 0.116
51.8080 2.399 0.117
51.8236 2.296 0.114
51.8392 2.285 0.114
51.8548 2.228 0.113
51.8704 2.291 0.114
51.8860 2.160 0.111
51.9016 2.302 0.115
51.9173 2.285 0.114
51.9329 2.211 0.112
51.9485 2.450 0.118
51.9641 2.142 0.110
51.9797 2.120 0.110
51.9953 2.308 0.115
52.0110 2.279 0.114
52.0266 2.108 0.110
52.0422 2.074 0.109
52.0578 2.370 0.116
52.0734 2.188 0.112
52.0890 2.046 0.108
52.1046 2.154 0.111
52.1203 1.966 0.106
52.1359 2.291 0.114
52.1515 2.171 0.111
52.1671 2.160 0.111
52.1827 2.068 0.109
52.1983 2.211 0.112
52.2140 2.165 0.111
52.2296 2.188 0.112
52.2452 2.165 0.111
52.2608 2.376 0.116
52.2764 2.086 0.109
52.2920 2.251 0.113
52.3076 2.034 0.108
52.3233 2.422 0.117
52.3389 2.131 0.110
52.3545 2.410 0.117
52.3701 2.262 0.114
52.3857 2.165 0.111
52.4013 2.125 0.110
52.4169 2.177 0.111
52.4326 2.388 0.117
52.4482 2.029 0.108
52.4638 2.256 0.113
52.4794 2.256 0.113
52.4950 2.274 0.114
52.5106 2.331 0.115
52.5263 2.302 0.115
52.5419 2.211 0.112
52.5575 2.319 0.115
52.5731 2.319 0.115
52.5887 2.331 0.115
52.6043 2.376 0.116
52.6199 2.211 0.112
52.6356 2.103 0.109
52.6512 2.348 0.116
52.6668 2.382 0.116
52.6824 2.103 0.109
52.6980 2.188 0.112
52.7136 2.308 0.115
52.7292 2.199 0.112
52.7449 2.313 0.115
52.7605 2.080 0.109
52.7761 2.171 0.111
52.7917 2.068 0.109
52.8073 2.120 0.110
52.8229 1.897 0.104
52.8386 2.211 0.112
52.8542 2.177 0.111
52.8698 2.302 0.115
52.8854 2.211 0.112
52.9010 2.188 0.112
52.9166 2.199 0.112
52.9322 2.080 0.109
52.9479 2.182 0.112
52.9635 2.063 0.108
52.9791 2.302 0.115
52.9947 2.091 0.109
53.0103 2.148 0.111
53.0259 2.108 0.110
53.0416 2.097 0.109
53.0572 2.484 0.119
53.0728 2.108 0.110
53.0884 2.029 0.108
53.1040 2.228 0.113
53.1196 2.154 0.111
53.1352 2.245 0.113
53.1509 2.239 0.113
53.1665 2.199 0.112
53.1821 2.120 0.110
53.1977 2.177 0.111
53.2133 2.194 0.112
53.2289 2.217 0.112
53.2445 2.057 0.108
53.2602 2.353 0.116
53.2758 2.222 0.113
53.2914 2.291 0.114
53.3070 2.348 0.116
53.3226 2.074 0.109
53.3382 2.336 0.115
53.3539 2.137 0.110
53.3695 2.182 0.112
53.3851 2.325 0.115
53.4007 2.023 0.107
53.4163 2.194 0.112
53.4319 2.023 0.107
53.4475 2.125 0.110
53.4632 2.137 0.110
53.4788 2.405 0.117
53.4944 2.279 0.114
53.5100 2.051 0.108
53.5256 2.251 0.113
53.5412 2.194 0.112
53.5568 2.131 0.110
53.5725 2.165 0.111
53.5881 2.251 0.113
53.6037 2.194 0.112
53.6193 2.177 0.111
53.6349 2.080 0.109
53.6505 2.336 0.115
53.6662 2.296 0.114
53.6818 2.416 0.117
53.6974 2.427 0.118
53.7130 2.353 0.116
53.7286 2.217 0.112
53.7442 2.103 0.109
53.7598 2.239 0.113
53.7755 2.142 0.110
53.7911 2.291 0.114
53.8067 2.279 0.114
53.8223 2.091 0.109
53.8379 2.171 0.111
53.8535 2.245 0.113
53.8692 2.148 0.111
53.8848 2.245 0.113
53.9004 2.091 0.109
53.9160 2.131 0.110
53.9316 2.416 0.117
53.9472 2.160 0.111
53.9628 2.234 0.113
53.9785 2.040 0.108
53.9941 2.205 0.112
54.0097 2.211 0.112
54.0253 2.103 0.109
54.0409 2.325 0.115
54.0565 2.131 0.110
54.0721 2.148 0.111
54.0878 2.285 0.114
54.1034 2.256 0.113
54.1190 2.541 0.120
54.1346 2.063 0.108
54.1502 2.370 0.116
54.1658 2.251 0.113
54.1815 2.256 0.113
54.1971 2.251 0.113
54.2127 2.456 0.118
54.2283 2.125 0.110
54.2439 2.228 0.113
54.2595 2.370 0.116
54.2751 2.194 0.112
54.2908 2.268 0.114
54.3064 2.388 0.117
54.3220 2.376 0.116
54.3376 2.348 0.116
54.3532 2.331 0.115
54.3688 2.268 0.114
54.3845 2.427 0.118
54.4001 2.353 0.116
54.4157 2.598 0.122
54.4313 2.479 0.119
54.4469 2.331 0.115
54.4625 2.678 0.124
54.4781 2.633 0.122
54.4938 2.809 0.127
54.5094 3.066 0.132
54.5250 3.071 0.132
54.5406 3.105 0.133
54.5562 3.516 0.142
54.5718 3.419 0.140
54.5874 3.596 0.143
54.6031 3.596 0.143
54.6187 3.658 0.144
54.6343 3.852 0.148
54.6499 3.829 0.148
54.6655 4.080 0.152
54.6811 3.989 0.151
54.6968 4.604 0.162
54.7124 5.311 0.174
54.7280 6.131 0.187
54.7436 7.345 0.205
54.7592 9.339 0.231
54.7748 11.943 0.261
54.7904 16.525 0.307
54.8061 21.938 0.354
54.8217 29.573 0.411
54.8373 37.442 0.462
54.8529 44.229 0.502
54.8685 42.725 0.493
54.8841 35.824 0.452
54.8997 25.317 0.380
54.9154 17.436 0.315
54.9310 13.824 0.281
54.9466 14.017 0.283
54.9622 16.262 0.304
54.9778 19.334 0.332
54.9934 23.157 0.363
55.0091 24.605 0.374
55.0247 21.556 0.350
55.0403 16.690 0.308
55.0559 11.043 0.251
55.0715 7.692 0.209
55.0871 5.846 0.183
55.1027 5.191 0.172
55.1184 4.712 0.164
55.1340 4.239 0.155
55.1496 4.490 0.160
55.1652 4.502 0.160
55.1808 4.496 0.160
55.1964 4.997 0.169
55.2121 5.590 0.178
55.2277 6.382 0.191
55.2433 7.527 0.207
55.2589 9.892 0.237
55.2745 12.188 0.264
55.2901 14.946 0.292
55.3057 15.949 0.301
55.3214 15.442 0.297
55.3370 12.821 0.270
55.3526 9.493 0.233
55.3682 6.826 0.197
55.3838 6.399 0.191
55.3994 6.445 0.192
55.4150 6.992 0.200
55.4307 8.023 0.214
55.4463 9.322 0.230
55.4619 9.425 0.232
55.4775 8.673 0.222
55.4931 6.804 0.197
55.5087 4.883 0.167
55.5244 4.023 0.151
55.5400 3.351 0.138
55.5556 3.225 0.136
55.5712 2.764 0.125
55.5868 2.775 0.126
55.6024 2.598 0.122
55.6180 2.393 0.117
55.6337 2.467 0.119
55.6493 2.456 0.118
55.6649 2.433 0.118
55.6805 2.199 0.112
55.6961 2.285 0.114
55.7117 2.399 0.117
55.7273 2.325 0.115
55.7430 2.359 0.116
55.7586 2.507 0.120
55.7742 2.268 0.114
55.7898 2.319 0.115
55.8054 2.433 0.118
55.8210 2.074 0.109
55.8367 2.274 0.114
55.8523 2.245 0.113
55.8679 2.234 0.113
55.8835 1.989 0.106
55.8991 2.211 0.112
55.9147 1.903 0.104
55.9303 2.308 0.115
55.9460 2.228 0.113
55.9616 2.011 0.107
55.9772 2.160 0.111
55.9928 2.142 0.110
56.0084 2.103 0.109
56.0240 2.234 0.113
56.0397 2.103 0.109
56.0553 1.863 0.103
56.0709 2.148 0.111
56.0865 1.789 0.101
56.1021 2.296 0.114
56.1177 1.943 0.105
56.1333 2.114 0.110
56.1490 2.211 0.112
56.1646 1.909 0.104
56.1802 2.120 0.110
56.1958 2.040 0.108
56.2114 1.698 0.098
56.2270 2.000 0.107
56.2426 1.937 0.105
56.2583 2.114 0.110
56.2739 2.068 0.109
56.2895 1.960 0.106
56.3051 2.040 0.108
56.3207 1.789 0.101
56.3363 1.926 0.105
56.3520 2.029 0.108
56.3676 1.989 0.106
56.3832 2.080 0.109
56.3988 2.068 0.109
56.4144 1.886 0.104
56.4300 2.137 0.110
56.4456 1.892 0.104
56.4613 1.869 0.103
56.4769 1.886 0.104
56.4925 2.017 0.107
56.5081 2.171 0.111
56.5237 2.000 0.107
56.5393 2.262 0.114
56.5549 1.943 0.105
56.5706 2.091 0.109
56.5862 2.103 0.109
56.6018 1.937 0.105
56.6174 2.029 0.108
56.6330 2.114 0.110
56.6486 1.818 0.102
56.6643 1.875 0.103
56.6799 2.114 0.110
56.6955 2.006 0.107
56.7111 1.886 0.104
56.7267 1.960 0.106
56.7423 1.920 0.105
56.7579 1.937 0.105
56.7736 1.863 0.103
56.7892 1.977 0.106
56.8048 2.023 0.107
56.8204 1.994 0.107
56.8360 2.017 0.107
56.8516 1.937 0.105
56.8673 2.046 0.108
56.8829 2.086 0.109
56.8985 1.994 0.107
56.9141 1.989 0.106
56.9297 2.125 0.110
56.9453 2.171 0.111
56.9609 1.943 0.105
56.9766 2.148 0.111
56.9922 2.182 0.112
57.0078 2.154 0.111
57.0234 2.125 0.110
57.0390 2.046 0.108
57.0546 2.205 0.112
57.0702 2.319 0.115
57.0859 2.234 0.113
57.1015 2.331 0.115
57.1171 2.587 0.121
57.1327 2.900 0.129
57.1483 2.615 0.122
57.1639 3.174 0.134
57.1796 3.772 0.147
57.1952 4.228 0.155
57.2108 4.439 0.159
57.2264 4.450 0.159
57.2420 4.353 0.157
57.2576 3.430 0.140
57.2732 3.066 0.132
57.2889 2.838 0.127
57.3045 2.741 0.125
57.3201 2.912 0.129
57.3357 3.140 0.134
57.3513 3.442 0.140
57.3669 3.482 0.141
57.3825 3.721 0.146
57.3982 3.271 0.137
57.4138 2.952 0.130
57.4294 2.678 0.124
57.4450 2.467 0.119
57.4606 2.672 0.123
57.4762 2.558 0.121
57.4919 2.513 0.120
57.5075 2.604 0.122
57.5231 2.547 0.120
57.5387 2.439 0.118
57.5543 2.479 0.119
57.5699 2.445 0.118
57.5855 2.501 0.119
57.6012 2.536 0.120
57.6168 2.450 0.118
57.6324 2.450 0.118
57.6480 2.262 0.114
57.6636 2.547 0.120
57.6792 2.308 0.115
57.6949 2.621 0.122
57.7105 2.034 0.108
57.7261 2.399 0.117
57.7417 2.655 0.123
57.7573 2.439 0.118
57.7729 2.165 0.111
57.7885 2.268 0.114
57.8042 2.296 0.114
57.8198 2.256 0.113
57.8354 2.006 0.107
57.8510 2.103 0.109
57.8666 2.137 0.110
57.8822 2.177 0.111
57.8978 2.239 0.113
57.9135 2.057 0.108
57.9291 2.125 0.110
57.9447 1.943 0.105
57.9603 2.194 0.112
57.9759 2.125 0.110
57.9915 2.228 0.113
58.0072 2.057 0.108
58.0228 2.108 0.110
58.0384 2.080 0.109
58.0540 2.114 0.110
58.0696 2.177 0.111
58.0852 2.182 0.112
58.1008 2.000 0.107
58.1165 2.274 0.114
58.1321 1.960 0.106
58.1477 2.439 0.118
58.1633 2.063 0.108
58.1789 2.160 0.111
58.1945 2.142 0.110
58.2101 2.103 0.109
58.2258 2.086 0.109
58.2414 2.239 0.113
58.2570 2.142 0.110
58.2726 2.302 0.115
58.2882 2.194 0.112
58.3038 2.120 0.110
58.3195 2.125 0.110
58.3351 2.080 0.109
58.3507 2.011 0.107
58.3663 2.205 0.112
58.3819 2.029 0.108
58.3975 2.154 0.111
58.4131 2.308 0.115
58.4288 2.211 0.112
58.4444 2.308 0.115
58.4600 2.108 0.110
58.4756 2.131 0.110
58.4912 2.291 0.114
58.5068 2.040 0.108
58.5225 2.296 0.114
58.5381 2.063 0.108
58.5537 2.285 0.114
58.5693 2.097 0.109
58.5849 2.160 0.111
58.6005 2.137 0.110
58.6161 2.068 0.109
58.6318 2.182 0.112
58.6474 2.194 0.112
58.6630 2.029 0.108
58.6786 2.228 0.113
58.6942 2.217 0.112
58.7098 2.245 0.113
58.7254 1.932 0.105
58.7411 2.063 0.108
58.7567 2.086 0.109
58.7723 2.086 0.109
58.7879 2.154 0.111
58.8035 2.228 0.113
58.8191 2.262 0.114
58.8348 2.029 0.108
58.8504 2.222 0.113
58.8660 2.393 0.117
58.8816 2.228 0.113
58.8972 2.239 0.113
58.9128 2.370 0.116
58.9284 2.091 0.109
58.9441 2.302 0.115
58.9597 2.359 0.116
58.9753 2.103 0.109
58.9909 2.256 0.113
59.0065 2.245 0.113
59.0221 2.188 0.112
59.0378 2.268 0.114
59.0534 2.177 0.111
59.0690 2.182 0.112
59.0846 2.103 0.109
59.1002 2.479 0.119
59.1158 2.484 0.119
59.1314 2.445 0.118
59.1471 2.450 0.118
59.1627 2.336 0.115
59.1783 2.353 0.116
59.1939 2.507 0.120
59.2095 2.376 0.116
59.2251 2.359 0.116
59.2407 2.427 0.118
59.2564 2.342 0.116
59.2720 2.530 0.120
59.2876 2.490 0.119
59.3032 2.370 0.116
59.3188 2.490 0.119
59.3344 2.547 0.120
59.3501 2.553 0.121
59.3657 2.445 0.118
59.3813 2.410 0.117
59.3969 2.427 0.118
59.4125 2.684 0.124
59.4281 2.581 0.121
59.4437 2.832 0.127
59.4594 2.895 0.128
59.4750 2.980 0.130
59.4906 3.094 0.133
59.5062 2.935 0.129
59.5218 3.219 0.135
59.5374 3.305 0.137
59.5530 3.362 0.138
59.5687 3.567 0.143
59.5843 3.749 0.146
59.5999 4.285 0.156
59.6155 4.621 0.162
59.6311 4.992 0.169
59.6467 4.747 0.164
59.6624 5.060 0.170
59.6780 5.259 0.173
59.6936 5.647 0.179
59.7092 5.972 0.184
59.7248 5.755 0.181
59.7404 6.490 0.192
59.7560 7.037 0.200
59.7717 8.063 0.214
59.7873 8.838 0.224
59.8029 10.017 0.239
59.8185 12.456 0.266
59.8341 15.510 0.297
59.8497 20.758 0.344
59.8654 27.784 0.398
59.8810 39.192 0.473
59.8966 51.978 0.544
59.9122 66.480 0.615
59.9278 82.555 0.686
59.9434 91.119 0.721
59.9590 84.435 0.694
59.9747 64.292 0.605
59.9903 43.141 0.496
60.0059 30.063 0.414
60.0215 24.872 0.376
60.0371 25.613 0.382
60.0527 28.964 0.406
60.0683 34.217 0.442
60.0840 41.978 0.489
60.0996 47.061 0.518
60.1152 48.611 0.526
60.1308 39.608 0.475
60.1464 27.721 0.397
60.1620 18.251 0.322
60.1777 12.006 0.262
60.1933 8.741 0.223
60.2089 7.356 0.205
60.2245 6.416 0.191
60.2401 5.818 0.182
60.2557 5.299 0.174
60.2713 4.906 0.167
60.2870 4.433 0.159
60.3026 4.194 0.155
60.3182 3.932 0.150
60.3338 3.596 0.143
60.3494 3.453 0.140
60.3650 3.373 0.139
60.3806 3.425 0.140
60.3963 2.895 0.128
60.4119 3.083 0.133
60.4275 3.351 0.138
60.4431 3.037 0.132
60.4587 3.145 0.134
60.4743 3.031 0.131
60.4900 2.923 0.129
60.5056 2.803 0.126
60.5212 2.929 0.129
60.5368 2.803 0.126
60.5524 2.855 0.128
60.5680 2.798 0.126
60.5836 2.684 0.124
60.5993 2.718 0.124
60.6149 2.747 0.125
60.6305 2.473 0.119
60.6461 2.843 0.127
60.6617 2.832 0.127
60.6773 2.479 0.119
60.6930 2.598 0.122
60.7086 2.519 0.120
60.7242 2.388 0.117
60.7398 2.445 0.118
60.7554 2.376 0.116
60.7710 2.701 0.124
60.7866 2.536 0.120
60.8023 2.587 0.121
60.8179 2.462 0.118
60.8335 2.524 0.120
60.8491 2.501 0.119
60.8647 2.313 0.115
60.8803 2.279 0.114
60.8959 2.319 0.115
60.9116 2.336 0.115
60.9272 2.194 0.112
60.9428 2.234 0.113
60.9584 2.439 0.118
60.9740 2.558 0.121
60.9896 2.068 0.109
61.0053 2.410 0.117
61.0209 2.114 0.110
61.0365 2.165 0.111
61.0521 2.285 0.114
61.0677 2.353 0.116
61.0833 2.142 0.110
61.0989 2.120 0.110
61.1146 2.040 0.108
61.1302 2.114 0.110
61.1458 2.103 0.109
61.1614 2.017 0.107
61.1770 2.057 0.108
61.1926 2.086 0.109
61.2082 1.909 0.104
61.2239 1.960 0.106
61.2395 2.165 0.111
61.2551 2.029 0.108
61.2707 2.182 0.112
61.2863 2.000 0.107
61.3019 2.199 0.112
61.3176 2.034 0.108
61.3332 2.040 0.108
61.3488 2.040 0.108
61.3644 2.137 0.110
61.3800 2.063 0.108
61.3956 2.006 0.107
61.4112 2.006 0.107
61.4269 1.897 0.104
61.4425 2.211 0.112
61.4581 1.858 0.103
61.4737 1.937 0.105
61.4893 2.006 0.107
61.5049 1.994 0.107
61.5206 1.880 0.104
61.5362 1.949 0.105
61.5518 1.977 0.106
61.5674 1.954 0.106
61.5830 2.319 0.115
61.5986 2.171 0.111
61.6142 1.818 0.102
61.6299 2.086 0.109
61.6455 2.217 0.112
61.6611 1.920 0.105
61.6767 1.761 0.100
61.6923 1.875 0.103
61.7079 1.926 0.105
61.7235 2.046 0.108
61.7392 1.989 0.106
61.7548 1.897 0.104
61.7704 1.892 0.104
61.7860 1.920 0.105
61.8016 2.120 0.110
61.8172 2.040 0.108
61.8329 1.823 0.102
61.8485 1.915 0.104
61.8641 2.034 0.108
61.8797 1.937 0.105
61.8953 1.852 0.103
61.9109 1.943 0.105
61.9265 2.000 0.107
61.9422 1.863 0.103
61.9578 1.937 0.105
61.9734 1.960 0.106
61.9890 1.937 0.105
62.0046 2.199 0.112
62.0202 1.920 0.105
62.0358 1.960 0.106
62.0515 2.228 0.113
62.0671 1.909 0.104
62.0827 2.006 0.107
62.0983 1.920 0.105
62.1139 1.755 0.100
62.1295 1.915 0.104
62.1452 2.182 0.112
62.1608 1.835 0.102
62.1764 1.886 0.104
62.1920 2.017 0.107
62.2076 2.000 0.107
62.2232 2.086 0.109
62.2388 1.840 0.102
62.2545 1.977 0.106
62.2701 1.749 0.100
62.2857 2.034 0.108
62.3013 1.823 0.102
62.3169 1.875 0.103
62.3325 2.120 0.110
62.3482 2.165 0.111
62.3638 1.897 0.104
62.3794 1.983 0.106
62.3950 1.966 0.106
62.4106 1.829 0.102
62.4262 2.017 0.107
62.4418 1.846 0.103
62.4575 2.068 0.109
62.4731 1.909 0.104
62.4887 2.000 0.107
62.5043 1.897 0.104
62.5199 2.154 0.111
62.5355 1.960 0.106
62.5511 1.983 0.106
62.5668 1.732 0.099
62.5824 1.846 0.103
62.5980 1.892 0.104
62.6136 2.086 0.109
62.6292 1.840 0.102
62.6448 1.994 0.107
62.6605 1.840 0.102
62.6761 1.829 0.102
62.6917 1.903 0.104
62.7073 1.915 0.104
62.7229 1.772 0.100
62.7385 1.880 0.104
62.7541 1.983 0.106
62.7698 1.852 0.103
62.7854 1.772 0.100
62.8010 1.875 0.103
62.8166 1.954 0.106
62.8322 1.989 0.106
62.8478 2.017 0.107
62.8634 1.789 0.101
62.8791 1.812 0.102
62.8947 1.886 0.104
62.9103 1.675 0.098
62.9259 1.823 0.102
62.9415 1.778 0.101
62.9571 1.806 0.101
62.9728 1.732 0.099
62.9884 1.886 0.104
63.0040 1.806 0.101
63.0196 1.732 0.099
63.0352 1.983 0.106
63.0508 2.011 0.107
63.0664 1.761 0.100
63.0821 1.875 0.103
63.0977 1.789 0.101
63.1133 1.772 0.100
63.1289 1.943 0.105
63.1445 2.057 0.108
63.1601 1.875 0.103
63.1758 1.749 0.100
63.1914 2.017 0.107
63.2070 1.784 0.101
63.2226 1.647 0.097
63.2382 2.137 0.110
63.2538 1.977 0.106
63.2694 1.806 0.101
63.2851 2.034 0.108
63.3007 1.795 0.101
63.3163 1.983 0.106
63.3319 1.835 0.102
63.3475 1.977 0.106
63.3631 1.966 0.106
63.3787 1.892 0.104
63.3944 2.034 0.108
63.4100 1.892 0.104
63.4256 1.943 0.105
63.4412 1.937 0.105
63.4568 1.869 0.103
63.4724 2.097 0.109
63.4881 1.926 0.105
63.5037 1.715 0.099
63.5193 2.011 0.107
63.5349 2.142 0.110
63.5505 1.920 0.105
63.5661 2.017 0.107
63.5817 1.972 0.106
63.5974 2.057 0.108
63.6130 2.051 0.108
63.6286 2.217 0.112
63.6442 2.228 0.113
63.6598 2.034 0.108
63.6754 2.382 0.116
63.6910 2.182 0.112
63.7067 2.536 0.120
63.7223 2.388 0.117
63.7379 2.416 0.117
63.7535 2.348 0.116
63.7691 2.365 0.116
63.7847 2.433 0.118
63.8004 2.473 0.119
63.8160 2.638 0.123
63.8316 2.752 0.125
63.8472 3.088 0.133
63.8628 3.043 0.132
63.8784 3.681 0.145
63.8940 3.778 0.147
63.9097 4.450 0.159
63.9253 5.145 0.171
63.9409 6.570 0.193
63.9565 7.795 0.211
63.9721 10.838 0.249
63.9877 13.801 0.280
64.0034 16.832 0.310
64.0190 17.687 0.317
64.0346 16.781 0.309
64.0502 13.744 0.280
64.0658 9.259 0.230
64.0814 6.747 0.196
64.0970 5.596 0.179
64.1127 5.339 0.174
64.1283 5.744 0.181
64.1439 6.769 0.196
64.1595 7.185 0.202
64.1751 9.106 0.228
64.1907 10.108 0.240
64.2063 10.559 0.245
64.2220 8.422 0.219
64.2376 6.524 0.193
64.2532 4.952 0.168
64.2688 3.835 0.148
64.2844 3.100 0.133
64.3000 2.809 0.127
64.3157 2.724 0.125
64.3313 2.359 0.116
64.3469 2.393 0.117
64.3625 2.422 0.117
64.3781 2.199 0.112
64.3937 2.547 0.120
64.4093 2.313 0.115
64.4250 2.108 0.110
64.4406 2.268 0.114
64.4562 2.205 0.112
64.4718 2.080 0.109
64.4874 2.479 0.119
64.5030 2.000 0.107
64.5187 2.000 0.107
64.5343 1.846 0.103
64.5499 2.091 0.109
64.5655 2.131 0.110
64.5811 2.046 0.108
64.5967 2.131 0.110
64.6123 1.932 0.105
64.6280 1.727 0.099
64.6436 2.086 0.109
64.6592 2.011 0.107
64.6748 1.977 0.106
64.6904 1.994 0.107
64.7060 1.989 0.106
64.7216 1.858 0.103
64.7373 1.812 0.102
64.7529 1.983 0.106
64.7685 1.863 0.103
64.7841 1.869 0.103
64.7997 1.869 0.103
64.8153 1.932 0.105
64.8310 1.846 0.103
64.8466 1.880 0.104
64.8622 1.863 0.103
64.8778 1.744 0.100
64.8934 1.915 0.104
64.9090 1.892 0.104
64.9246 1.812 0.102
64.9403 1.932 0.105
64.9559 1.846 0.103
64.9715 1.635 0.097
64.9871 1.840 0.102
65.0027 1.989 0.106
65.0183 1.897 0.104
65.0339 1.989 0.106
65.0496 1.806 0.101
65.0652 1.943 0.105
65.0808 2.023 0.107
65.0964 1.972 0.106
65.1120 2.000 0.107
65.1276 1.727 0.099
65.1433 1.954 0.106
65.1589 2.029 0.108
65.1745 2.040 0.108
65.1901 2.011 0.107
65.2057 1.840 0.102
65.2213 2.023 0.107
65.2369 1.749 0.100
65.2526 2.086 0.109
65.2682 2.029 0.108
65.2838 2.137 0.110
65.2994 1.949 0.105
65.3150 2.011 0.107
65.3306 2.046 0.108
65.3463 2.006 0.107
65.3619 2.108 0.110
65.3775 2.120 0.110
65.3931 2.074 0.109
65.4087 2.262 0.114
65.4243 2.256 0.113
65.4399 2.239 0.113
65.4556 2.120 0.110
65.4712 2.353 0.116
65.4868 2.177 0.111
65.5024 2.222 0.113
65.5180 2.325 0.115
65.5336 2.291 0.114
65.5492 2.285 0.114
65.5649 2.308 0.115
65.5805 2.262 0.114
65.5961 2.234 0.113
65.6117 2.570 0.121
65.6273 2.427 0.118
65.6429 2.843 0.127
65.6586 2.724 0.125
65.6742 3.003 0.131
65.6898 3.476 0.141
65.7054 3.949 0.150
65.7210 4.570 0.161
65.7366 5.134 0.171
65.7522 5.601 0.179
65.7679 6.239 0.189
65.7835 6.029 0.185
65.7991 4.974 0.168
65.8147 4.268 0.156
65.8303 3.351 0.138
65.8459 3.111 0.133
65.8615 2.969 0.130
65.8772 3.031 0.131
65.8928 3.157 0.134
65.9084 3.613 0.143
65.9240 3.858 0.148
65.9396 4.234 0.155
65.9552 4.103 0.153
65.9709 4.068 0.152
65.9865 3.618 0.144
66.0021 3.185 0.135
66.0177 2.729 0.125
66.0333 2.399 0.117
66.0489 2.672 0.123
66.0645 2.388 0.117
66.0802 2.524 0.120
66.0958 2.137 0.110
66.1114 2.427 0.118
66.1270 2.245 0.113
66.1426 2.228 0.113
66.1582 2.348 0.116
66.1739 2.063 0.108
66.1895 2.348 0.116
66.2051 2.285 0.114
66.2207 2.086 0.109
66.2363 2.217 0.112
66.2519 2.165 0.111
66.2675 2.222 0.113
66.2832 2.439 0.118
66.2988 2.217 0.112
66.3144 2.291 0.114
66.3300 2.427 0.118
66.3456 2.211 0.112
66.3612 2.256 0.113
66.3768 2.268 0.114
66.3925 2.302 0.115
66.4081 2.496 0.119
66.4237 2.399 0.117
66.4393 2.165 0.111
66.4549 2.439 0.118
66.4705 2.519 0.120
66.4862 2.536 0.120
66.5018 2.234 0.113
66.5174 2.285 0.114
66.5330 2.302 0.115
66.5486 2.519 0.120
66.5642 2.234 0.113
66.5798 2.467 0.119
66.5955 2.405 0.117
66.6111 2.587 0.121
66.6267 2.462 0.118
66.6423 2.484 0.119
66.6579 2.593 0.122
66.6735 2.296 0.114
66.6891 2.251 0.113
66.7048 2.148 0.111
66.7204 2.211 0.112
66.7360 2.405 0.117
66.7516 2.342 0.116
66.7672 2.376 0.116
66.7828 2.319 0.115
66.7985 2.553 0.121
66.8141 2.365 0.116
66.8297 2.416 0.117
66.8453 2.450 0.118
66.8609 2.251 0.113
66.8765 2.667 0.123
66.8921 2.633 0.122
66.9078 2.370 0.116
66.9234 2.541 0.120
66.9390 2.496 0.119
66.9546 2.331 0.115
66.9702 2.513 0.120
66.9858 2.718 0.124
67.0015 2.655 0.123
67.0171 2.690 0.124
67.0327 2.553 0.121
67.0483 2.348 0.116
67.0639 2.621 0.122
67.0795 2.695 0.124
67.0951 2.507 0.120
67.1108 2.388 0.117
67.1264 2.718 0.124
67.1420 2.769 0.126
67.1576 2.866 0.128
67.1732 2.547 0.120
67.1888 2.769 0.126
67.2044 2.826 0.127
67.2201 2.992 0.131
67.2357 3.145 0.134
67.2513 2.906 0.129
67.2669 2.895 0.128
67.2825 2.895 0.128
67.2981 3.248 0.136
67.3138 3.311 0.137
67.3294 3.499 0.141
67.3450 3.470 0.141
67.3606 3.396 0.139
67.3762 3.875 0.149
67.3918 3.937 0.150
67.4074 4.274 0.156
67.4231 4.450 0.159
67.4387 4.513 0.160
67.4543 4.553 0.161
67.4699 4.678 0.163
67.4855 4.878 0.167
67.5011 4.792 0.165
67.5167 5.339 0.174
67.5324 5.823 0.182
67.5480 5.909 0.183
67.5636 6.741 0.196
67.5792 7.658 0.209
67.5948 9.100 0.228
67.6104 10.052 0.239
67.6261 13.163 0.274
67.6417 16.205 0.304
67.6573 20.867 0.345
67.6729 27.590 0.397
67.6885 36.388 0.455
67.7041 45.933 0.512
67.7197 53.107 0.550
67.7354 55.226 0.561
67.7510 49.608 0.532
67.7666 38.018 0.465
67.7822 27.066 0.393
67.7978 19.961 0.337
67.8134 17.060 0.312
67.8291 15.835 0.300
67.8447 17.094 0.312
67.8603 19.328 0.332
67.8759 22.399 0.357
67.8915 26.941 0.392
67.9071 31.454 0.423
67.9227 32.303 0.429
67.9384 30.736 0.418
67.9540 26.684 0.390
67.9696 21.094 0.347
67.9852 17.704 0.318
68.0008 16.770 0.309
68.0164 17.493 0.316
68.0320 18.963 0.329
68.0477 23.835 0.369
68.0633 29.095 0.407
68.0789 37.864 0.464
68.0945 49.454 0.531
68.1101 61.979 0.594
68.1257 69.751 0.630
68.1414 70.640 0.634
68.1570 58.890 0.579
68.1726 43.334 0.497
68.1882 32.844 0.433
68.2038 27.414 0.395
68.2194 28.662 0.404
68.2350 32.069 0.427
68.2507 40.183 0.479
68.2663 49.876 0.533
68.2819 61.796 0.593
68.2975 71.318 0.637
68.3131 73.774 0.648
68.3287 66.959 0.618
68.3443 52.024 0.544
68.3600 37.813 0.464
68.3756 26.964 0.392
68.3912 19.790 0.336
68.4068 17.146 0.313
68.4224 17.225 0.313
68.4380 18.126 0.321
68.4537 20.325 0.340
68.4693 23.180 0.363
68.4849 24.884 0.377
68.5005 25.391 0.380
68.5161 21.448 0.350
68.5317 17.100 0.312
68.5473 12.103 0.263
68.5630 8.997 0.226
68.5786 7.214 0.203
68.5942 6.228 0.188
68.6098 5.339 0.174
68.6254 4.992 0.169
68.6410 4.496 0.160
68.6567 4.319 0.157
68.6723 4.074 0.152
68.6879 4.046 0.152
68.7035 3.926 0.150
68.7191 3.772 0.147
68.7347 3.470 0.141
68.7503 3.493 0.141
68.7660 3.379 0.139
68.7816 3.254 0.136
68.7972 3.214 0.135
68.8128 3.134 0.134
68.8284 3.191 0.135
68.8440 2.855 0.128
68.8596 3.020 0.131
68.8753 2.866 0.128
68.8909 2.974 0.130
68.9065 2.701 0.124
68.9221 2.935 0.129
68.9377 3.031 0.131
68.9533 2.615 0.122
68.9690 2.803 0.126
68.9846 2.798 0.126
69.0002 2.672 0.123
69.0158 2.741 0.125
69.0314 2.479 0.119
69.0470 2.615 0.122
69.0626 2.690 0.124
69.0783 2.342 0.116
69.0939 2.496 0.119
69.1095 2.621 0.122
69.1251 2.427 0.118
69.1407 2.422 0.117
69.1563 2.427 0.118
69.1720 2.376 0.116
69.1876 2.353 0.116
69.2032 2.342 0.116
69.2188 2.348 0.116
69.2344 2.319 0.115
69.2500 2.103 0.109
69.2656 2.274 0.114
69.2813 2.302 0.115
69.2969 2.268 0.114
69.3125 2.331 0.115
69.3281 2.331 0.115
69.3437 2.097 0.109
69.3593 2.131 0.110
69.3749 2.416 0.117
69.3906 2.519 0.120
69.4062 2.274 0.114
69.4218 2.325 0.115
69.4374 2.234 0.113
69.4530 2.279 0.114
69.4686 2.131 0.110
69.4843 2.177 0.111
69.4999 1.977 0.106
69.5155 2.068 0.109
69.5311 2.182 0.112
69.5467 2.046 0.108
69.5623 2.171 0.111
69.5779 2.097 0.109
69.5936 1.858 0.103
69.6092 2.177 0.111
69.6248 2.285 0.114
69.6404 1.835 0.102
69.6560 2.011 0.107
69.6716 2.097 0.109
69.6872 1.989 0.106
69.7029 2.000 0.107
69.7185 2.262 0.114
69.7341 2.097 0.109
69.7497 2.068 0.109
69.7653 2.034 0.108
69.7809 2.046 0.108
69.7966 2.160 0.111
69.8122 2.142 0.110
69.8278 2.222 0.113
69.8434 1.983 0.106
69.8590 1.937 0.105
69.8746 1.966 0.106
69.8902 2.040 0.108
69.9059 1.966 0.106
69.9215 1.869 0.103
69.9371 2.097 0.109
69.9527 2.171 0.111
69.9683 2.074 0.109
69.9839 2.160 0.111
69.9996 2.057 0.108
70.0152 1.920 0.105
70.0308 2.046 0.108
70.0464 2.034 0.108
70.0620 2.131 0.110
70.0776 2.171 0.111
70.0932 1.846 0.103
70.1089 2.057 0.108
70.1245 1.926 0.105
70.1401 2.137 0.110
70.1557 1.869 0.103
70.1713 2.046 0.108
70.1869 2.068 0.109
70.2025 1.892 0.104
70.2182 2.370 0.116
70.2338 1.943 0.105
70.2494 1.875 0.103
70.2650 2.114 0.110
70.2806 1.812 0.102
70.2962 1.835 0.102
70.3119 2.086 0.109
70.3275 2.000 0.107
70.3431 2.217 0.112
70.3587 2.137 0.110
70.3743 2.274 0.114
70.3899 2.017 0.107
70.4055 2.051 0.108
70.4212 1.949 0.105
70.4368 2.142 0.110
70.4524 2.051 0.108
70.4680 1.966 0.106
70.4836 1.943 0.105
70.4992 1.915 0.104
70.5148 1.994 0.107
70.5305 2.006 0.107
70.5461 1.937 0.105
70.5617 2.023 0.107
70.5773 1.892 0.104
70.5929 1.858 0.103
70.6085 1.886 0.104
70.6242 1.983 0.106
70.6398 2.125 0.110
70.6554 2.034 0.108
70.6710 1.835 0.102
70.6866 2.006 0.107
70.7022 1.852 0.103
70.7178 1.915 0.104
70.7335 2.199 0.112
70.7491 1.903 0.104
70.7647 1.869 0.103
70.7803 2.074 0.109
70.7959 1.960 0.106
70.8115 2.108 0.110
70.8272 2.137 0.110
70.8428 2.017 0.107
70.8584 2.114 0.110
70.8740 1.932 0.105
70.8896 1.761 0.100
70.9052 2.080 0.109
70.9208 2.154 0.111
70.9365 2.222 0.113
70.9521 1.858 0.103
70.9677 1.732 0.099
70.9833 1.943 0.105
70.9989 1.744 0.100
71.0145 2.017 0.107
71.0301 2.006 0.107
71.0458 2.029 0.108
71.0614 1.886 0.104
71.0770 2.023 0.107
71.0926 2.046 0.108
71.1082 1.954 0.106
71.1238 1.926 0.105
71.1395 1.755 0.100
71.1551 1.829 0.102
71.1707 2.023 0.107
71.1863 1.869 0.103
71.2019 1.915 0.104
71.2175 1.852 0.103
71.2331 1.989 0.106
71.2488 1.915 0.104
71.2644 1.812 0.102
71.2800 1.915 0.104
71.2956 1.835 0.102
71.3112 1.795 0.101
71.3268 1.784 0.101
71.3424 1.863 0.103
71.3581 1.926 0.105
71.3737 1.915 0.104
71.3893 1.926 0.105
71.4049 1.880 0.104
71.4205 1.909 0.104
71.4361 1.897 0.104
71.4518 1.795 0.101
71.4674 1.880 0.104
71.4830 1.892 0.104
71.4986 1.681 0.098
71.5142 2.051 0.108
71.5298 1.983 0.106
71.5454 1.920 0.105
71.5611 1.909 0.104
71.5767 1.920 0.105
71.5923 1.960 0.106
71.6079 1.875 0.103
71.6235 1.903 0.104
71.6391 1.795 0.101
71.6548 2.006 0.107
71.6704 2.000 0.107
71.6860 1.801 0.101
71.7016 1.818 0.102
71.7172 1.915 0.104
71.7328 1.755 0.100
71.7484 1.749 0.100
71.7641 1.795 0.101
71.7797 1.709 0.099
71.7953 1.778 0.101
71.8109 1.943 0.105
71.8265 1.920 0.105
71.8421 1.709 0.099
71.8577 1.772 0.100
71.8734 1.829 0.102
71.8890 1.897 0.104
71.9046 1.869 0.103
71.9202 1.761 0.100
71.9358 1.812 0.102
71.9514 2.029 0.108
71.9671 2.000 0.107
71.9827 2.131 0.110
71.9983 1.875 0.103
72.0139 1.983 0.106
72.0295 1.989 0.106
72.0451 1.744 0.100
72.0607 1.818 0.102
72.0764 1.863 0.103
72.0920 1.692 0.098
72.1076 1.732 0.099
72.1232 2.046 0.108
72.1388 1.789 0.101
72.1544 1.846 0.103
72.1700 1.892 0.104
72.1857 1.835 0.102
72.2013 2.142 0.110
72.2169 1.835 0.102
72.2325 1.932 0.105
72.2481 1.795 0.101
72.2637 1.880 0.104
72.2794 1.880 0.104
72.2950 1.812 0.102
72.3106 1.989 0.106
72.3262 1.846 0.103
72.3418 1.875 0.103
72.3574 1.812 0.102
72.3730 1.920 0.105
72.3887 1.823 0.102
72.4043 1.875 0.103
72.4199 1.801 0.101
72.4355 1.972 0.106
72.4511 1.983 0.106
72.4667 1.989 0.106
72.4824 1.709 0.099
72.4980 2.034 0.108
72.5136 1.761 0.100
72.5292 1.789 0.101
72.5448 1.846 0.103
72.5604 1.949 0.105
72.5760 1.875 0.103
72.5917 1.949 0.105
72.6073 1.932 0.105
72.6229 1.932 0.105
72.6385 1.744 0.100
72.6541 2.057 0.108
72.6697 1.880 0.104
72.6853 1.778 0.101
72.7010 1.960 0.106
72.7166 1.926 0.105
72.7322 1.869 0.103
72.7478 1.909 0.104
72.7634 1.886 0.104
72.7790 2.011 0.107
72.7947 1.886 0.104
72.8103 2.029 0.108
72.8259 2.029 0.108
72.8415 1.897 0.104
72.8571 1.812 0.102
72.8727 1.966 0.106
72.8883 1.892 0.104
72.9040 2.074 0.109
72.9196 1.960 0.106
72.9352 1.949 0.105
72.9508 2.029 0.108
72.9664 2.063 0.108
72.9820 2.125 0.110
72.9976 1.926 0.105
73.0133 2.114 0.110
73.0289 2.188 0.112
73.0445 2.205 0.112
73.0601 2.228 0.113
73.0757 2.074 0.109
73.0913 2.279 0.114
73.1070 2.142 0.110
73.1226 2.331 0.115
73.1382 2.370 0.116
73.1538 2.382 0.116
73.1694 2.217 0.112
73.1850 2.690 0.124
73.2006 2.473 0.119
73.2163 2.792 0.126
73.2319 2.667 0.123
73.2475 2.718 0.124
73.2631 2.672 0.123
73.2787 3.060 0.132
73.2943 3.345 0.138
73.3100 3.499 0.141
73.3256 4.143 0.154
73.3412 4.786 0.165
73.3568 5.516 0.177
73.3724 7.014 0.200
73.3880 9.202 0.229
73.4036 11.362 0.254
73.4193 13.852 0.281
73.4349 16.804 0.309
73.4505 18.627 0.326
73.4661 18.000 0.320
73.4817 14.958 0.292
73.4973 11.111 0.252
73.5129 7.892 0.212
73.5286 6.171 0.188
73.5442 5.556 0.178
73.5598 4.712 0.164
73.5754 4.969 0.168
73.5910 5.510 0.177
73.6066 6.171 0.188
73.6223 7.282 0.204
73.6379 8.832 0.224
73.6535 9.710 0.235
73.6691 10.513 0.245
73.6847 9.750 0.236
73.7003 7.784 0.211
73.7159 5.653 0.179
73.7316 4.536 0.161
73.7472 3.379 0.139
73.7628 2.917 0.129
73.7784 2.672 0.123
73.7940 2.690 0.124
73.8096 2.467 0.119
73.8252 2.370 0.116
73.8409 2.291 0.114
73.8565 2.450 0.118
73.8721 2.331 0.115
73.8877 2.165 0.111
73.9033 2.331 0.115
73.9189 2.217 0.112
73.9346 2.177 0.111
73.9502 2.205 0.112
73.9658 2.108 0.110
73.9814 2.006 0.107
73.9970 2.171 0.111
74.0126 2.120 0.110
74.0282 2.160 0.111
74.0439 2.137 0.110
74.0595 1.880 0.104
74.0751 2.000 0.107
74.0907 2.051 0.108
74.1063 2.137 0.110
74.1219 2.017 0.107
74.1376 2.108 0.110
74.1532 2.000 0.107
74.1688 2.199 0.112
74.1844 2.006 0.107
74.2000 1.875 0.103
74.2156 1.932 0.105
74.2312 1.903 0.104
74.2469 1.886 0.104
74.2625 2.000 0.107
74.2781 1.732 0.099
74.2937 1.886 0.104
74.3093 1.784 0.101
74.3249 1.926 0.105
74.3405 1.909 0.104
74.3562 2.029 0.108
74.3718 2.034 0.108
74.3874 1.823 0.102
74.4030 1.761 0.100
74.4186 1.960 0.106
74.4342 1.801 0.101
74.4499 1.704 0.099
74.4655 1.954 0.106
74.4811 1.829 0.102
74.4967 1.954 0.106
74.5123 2.051 0.108
74.5279 1.954 0.106
74.5435 2.051 0.108
74.5592 1.863 0.103
74.5748 1.949 0.105
74.5904 2.011 0.107
74.6060 1.812 0.102
74.6216 1.943 0.105
74.6372 2.023 0.107
74.6529 1.840 0.102
74.6685 1.943 0.105
74.6841 1.949 0.105
74.6997 1.903 0.104
74.7153 2.057 0.108
74.7309 1.960 0.106
74.7465 2.034 0.108
74.7622 2.063 0.108
74.7778 1.812 0.102
74.7934 1.920 0.105
74.8090 1.960 0.106
74.8246 2.011 0.107
74.8402 1.858 0.103
74.8558 1.932 0.105
74.8715 1.897 0.104
74.8871 1.960 0.106
74.9027 1.915 0.104
74.9183 2.000 0.107
74.9339 1.897 0.104
74.9495 1.966 0.106
74.9652 2.017 0.107
74.9808 2.086 0.109
74.9964 2.108 0.110
75.0120 1.966 0.106
75.0276 1.977 0.106
75.0432 2.017 0.107
75.0588 1.943 0.105
75.0745 2.040 0.108
75.0901 2.023 0.107
75.1057 2.120 0.110
75.1213 2.029 0.108
75.1369 2.137 0.110
75.1525 2.211 0.112
75.1681 2.279 0.114
75.1838 2.074 0.109
75.1994 2.194 0.112
75.2150 2.393 0.117
75.2306 2.359 0.116
75.2462 2.439 0.118
75.2618 2.513 0.120
75.2775 2.507 0.120
75.2931 2.650 0.123
75.3087 2.576 0.121
75.3243 2.701 0.124
75.3399 2.769 0.126
75.3555 3.003 0.131
75.3711 2.900 0.129
75.3868 2.883 0.128
75.4024 3.105 0.133
75.4180 3.100 0.133
75.4336 3.031 0.131
75.4492 3.145 0.134
75.4648 3.351 0.138
75.4805 3.721 0.146
75.4961 4.507 0.160
75.5117 4.855 0.166
75.5273 5.664 0.180
75.5429 6.792 0.197
75.5585 8.063 0.214
75.5741 10.747 0.247
75.5898 14.063 0.283
75.6054 18.109 0.321
75.6210 22.303 0.356
75.6366 25.841 0.384
75.6522 27.038 0.393
75.6678 25.191 0.379
75.6834 20.046 0.338
75.6991 13.698 0.279
75.7147 9.852 0.237
75.7303 7.932 0.213
75.7459 6.353 0.190
75.7615 6.325 0.190
75.7771 6.804 0.197
75.7928 7.539 0.207
75.8084 8.610 0.221
75.8240 10.507 0.245
75.8396 11.653 0.258
75.8552 13.835 0.281
75.8708 14.707 0.289
75.8864 13.522 0.278
75.9021 10.889 0.249
75.9177 8.684 0.222
75.9333 6.507 0.193
75.9489 4.843 0.166
75.9645 4.125 0.153
75.9801 3.191 0.135
75.9957 3.162 0.134
76.0114 3.162 0.134
76.0270 2.957 0.130
76.0426 2.576 0.121
76.0582 2.479 0.119
76.0738 2.439 0.118
76.0894 2.313 0.115
76.1051 2.285 0.114
76.1207 2.302 0.115
76.1363 2.171 0.111
76.1519 2.205 0.112
76.1675 2.165 0.111
76.1831 2.177 0.111
76.1987 2.262 0.114
76.2144 2.063 0.108
76.2300 1.966 0.106
76.2456 2.188 0.112
76.2612 1.966 0.106
76.2768 2.046 0.108
76.2924 2.063 0.108
76.3081 2.086 0.109
76.3237 1.994 0.107
76.3393 2.103 0.109
76.3549 1.903 0.104
76.3705 1.727 0.099
76.3861 2.125 0.110
76.4017 1.977 0.106
76.4174 1.932 0.105
76.4330 1.943 0.105
76.4486 1.863 0.103
76.4642 1.869 0.103
76.4798 2.068 0.109
76.4954 1.915 0.104
76.5110 1.869 0.103
76.5267 1.966 0.106
76.5423 1.915 0.104
76.5579 1.892 0.104
76.5735 1.949 0.105
76.5891 1.858 0.103
76.6047 1.977 0.106
76.6204 2.114 0.110
76.6360 1.784 0.101
76.6516 2.194 0.112
76.6672 2.017 0.107
76.6828 2.000 0.107
76.6984 2.040 0.108
76.7140 2.040 0.108
76.7297 1.886 0.104
76.7453 2.125 0.110
76.7609 1.943 0.105
76.7765 1.949 0.105
76.7921 1.954 0.106
76.8077 2.154 0.111
76.8233 1.937 0.105
76.8390 2.177 0.111
76.8546 1.897 0.104
76.8702 2.103 0.109
76.8858 2.011 0.107
76.9014 2.023 0.107
76.9170 2.034 0.108
76.9327 1.903 0.104
76.9483 2.034 0.108
76.9639 1.915 0.104
76.9795 2.034 0.108
76.9951 2.057 0.108
