'Id: "" Comment: "" Operator: "Lab Manager" Anode: "Cu" Scantype: "Locked Coupled" TimePerStep: "96" X: "0" Y: "0" Z: "0" 
5.0000 22.083 0.480
5.0205 22.188 0.481
5.0409 21.927 0.478
5.0614 22.354 0.483
5.0819 21.604 0.474
5.1023 20.240 0.459
5.1228 22.135 0.480
5.1432 21.542 0.474
5.1637 21.885 0.477
5.1842 21.333 0.471
5.2046 21.625 0.475
5.2251 21.115 0.469
5.2456 21.302 0.471
5.2660 21.031 0.468
5.2865 20.635 0.464
5.3069 21.719 0.476
5.3274 20.656 0.464
5.3479 21.344 0.472
5.3683 20.969 0.467
5.3888 21.010 0.468
5.4093 21.083 0.469
5.4297 20.302 0.460
5.4502 20.354 0.460
5.4706 20.542 0.463
5.4911 19.979 0.456
5.5116 20.469 0.462
5.5320 20.708 0.464
5.5525 21.000 0.468
5.5730 19.677 0.453
5.5934 20.927 0.467
5.6139 20.052 0.457
5.6343 19.760 0.454
5.6548 20.063 0.457
5.6753 19.896 0.455
5.6957 19.667 0.453
5.7162 20.552 0.463
5.7367 18.594 0.440
5.7571 18.927 0.444
5.7776 20.229 0.459
5.7980 19.688 0.453
5.8185 19.729 0.453
5.8390 19.344 0.449
5.8594 19.854 0.455
5.8799 20.021 0.457
5.9004 19.010 0.445
5.9208 20.115 0.458
5.9413 19.531 0.451
5.9618 18.719 0.442
5.9822 19.083 0.446
6.0027 18.458 0.438
6.0231 18.646 0.441
6.0436 18.781 0.442
6.0641 18.490 0.439
6.0845 18.625 0.440
6.1050 19.021 0.445
6.1255 19.292 0.448
6.1459 18.417 0.438
6.1664 19.167 0.447
6.1868 18.667 0.441
6.2073 18.854 0.443
6.2278 18.708 0.441
6.2482 18.583 0.440
6.2687 17.729 0.430
6.2892 17.781 0.430
6.3096 18.635 0.441
6.3301 18.656 0.441
6.3505 18.021 0.433
6.3710 18.208 0.436
6.3915 18.917 0.444
6.4119 18.333 0.437
6.4324 17.979 0.433
6.4529 18.500 0.439
6.4733 18.667 0.441
6.4938 18.427 0.438
6.5142 17.927 0.432
6.5347 18.406 0.438
6.5552 17.729 0.430
6.5756 18.833 0.443
6.5961 19.073 0.446
6.6166 18.042 0.434
6.6370 18.635 0.441
6.6575 19.073 0.446
6.6779 18.417 0.438
6.6984 18.063 0.434
6.7189 17.979 0.433
6.7393 17.490 0.427
6.7598 18.823 0.443
6.7803 18.771 0.442
6.8007 18.188 0.435
6.8212 18.063 0.434
6.8417 18.333 0.437
6.8621 18.313 0.437
6.8826 18.042 0.434
6.9030 18.385 0.438
6.9235 18.688 0.441
6.9440 19.115 0.446
6.9644 19.177 0.447
6.9849 18.219 0.436
7.0054 18.542 0.439
7.0258 18.906 0.444
7.0463 19.375 0.449
7.0667 20.156 0.458
7.0872 20.615 0.463
7.1077 20.823 0.466
7.1281 21.635 0.475
7.1486 20.958 0.467
7.1691 21.156 0.469
7.1895 21.844 0.477
7.2100 21.073 0.469
7.2304 20.271 0.460
7.2509 20.469 0.462
7.2714 19.604 0.452
7.2918 19.635 0.452
7.3123 20.292 0.460
7.3328 19.313 0.449
7.3532 19.469 0.450
7.3737 18.552 0.440
7.3941 18.885 0.444
7.4146 17.875 0.432
7.4351 19.021 0.445
7.4555 18.281 0.436
7.4760 19.271 0.448
7.4965 18.500 0.439
7.5169 18.229 0.436
7.5374 18.198 0.435
7.5579 18.313 0.437
7.5783 18.729 0.442
7.5988 18.000 0.433
7.6192 18.938 0.444
7.6397 18.667 0.441
7.6602 18.583 0.440
7.6806 17.917 0.432
7.7011 18.625 0.440
7.7216 17.896 0.432
7.7420 17.479 0.427
7.7625 18.292 0.437
7.7829 18.510 0.439
7.8034 19.094 0.446
7.8239 18.354 0.437
7.8443 18.979 0.445
7.8648 18.385 0.438
7.8853 17.833 0.431
7.9057 17.760 0.430
7.9262 17.823 0.431
7.9466 18.958 0.444
7.9671 19.188 0.447
7.9876 17.646 0.429
8.0080 18.135 0.435
8.0285 17.448 0.426
8.0490 18.771 0.442
8.0694 18.906 0.444
8.0899 18.135 0.435
8.1103 18.500 0.439
8.1308 18.104 0.434
8.1513 18.823 0.443
8.1717 18.958 0.444
8.1922 18.438 0.438
8.2127 18.729 0.442
8.2331 19.229 0.448
8.2536 19.833 0.455
8.2740 19.198 0.447
8.2945 19.344 0.449
8.3150 19.500 0.451
8.3354 18.542 0.439
8.3559 19.115 0.446
8.3764 19.885 0.455
8.3968 19.083 0.446
8.4173 18.635 0.441
8.4378 19.188 0.447
8.4582 19.417 0.450
8.4787 20.292 0.460
8.4991 20.615 0.463
8.5196 21.125 0.469
8.5401 21.177 0.470
8.5605 21.281 0.471
8.5810 20.146 0.458
8.6015 20.073 0.457
8.6219 20.385 0.461
8.6424 19.094 0.446
8.6628 19.021 0.445
8.6833 18.990 0.445
8.7038 19.969 0.456
8.7242 19.521 0.451
8.7447 19.563 0.451
8.7652 19.656 0.452
8.7856 21.052 0.468
8.8061 22.000 0.479
8.8265 21.750 0.476
8.8470 22.438 0.483
8.8675 24.083 0.501
8.8879 23.750 0.497
8.9084 25.750 0.518
8.9289 27.427 0.535
8.9493 29.542 0.555
8.9698 33.125 0.587
8.9902 36.552 0.617
9.0107 46.552 0.696
9.0312 63.500 0.813
9.0516 89.417 0.965
9.0721 125.333 1.143
9.0926 176.510 1.356
9.1130 226.188 1.535
9.1335 185.073 1.388
9.1539 100.302 1.022
9.1744 48.417 0.710
9.1949 32.417 0.581
9.2153 28.760 0.547
9.2358 29.198 0.551
9.2563 29.219 0.552
9.2767 31.365 0.572
9.2972 31.948 0.577
9.3177 32.646 0.583
9.3381 33.313 0.589
9.3586 31.573 0.573
9.3790 30.646 0.565
9.3995 29.948 0.559
9.4200 30.323 0.562
9.4404 29.146 0.551
9.4609 29.781 0.557
9.4814 30.115 0.560
9.5018 30.573 0.564
9.5223 30.531 0.564
9.5427 32.792 0.584
9.5632 33.510 0.591
9.5837 34.594 0.600
9.6041 36.958 0.620
9.6246 38.990 0.637
9.6451 41.521 0.658
9.6655 43.667 0.674
9.6860 47.281 0.702
9.7064 50.240 0.723
9.7269 53.677 0.748
9.7474 60.490 0.794
9.7678 69.979 0.854
9.7883 83.458 0.932
9.8088 104.198 1.042
9.8292 143.240 1.222
9.8497 202.167 1.451
9.8701 291.521 1.743
9.8906 390.156 2.016
9.9111 495.208 2.271
9.9315 477.490 2.230
9.9520 345.854 1.898
9.9725 208.188 1.473
9.9929 124.771 1.140
10.0134 87.208 0.953
10.0338 65.344 0.825
10.0543 57.583 0.774
10.0748 51.271 0.731
10.0952 45.573 0.689
10.1157 41.750 0.659
10.1362 39.667 0.643
10.1566 35.875 0.611
10.1771 34.406 0.599
10.1976 31.573 0.573
10.2180 29.052 0.550
10.2385 27.542 0.536
10.2589 26.729 0.528
10.2794 25.031 0.511
10.2999 25.385 0.514
10.3203 24.365 0.504
10.3408 23.771 0.498
10.3613 23.208 0.492
10.3817 22.740 0.487
10.4022 22.208 0.481
10.4226 22.979 0.489
10.4431 22.969 0.489
10.4636 21.469 0.473
10.4840 20.719 0.465
10.5045 21.500 0.473
10.5250 20.927 0.467
10.5454 20.646 0.464
10.5659 20.031 0.457
10.5863 19.948 0.456
10.6068 19.833 0.455
10.6273 20.177 0.458
10.6477 18.844 0.443
10.6682 18.792 0.442
10.6887 18.792 0.442
10.7091 18.677 0.441
10.7296 18.708 0.441
10.7500 17.948 0.432
10.7705 18.813 0.443
10.7910 18.365 0.437
10.8114 18.677 0.441
10.8319 17.708 0.429
10.8524 17.104 0.422
10.8728 17.240 0.424
10.8933 17.042 0.421
10.9137 17.031 0.421
10.9342 17.427 0.426
10.9547 16.875 0.419
10.9751 16.875 0.419
10.9956 16.677 0.417
11.0161 16.542 0.415
11.0365 16.500 0.415
11.0570 16.323 0.412
11.0775 15.885 0.407
11.0979 15.677 0.404
11.1184 16.813 0.418
11.1388 16.094 0.409
11.1593 16.510 0.415
11.1798 15.969 0.408
11.2002 15.823 0.406
11.2207 16.021 0.409
11.2412 15.208 0.398
11.2616 15.604 0.403
11.2821 15.344 0.400
11.3025 15.823 0.406
11.3230 15.125 0.397
11.3435 15.927 0.407
11.3639 15.240 0.398
11.3844 14.531 0.389
11.4049 15.844 0.406
11.4253 15.917 0.407
11.4458 15.292 0.399
11.4662 14.458 0.388
11.4867 14.615 0.390
11.5072 15.021 0.396
11.5276 15.229 0.398
11.5481 14.854 0.393
11.5686 14.792 0.393
11.5890 14.198 0.385
11.6095 14.167 0.384
11.6299 14.531 0.389
11.6504 14.635 0.390
11.6709 14.510 0.389
11.6913 13.990 0.382
11.7118 13.646 0.377
11.7323 13.958 0.381
11.7527 13.750 0.378
11.7732 13.990 0.382
11.7937 14.240 0.385
11.8141 14.365 0.387
11.8346 13.594 0.376
11.8550 14.010 0.382
11.8755 13.875 0.380
11.8960 13.510 0.375
11.9164 13.271 0.372
11.9369 14.073 0.383
11.9574 14.188 0.384
11.9778 13.406 0.374
11.9983 13.885 0.380
12.0187 12.927 0.367
12.0392 13.510 0.375
12.0597 13.427 0.374
12.0801 13.802 0.379
12.1006 13.563 0.376
12.1211 13.271 0.372
12.1415 13.281 0.372
12.1620 13.010 0.368
12.1824 12.938 0.367
12.2029 13.781 0.379
12.2234 13.458 0.374
12.2438 13.760 0.379
12.2643 13.229 0.371
12.2848 12.938 0.367
12.3052 13.073 0.369
12.3257 12.833 0.366
12.3461 13.302 0.372
12.3666 12.740 0.364
12.3871 12.979 0.368
12.4075 12.833 0.366
12.4280 12.604 0.362
12.4485 13.240 0.371
12.4689 12.823 0.365
12.4894 13.135 0.370
12.5098 13.063 0.369
12.5303 12.427 0.360
12.5508 12.698 0.364
12.5712 12.354 0.359
12.5917 12.135 0.356
12.6122 12.781 0.365
12.6326 12.531 0.361
12.6531 11.938 0.353
12.6736 12.219 0.357
12.6940 12.104 0.355
12.7145 11.958 0.353
12.7349 12.104 0.355
12.7554 12.542 0.361
12.7759 11.875 0.352
12.7963 11.813 0.351
12.8168 11.760 0.350
12.8373 12.396 0.359
12.8577 12.250 0.357
12.8782 12.354 0.359
12.8986 11.865 0.352
12.9191 12.125 0.355
12.9396 11.656 0.348
12.9600 12.229 0.357
12.9805 11.292 0.343
13.0010 12.250 0.357
13.0214 12.323 0.358
13.0419 12.146 0.356
13.0623 11.948 0.353
13.0828 11.688 0.349
13.1033 11.573 0.347
13.1237 11.219 0.342
13.1442 11.490 0.346
13.1647 11.542 0.347
13.1851 11.667 0.349
13.2056 11.719 0.349
13.2260 11.260 0.342
13.2465 11.719 0.349
13.2670 11.313 0.343
13.2874 11.052 0.339
13.3079 11.802 0.351
13.3284 11.656 0.348
13.3488 11.823 0.351
13.3693 11.010 0.339
13.3897 11.646 0.348
13.4102 11.750 0.350
13.4307 11.229 0.342
13.4511 11.688 0.349
13.4716 11.479 0.346
13.4921 10.542 0.331
13.5125 11.510 0.346
13.5330 11.542 0.347
13.5535 11.125 0.340
13.5739 11.229 0.342
13.5944 11.635 0.348
13.6148 11.135 0.341
13.6353 11.146 0.341
13.6558 10.531 0.331
13.6762 11.448 0.345
13.6967 10.479 0.330
13.7172 11.031 0.339
13.7376 11.031 0.339
13.7581 11.135 0.341
13.7785 11.115 0.340
13.7990 11.010 0.339
13.8195 11.073 0.340
13.8399 11.250 0.342
13.8604 10.990 0.338
13.8809 10.635 0.333
13.9013 10.896 0.337
13.9218 10.594 0.332
13.9422 10.375 0.329
13.9627 10.458 0.330
13.9832 10.896 0.337
14.0036 11.479 0.346
14.0241 10.344 0.328
14.0446 10.802 0.335
14.0650 10.313 0.328
14.0855 10.490 0.331
14.1059 10.396 0.329
14.1264 10.885 0.337
14.1469 10.417 0.329
14.1673 10.802 0.335
14.1878 11.115 0.340
14.2083 11.333 0.344
14.2287 11.271 0.343
14.2492 10.677 0.333
14.2696 11.490 0.346
14.2901 10.458 0.330
14.3106 10.260 0.327
14.3310 10.896 0.337
14.3515 11.406 0.345
14.3720 10.823 0.336
14.3924 10.573 0.332
14.4129 10.688 0.334
14.4334 10.385 0.329
14.4538 10.156 0.325
14.4743 10.760 0.335
14.4947 10.625 0.333
14.5152 11.167 0.341
14.5357 10.865 0.336
14.5561 10.250 0.327
14.5766 9.854 0.320
14.5971 10.198 0.326
14.6175 10.396 0.329
14.6380 10.208 0.326
14.6584 10.490 0.331
14.6789 9.938 0.322
14.6994 10.167 0.325
14.7198 10.156 0.325
14.7403 10.625 0.333
14.7608 11.031 0.339
14.7812 9.729 0.318
14.8017 9.885 0.321
14.8221 9.885 0.321
14.8426 9.865 0.321
14.8631 10.344 0.328
14.8835 10.073 0.324
14.9040 9.917 0.321
14.9245 10.354 0.328
14.9449 9.104 0.308
14.9654 9.354 0.312
14.9858 10.177 0.326
15.0063 9.313 0.311
15.0268 10.010 0.323
15.0472 10.667 0.333
15.0677 9.781 0.319
15.0882 9.917 0.321
15.1086 9.990 0.323
15.1291 10.531 0.331
15.1495 10.281 0.327
15.1700 9.542 0.315
15.1905 9.177 0.309
15.2109 9.594 0.316
15.2314 10.417 0.329
15.2519 10.260 0.327
15.2723 10.313 0.328
15.2928 9.948 0.322
15.3133 10.740 0.334
15.3337 11.010 0.339
15.3542 11.167 0.341
15.3746 10.531 0.331
15.3951 10.813 0.336
15.4156 10.958 0.338
15.4360 10.281 0.327
15.4565 10.479 0.330
15.4770 10.604 0.332
15.4974 10.333 0.328
15.5179 10.698 0.334
15.5383 11.188 0.341
15.5588 10.479 0.330
15.5793 10.906 0.337
15.5997 10.854 0.336
15.6202 11.083 0.340
15.6407 11.760 0.350
15.6611 12.063 0.354
15.6816 13.083 0.369
15.7020 16.719 0.417
15.7225 23.010 0.490
15.7430 35.188 0.605
15.7634 52.240 0.738
15.7839 73.240 0.873
15.8044 68.552 0.845
15.8248 49.313 0.717
15.8453 32.521 0.582
15.8657 18.125 0.435
15.8862 13.073 0.369
15.9067 11.844 0.351
15.9271 11.375 0.344
15.9476 10.865 0.336
15.9681 11.771 0.350
15.9885 10.031 0.323
16.0090 11.323 0.343
16.0295 9.875 0.321
16.0499 10.313 0.328
16.0704 10.688 0.334
16.0908 10.792 0.335
16.1113 10.229 0.326
16.1318 9.927 0.322
16.1522 9.708 0.318
16.1727 9.990 0.323
16.1932 10.458 0.330
16.2136 9.521 0.315
16.2341 9.604 0.316
16.2545 9.990 0.323
16.2750 10.427 0.330
16.2955 9.948 0.322
16.3159 9.396 0.313
16.3364 10.406 0.329
16.3569 9.531 0.315
16.3773 9.448 0.314
16.3978 9.427 0.313
16.4182 10.094 0.324
16.4387 9.979 0.322
16.4592 9.573 0.316
16.4796 9.594 0.316
16.5001 9.865 0.321
16.5206 10.073 0.324
16.5410 9.573 0.316
16.5615 9.969 0.322
16.5819 9.719 0.318
16.6024 9.365 0.312
16.6229 9.271 0.311
16.6433 9.833 0.320
16.6638 9.833 0.320
16.6843 9.708 0.318
16.7047 9.427 0.313
16.7252 10.396 0.329
16.7456 10.188 0.326
16.7661 9.896 0.321
16.7866 9.875 0.321
16.8070 9.938 0.322
16.8275 9.958 0.322
16.8480 10.385 0.329
16.8684 10.031 0.323
16.8889 10.229 0.326
16.9094 9.875 0.321
16.9298 10.135 0.325
16.9503 10.438 0.330
16.9707 10.896 0.337
16.9912 10.615 0.333
17.0117 11.281 0.343
17.0321 10.250 0.327
17.0526 10.583 0.332
17.0731 10.479 0.330
17.0935 10.542 0.331
17.1140 10.490 0.331
17.1344 10.292 0.327
17.1549 10.469 0.330
17.1754 10.531 0.331
17.1958 11.010 0.339
17.2163 10.552 0.332
17.2368 11.052 0.339
17.2572 10.406 0.329
17.2777 10.917 0.337
17.2981 10.823 0.336
17.3186 10.615 0.333
17.3391 10.979 0.338
17.3595 11.781 0.350
17.3800 10.802 0.335
17.4005 11.052 0.339
17.4209 10.885 0.337
17.4414 11.177 0.341
17.4618 11.052 0.339
17.4823 11.385 0.344
17.5028 12.229 0.357
17.5232 10.646 0.333
17.5437 11.188 0.341
17.5642 11.375 0.344
17.5846 11.083 0.340
17.6051 11.646 0.348
17.6255 11.740 0.350
17.6460 12.000 0.354
17.6665 12.292 0.358
17.6869 12.271 0.358
17.7074 12.448 0.360
17.7279 13.281 0.372
17.7483 13.417 0.374
17.7688 14.677 0.391
17.7893 15.052 0.396
17.8097 16.552 0.415
17.8302 18.563 0.440
17.8506 16.854 0.419
17.8711 15.708 0.405
17.8916 16.073 0.409
17.9120 14.417 0.388
17.9325 14.198 0.385
17.9530 14.146 0.384
17.9734 14.479 0.388
17.9939 15.333 0.400
18.0143 16.083 0.409
18.0348 16.365 0.413
18.0553 16.729 0.417
18.0757 17.948 0.432
18.0962 18.229 0.436
18.1167 18.719 0.442
18.1371 18.219 0.436
18.1576 17.646 0.429
18.1780 17.688 0.429
18.1985 18.188 0.435
18.2190 19.646 0.452
18.2394 20.896 0.467
18.2599 21.000 0.468
18.2804 20.760 0.465
18.3008 20.250 0.459
18.3213 19.479 0.450
18.3417 18.354 0.437
18.3622 18.615 0.440
18.3827 18.385 0.438
18.4031 17.917 0.432
18.4236 19.052 0.445
18.4441 19.000 0.445
18.4645 18.667 0.441
18.4850 18.646 0.441
18.5054 20.240 0.459
18.5259 18.729 0.442
18.5464 19.583 0.452
18.5668 19.563 0.451
18.5873 19.604 0.452
18.6078 19.583 0.452
18.6282 20.417 0.461
18.6487 20.260 0.459
18.6692 20.240 0.459
18.6896 19.333 0.449
18.7101 19.938 0.456
18.7305 19.635 0.452
18.7510 19.979 0.456
18.7715 19.031 0.445
18.7919 18.781 0.442
18.8124 18.677 0.441
18.8329 18.833 0.443
18.8533 19.781 0.454
18.8738 22.958 0.489
18.8942 22.563 0.485
18.9147 21.063 0.468
18.9352 18.677 0.441
18.9556 18.156 0.435
18.9761 15.677 0.404
18.9966 15.375 0.400
19.0170 14.823 0.393
19.0375 15.344 0.400
19.0579 14.125 0.384
19.0784 13.813 0.379
19.0989 14.552 0.389
19.1193 14.427 0.388
19.1398 13.458 0.374
19.1603 13.781 0.379
19.1807 14.177 0.384
19.2012 14.292 0.386
19.2216 14.354 0.387
19.2421 13.802 0.379
19.2626 13.365 0.373
19.2830 12.583 0.362
19.3035 13.552 0.376
19.3240 13.406 0.374
19.3444 13.927 0.381
19.3649 13.667 0.377
19.3853 12.760 0.365
19.4058 13.813 0.379
19.4263 14.063 0.383
19.4467 13.823 0.379
19.4672 13.844 0.380
19.4877 13.656 0.377
19.5081 13.438 0.374
19.5286 13.979 0.382
19.5491 14.979 0.395
19.5695 15.000 0.395
19.5900 15.219 0.398
19.6104 16.156 0.410
19.6309 17.604 0.428
19.6514 17.698 0.429
19.6718 17.667 0.429
19.6923 18.573 0.440
19.7128 20.240 0.459
19.7332 21.854 0.477
19.7537 23.719 0.497
19.7741 30.417 0.563
19.7946 40.344 0.648
19.8151 57.260 0.772
19.8355 85.896 0.946
19.8560 123.625 1.135
19.8765 135.042 1.186
19.8969 123.146 1.133
19.9174 102.375 1.033
19.9378 76.031 0.890
19.9583 51.510 0.733
19.9788 38.573 0.634
19.9992 30.688 0.565
20.0197 25.521 0.516
20.0402 24.188 0.502
20.0606 21.938 0.478
20.0811 20.208 0.459
20.1015 19.708 0.453
20.1220 19.240 0.448
20.1425 17.865 0.431
20.1629 17.958 0.433
20.1834 16.750 0.418
20.2039 16.906 0.420
20.2243 16.438 0.414
20.2448 17.219 0.424
20.2653 17.177 0.423
20.2857 16.667 0.417
20.3062 15.917 0.407
20.3266 16.729 0.417
20.3471 16.615 0.416
20.3676 17.323 0.425
20.3880 17.458 0.426
20.4085 16.708 0.417
20.4290 16.875 0.419
20.4494 16.781 0.418
20.4699 16.365 0.413
20.4903 16.510 0.415
20.5108 16.323 0.412
20.5313 16.104 0.410
20.5517 16.083 0.409
20.5722 16.021 0.409
20.5927 15.792 0.406
20.6131 15.385 0.400
20.6336 14.021 0.382
20.6540 14.885 0.394
20.6745 13.750 0.378
20.6950 13.781 0.379
20.7154 13.927 0.381
20.7359 14.177 0.384
20.7564 13.000 0.368
20.7768 13.594 0.376
20.7973 12.594 0.362
20.8177 13.063 0.369
20.8382 12.156 0.356
20.8587 12.229 0.357
20.8791 12.688 0.364
20.8996 11.917 0.352
20.9201 12.000 0.354
20.9405 12.521 0.361
20.9610 11.927 0.352
20.9814 11.563 0.347
21.0019 12.094 0.355
21.0224 12.156 0.356
21.0428 10.719 0.334
21.0633 11.354 0.344
21.0838 11.031 0.339
21.1042 11.292 0.343
21.1247 11.427 0.345
21.1452 11.073 0.340
21.1656 10.906 0.337
21.1861 11.052 0.339
21.2065 10.573 0.332
21.2270 11.469 0.346
21.2475 10.885 0.337
21.2679 11.427 0.345
21.2884 11.260 0.342
21.3089 11.167 0.341
21.3293 11.125 0.340
21.3498 11.563 0.347
21.3702 10.948 0.338
21.3907 11.552 0.347
21.4112 11.146 0.341
21.4316 11.156 0.341
21.4521 11.198 0.342
21.4726 11.188 0.341
21.4930 11.115 0.340
21.5135 11.052 0.339
21.5339 10.750 0.335
21.5544 11.031 0.339
21.5749 10.490 0.331
21.5953 10.135 0.325
21.6158 10.313 0.328
21.6363 11.229 0.342
21.6567 10.500 0.331
21.6772 10.833 0.336
21.6976 10.167 0.325
21.7181 10.813 0.336
21.7386 10.792 0.335
21.7590 10.052 0.324
21.7795 10.469 0.330
21.8000 10.906 0.337
21.8204 9.740 0.319
21.8409 10.594 0.332
21.8613 10.396 0.329
21.8818 10.240 0.327
21.9023 10.667 0.333
21.9227 10.594 0.332
21.9432 10.208 0.326
21.9637 11.250 0.342
21.9841 10.344 0.328
22.0046 11.313 0.343
22.0251 11.333 0.344
22.0455 12.146 0.356
22.0660 13.073 0.369
22.0864 13.354 0.373
22.1069 14.458 0.388
22.1274 14.948 0.395
22.1478 17.990 0.433
22.1683 23.104 0.491
22.1888 28.844 0.548
22.2092 35.854 0.611
22.2297 35.750 0.610
22.2501 32.354 0.581
22.2706 29.490 0.554
22.2911 24.406 0.504
22.3115 19.510 0.451
22.3320 16.531 0.415
22.3525 14.094 0.383
22.3729 13.229 0.371
22.3934 12.740 0.364
22.4138 12.177 0.356
22.4343 12.500 0.361
22.4548 10.750 0.335
22.4752 11.563 0.347
22.4957 11.354 0.344
22.5162 10.510 0.331
22.5366 11.281 0.343
22.5571 10.229 0.326
22.5775 9.885 0.321
22.5980 9.802 0.320
22.6185 10.104 0.324
22.6389 9.875 0.321
22.6594 10.333 0.328
22.6799 10.615 0.333
22.7003 9.500 0.315
22.7208 10.250 0.327
22.7412 10.448 0.330
22.7617 9.917 0.321
22.7822 10.094 0.324
22.8026 10.750 0.335
22.8231 10.969 0.338
22.8436 11.448 0.345
22.8640 13.281 0.372
22.8845 16.219 0.411
22.9050 18.333 0.437
22.9254 20.906 0.467
22.9459 16.198 0.411
22.9663 14.740 0.392
22.9868 14.292 0.386
23.0073 11.552 0.347
23.0277 9.927 0.322
23.0482 9.813 0.320
23.0687 9.760 0.319
23.0891 9.583 0.316
23.1096 9.688 0.318
23.1300 9.698 0.318
23.1505 9.750 0.319
23.1710 9.583 0.316
23.1914 9.448 0.314
23.2119 10.135 0.325
23.2324 9.583 0.316
23.2528 9.323 0.312
23.2733 8.844 0.304
23.2937 9.448 0.314
23.3142 9.552 0.315
23.3347 8.958 0.305
23.3551 9.292 0.311
23.3756 9.240 0.310
23.3961 8.990 0.306
23.4165 9.000 0.306
23.4370 8.927 0.305
23.4574 8.760 0.302
23.4779 9.385 0.313
23.4984 9.698 0.318
23.5188 9.292 0.311
23.5393 9.615 0.316
23.5598 9.354 0.312
23.5802 9.469 0.314
23.6007 9.552 0.315
23.6211 10.031 0.323
23.6416 10.844 0.336
23.6621 11.521 0.346
23.6825 12.469 0.360
23.7030 12.760 0.365
23.7235 12.250 0.357
23.7439 11.427 0.345
23.7644 11.208 0.342
23.7849 10.635 0.333
23.8053 9.365 0.312
23.8258 9.104 0.308
23.8462 8.792 0.303
23.8667 9.469 0.314
23.8872 9.000 0.306
23.9076 9.344 0.312
23.9281 8.885 0.304
23.9486 8.719 0.301
23.9690 8.448 0.297
23.9895 8.594 0.299
24.0099 9.063 0.307
24.0304 8.875 0.304
24.0509 8.833 0.303
24.0713 8.750 0.302
24.0918 9.583 0.316
24.1123 8.698 0.301
24.1327 8.479 0.297
24.1532 9.156 0.309
24.1736 10.323 0.328
24.1941 10.573 0.332
24.2146 11.406 0.345
24.2350 10.313 0.328
24.2555 10.135 0.325
24.2760 9.760 0.319
24.2964 9.469 0.314
24.3169 9.833 0.320
24.3373 9.885 0.321
24.3578 10.240 0.327
24.3783 10.552 0.332
24.3987 10.490 0.331
24.4192 10.698 0.334
24.4397 9.323 0.312
24.4601 9.177 0.309
24.4806 9.146 0.309
24.5011 8.677 0.301
24.5215 8.885 0.304
24.5420 8.219 0.293
24.5624 9.167 0.309
24.5829 8.896 0.304
24.6034 8.729 0.302
24.6238 8.604 0.299
24.6443 8.677 0.301
24.6648 9.104 0.308
24.6852 10.302 0.328
24.7057 10.167 0.325
24.7261 9.604 0.316
24.7466 9.344 0.312
24.7671 9.406 0.313
24.7875 8.958 0.305
24.8080 8.281 0.294
24.8285 8.500 0.298
24.8489 8.688 0.301
24.8694 8.229 0.293
24.8898 7.885 0.287
24.9103 8.198 0.292
24.9308 7.698 0.283
24.9512 8.073 0.290
24.9717 8.073 0.290
24.9922 7.635 0.282
25.0126 7.792 0.285
25.0331 8.167 0.292
25.0535 8.208 0.292
25.0740 8.000 0.289
25.0945 8.396 0.296
25.1149 8.073 0.290
25.1354 8.052 0.290
25.1559 8.500 0.298
25.1763 7.635 0.282
25.1968 8.313 0.294
25.2172 8.260 0.293
25.2377 8.396 0.296
25.2582 7.979 0.288
25.2786 7.625 0.282
25.2991 7.510 0.280
25.3196 8.219 0.293
25.3400 8.417 0.296
25.3605 7.771 0.285
25.3810 8.115 0.291
25.4014 8.250 0.293
25.4219 8.677 0.301
25.4423 8.021 0.289
25.4628 8.427 0.296
25.4833 8.615 0.300
25.5037 8.635 0.300
25.5242 8.677 0.301
25.5447 10.406 0.329
25.5651 12.031 0.354
25.5856 14.427 0.388
25.6060 15.188 0.398
25.6265 13.385 0.373
25.6470 12.115 0.355
25.6674 11.906 0.352
25.6879 10.833 0.336
25.7084 9.375 0.313
25.7288 8.813 0.303
25.7493 8.542 0.298
25.7697 8.615 0.300
25.7902 8.573 0.299
25.8107 8.104 0.291
25.8311 7.927 0.287
25.8516 8.740 0.302
25.8721 8.667 0.300
25.8925 7.719 0.284
25.9130 8.219 0.293
25.9334 8.427 0.296
25.9539 7.854 0.286
25.9744 8.021 0.289
25.9948 7.990 0.288
26.0153 7.729 0.284
26.0358 8.313 0.294
26.0562 7.875 0.286
26.0767 7.917 0.287
26.0971 7.427 0.278
26.1176 8.083 0.290
26.1381 7.792 0.285
26.1585 7.885 0.287
26.1790 8.323 0.294
26.1995 8.073 0.290
26.2199 7.750 0.284
26.2404 8.177 0.292
26.2609 7.573 0.281
26.2813 7.729 0.284
26.3018 8.333 0.295
26.3222 8.375 0.295
26.3427 8.375 0.295
26.3632 7.729 0.284
26.3836 8.125 0.291
26.4041 8.542 0.298
26.4246 8.219 0.293
26.4450 8.375 0.295
26.4655 8.229 0.293
26.4859 7.469 0.279
26.5064 8.208 0.292
26.5269 8.156 0.291
26.5473 7.469 0.279
26.5678 7.896 0.287
26.5883 8.208 0.292
26.6087 7.833 0.286
26.6292 8.115 0.291
26.6496 7.771 0.285
26.6701 7.927 0.287
26.6906 7.740 0.284
26.7110 8.010 0.289
26.7315 8.250 0.293
26.7520 8.042 0.289
26.7724 8.396 0.296
26.7929 8.240 0.293
26.8133 7.906 0.287
26.8338 8.365 0.295
26.8543 7.760 0.284
26.8747 8.208 0.292
26.8952 8.375 0.295
26.9157 8.115 0.291
26.9361 8.094 0.290
26.9566 7.729 0.284
26.9770 8.177 0.292
26.9975 7.667 0.283
27.0180 7.615 0.282
27.0384 8.042 0.289
27.0589 7.406 0.278
27.0794 8.167 0.292
27.0998 8.344 0.295
27.1203 7.969 0.288
27.1408 7.906 0.287
27.1612 8.042 0.289
27.1817 8.219 0.293
27.2021 8.469 0.297
27.2226 8.896 0.304
27.2431 9.510 0.315
27.2635 9.156 0.309
27.2840 8.823 0.303
27.3045 8.656 0.300
27.3249 8.333 0.295
27.3454 8.260 0.293
27.3658 8.438 0.296
27.3863 8.479 0.297
27.4068 8.875 0.304
27.4272 9.365 0.312
27.4477 10.156 0.325
27.4682 14.021 0.382
27.4886 18.219 0.436
27.5091 22.333 0.482
27.5295 15.594 0.403
27.5500 13.594 0.376
27.5705 14.948 0.395
27.5909 12.396 0.359
27.6114 9.510 0.315
27.6319 8.417 0.296
27.6523 8.010 0.289
27.6728 7.823 0.285
27.6932 8.677 0.301
27.7137 7.927 0.287
27.7342 7.760 0.284
27.7546 8.010 0.289
27.7751 8.083 0.290
27.7956 7.979 0.288
27.8160 8.667 0.300
27.8365 8.583 0.299
27.8569 7.927 0.287
27.8774 7.677 0.283
27.8979 7.802 0.285
27.9183 7.740 0.284
27.9388 7.240 0.275
27.9593 7.729 0.284
27.9797 8.188 0.292
28.0002 7.958 0.288
28.0207 8.104 0.291
28.0411 7.219 0.274
28.0616 7.365 0.277
28.0820 7.677 0.283
28.1025 8.000 0.289
28.1230 7.615 0.282
28.1434 7.656 0.282
28.1639 7.677 0.283
28.1844 7.760 0.284
28.2048 7.573 0.281
28.2253 7.500 0.280
28.2457 7.615 0.282
28.2662 7.813 0.285
28.2867 7.438 0.278
28.3071 7.250 0.275
28.3276 7.615 0.282
28.3481 7.813 0.285
28.3685 7.396 0.278
28.3890 7.469 0.279
28.4094 7.708 0.283
28.4299 7.583 0.281
28.4504 7.240 0.275
28.4708 7.375 0.277
28.4913 7.573 0.281
28.5118 7.604 0.281
28.5322 7.323 0.276
28.5527 7.802 0.285
28.5731 7.604 0.281
28.5936 7.479 0.279
28.6141 7.573 0.281
28.6345 7.510 0.280
28.6550 7.771 0.285
28.6755 8.073 0.290
28.6959 7.760 0.284
28.7164 7.594 0.281
28.7368 7.625 0.282
28.7573 7.917 0.287
28.7778 7.302 0.276
28.7982 7.750 0.284
28.8187 7.042 0.271
28.8392 7.604 0.281
28.8596 7.302 0.276
28.8801 6.677 0.264
28.9006 7.292 0.276
28.9210 7.240 0.275
28.9415 7.010 0.270
28.9619 7.115 0.272
28.9824 7.250 0.275
29.0029 7.698 0.283
29.0233 7.510 0.280
29.0438 7.167 0.273
29.0643 7.229 0.274
29.0847 7.823 0.285
29.1052 7.854 0.286
29.1256 8.094 0.290
29.1461 7.760 0.284
29.1666 7.604 0.281
29.1870 7.885 0.287
29.2075 7.531 0.280
29.2280 7.688 0.283
29.2484 7.604 0.281
29.2689 7.323 0.276
29.2893 7.167 0.273
29.3098 7.094 0.272
29.3303 7.375 0.277
29.3507 7.677 0.283
29.3712 7.854 0.286
29.3917 7.948 0.288
29.4121 7.698 0.283
29.4326 7.771 0.285
29.4530 7.021 0.270
29.4735 7.219 0.274
29.4940 7.656 0.282
29.5144 7.667 0.283
29.5349 7.844 0.286
29.5554 8.000 0.289
29.5758 7.708 0.283
29.5963 8.365 0.295
29.6168 8.146 0.291
29.6372 7.969 0.288
29.6577 7.844 0.286
29.6781 7.875 0.286
29.6986 7.042 0.271
29.7191 7.229 0.274
29.7395 7.615 0.282
29.7600 7.344 0.277
29.7805 6.604 0.262
29.8009 7.708 0.283
29.8214 7.021 0.270
29.8418 6.844 0.267
29.8623 6.958 0.269
29.8828 7.344 0.277
29.9032 7.500 0.280
29.9237 7.833 0.286
29.9442 7.240 0.275
29.9646 7.146 0.273
29.9851 6.583 0.262
30.0055 7.198 0.274
30.0260 7.354 0.277
30.0465 7.052 0.271
30.0669 7.135 0.273
30.0874 7.229 0.274
30.1079 7.458 0.279
30.1283 7.396 0.278
30.1488 6.833 0.267
30.1692 7.156 0.273
30.1897 6.885 0.268
30.2102 7.219 0.274
30.2306 7.240 0.275
30.2511 7.354 0.277
30.2716 6.875 0.268
30.2920 7.188 0.274
30.3125 7.313 0.276
30.3329 7.385 0.277
30.3534 7.406 0.278
30.3739 7.188 0.274
30.3943 7.302 0.276
30.4148 7.458 0.279
30.4353 7.344 0.277
30.4557 7.229 0.274
30.4762 7.510 0.280
30.4967 7.021 0.270
30.5171 6.958 0.269
30.5376 7.219 0.274
30.5580 7.094 0.272
30.5785 7.063 0.271
30.5990 7.594 0.281
30.6194 7.615 0.282
30.6399 7.031 0.271
30.6604 6.948 0.269
30.6808 8.104 0.291
30.7013 7.885 0.287
30.7217 7.313 0.276
30.7422 8.094 0.290
30.7627 8.052 0.290
30.7831 7.990 0.288
30.8036 7.906 0.287
30.8241 8.219 0.293
30.8445 8.292 0.294
30.8650 8.292 0.294
30.8854 8.708 0.301
30.9059 9.521 0.315
30.9264 9.698 0.318
30.9468 11.625 0.348
30.9673 13.510 0.375
30.9878 18.240 0.436
31.0082 24.719 0.507
31.0287 32.688 0.584
31.0491 38.344 0.632
31.0696 36.115 0.613
31.0901 32.656 0.583
31.1105 31.188 0.570
31.1310 28.823 0.548
31.1515 23.969 0.500
31.1719 19.635 0.452
31.1924 15.531 0.402
31.2128 13.417 0.374
31.2333 11.656 0.348
31.2538 10.354 0.328
31.2742 10.417 0.329
31.2947 10.010 0.323
31.3152 8.615 0.300
31.3356 8.792 0.303
31.3561 9.073 0.307
31.3766 9.156 0.309
31.3970 8.677 0.301
31.4175 8.729 0.302
31.4379 8.188 0.292
31.4584 8.500 0.298
31.4789 7.948 0.288
31.4993 7.760 0.284
31.5198 7.625 0.282
31.5403 7.417 0.278
31.5607 7.635 0.282
31.5812 7.656 0.282
31.6016 7.365 0.277
31.6221 7.323 0.276
31.6426 7.240 0.275
31.6630 7.521 0.280
31.6835 7.708 0.283
31.7040 7.365 0.277
31.7244 7.604 0.281
31.7449 7.500 0.280
31.7653 7.542 0.280
31.7858 7.333 0.276
31.8063 7.760 0.284
31.8267 8.406 0.296
31.8472 9.667 0.317
31.8677 9.406 0.313
31.8881 9.073 0.307
31.9086 8.302 0.294
31.9290 8.969 0.306
31.9495 8.615 0.300
31.9700 8.146 0.291
31.9904 8.260 0.293
32.0109 7.885 0.287
32.0314 8.677 0.301
32.0518 9.052 0.307
32.0723 9.458 0.314
32.0927 9.500 0.315
32.1132 9.583 0.316
32.1337 10.604 0.332
32.1541 11.802 0.351
32.1746 12.042 0.354
32.1951 12.958 0.367
32.2155 15.521 0.402
32.2360 18.094 0.434
32.2565 15.458 0.401
32.2769 11.958 0.353
32.2974 12.042 0.354
32.3178 12.594 0.362
32.3383 11.406 0.345
32.3588 9.198 0.310
32.3792 9.385 0.313
32.3997 8.583 0.299
32.4202 9.240 0.310
32.4406 9.010 0.306
32.4611 9.281 0.311
32.4815 8.990 0.306
32.5020 9.229 0.310
32.5225 9.344 0.312
32.5429 10.719 0.334
32.5634 11.385 0.344
32.5839 12.063 0.354
32.6043 14.490 0.389
32.6248 16.375 0.413
32.6452 17.698 0.429
32.6657 18.156 0.435
32.6862 18.000 0.433
32.7066 16.135 0.410
32.7271 14.365 0.387
32.7476 14.000 0.382
32.7680 11.646 0.348
32.7885 10.948 0.338
32.8089 9.750 0.319
32.8294 8.917 0.305
32.8499 9.625 0.317
32.8703 8.260 0.293
32.8908 8.083 0.290
32.9113 8.396 0.296
32.9317 9.083 0.308
32.9522 8.302 0.294
32.9726 8.792 0.303
32.9931 8.094 0.290
33.0136 7.979 0.288
33.0340 7.948 0.288
33.0545 7.885 0.287
33.0750 7.677 0.283
33.0954 7.281 0.275
33.1159 7.469 0.279
33.1364 7.813 0.285
33.1568 9.219 0.310
33.1773 9.875 0.321
33.1977 10.594 0.332
33.2182 9.219 0.310
33.2387 8.448 0.297
33.2591 9.458 0.314
33.2796 9.219 0.310
33.3001 8.740 0.302
33.3205 7.813 0.285
33.3410 7.729 0.284
33.3614 7.990 0.288
33.3819 8.104 0.291
33.4024 7.896 0.287
33.4228 7.615 0.282
33.4433 7.813 0.285
33.4638 7.896 0.287
33.4842 7.188 0.274
33.5047 7.458 0.279
33.5251 6.708 0.264
33.5456 7.677 0.283
33.5661 7.438 0.278
33.5865 7.365 0.277
33.6070 7.313 0.276
33.6275 7.042 0.271
33.6479 7.219 0.274
33.6684 7.625 0.282
33.6888 7.604 0.281
33.7093 7.344 0.277
33.7298 7.406 0.278
33.7502 8.073 0.290
33.7707 7.094 0.272
33.7912 7.281 0.275
33.8116 7.302 0.276
33.8321 7.667 0.283
33.8526 7.333 0.276
33.8730 7.177 0.273
33.8935 6.865 0.267
33.9139 6.833 0.267
33.9344 7.146 0.273
33.9549 7.125 0.272
33.9753 7.083 0.272
33.9958 6.604 0.262
34.0163 7.250 0.275
34.0367 6.615 0.262
34.0572 6.531 0.261
34.0776 7.094 0.272
34.0981 7.198 0.274
34.1186 7.229 0.274
34.1390 7.052 0.271
34.1595 7.229 0.274
34.1800 7.719 0.284
34.2004 8.667 0.300
34.2209 9.542 0.315
34.2413 11.458 0.345
34.2618 10.583 0.332
34.2823 9.583 0.316
34.3027 9.146 0.309
34.3232 9.656 0.317
34.3437 10.323 0.328
34.3641 8.906 0.305
34.3846 8.208 0.292
34.4050 7.958 0.288
34.4255 7.802 0.285
34.4460 7.563 0.281
34.4664 7.656 0.282
34.4869 7.854 0.286
34.5074 7.552 0.280
34.5278 7.021 0.270
34.5483 6.708 0.264
34.5687 6.677 0.264
34.5892 7.094 0.272
34.6097 7.250 0.275
34.6301 6.927 0.269
34.6506 7.146 0.273
34.6711 7.063 0.271
34.6915 7.063 0.271
34.7120 6.760 0.265
34.7325 7.323 0.276
34.7529 6.969 0.269
34.7734 6.865 0.267
34.7938 6.688 0.264
34.8143 7.281 0.275
34.8348 7.479 0.279
34.8552 7.708 0.283
34.8757 7.208 0.274
34.8962 7.844 0.286
34.9166 8.958 0.305
34.9371 10.760 0.335
34.9575 13.792 0.379
34.9780 15.281 0.399
34.9985 12.010 0.354
35.0189 10.375 0.329
35.0394 10.302 0.328
35.0599 11.344 0.344
35.0803 9.948 0.322
35.1008 8.750 0.302
35.1212 7.313 0.276
35.1417 7.052 0.271
35.1622 7.156 0.273
35.1826 6.917 0.268
35.2031 7.219 0.274
35.2236 6.958 0.269
35.2440 6.802 0.266
35.2645 6.719 0.265
35.2849 7.427 0.278
35.3054 7.646 0.282
35.3259 6.885 0.268
35.3463 7.115 0.272
35.3668 7.135 0.273
35.3873 6.708 0.264
35.4077 6.979 0.270
35.4282 7.188 0.274
35.4486 7.167 0.273
35.4691 6.917 0.268
35.4896 7.510 0.280
35.5100 7.354 0.277
35.5305 7.667 0.283
35.5510 7.656 0.282
35.5714 8.094 0.290
35.5919 7.417 0.278
35.6124 7.896 0.287
35.6328 8.146 0.291
35.6533 8.021 0.289
35.6737 7.896 0.287
35.6942 7.417 0.278
35.7147 7.115 0.272
35.7351 7.052 0.271
35.7556 7.708 0.283
35.7761 7.531 0.280
35.7965 7.729 0.284
35.8170 6.958 0.269
35.8374 7.167 0.273
35.8579 8.219 0.293
35.8784 7.719 0.284
35.8988 8.042 0.289
35.9193 8.302 0.294
35.9398 8.583 0.299
35.9602 8.865 0.304
35.9807 8.594 0.299
36.0011 8.948 0.305
36.0216 9.104 0.308
36.0421 9.677 0.317
36.0625 10.219 0.326
36.0830 10.323 0.328
36.1035 10.979 0.338
36.1239 11.167 0.341
36.1444 12.208 0.357
36.1648 12.135 0.356
36.1853 12.063 0.354
36.2058 11.802 0.351
36.2262 12.573 0.362
36.2467 12.125 0.355
36.2672 11.896 0.352
36.2876 11.552 0.347
36.3081 11.865 0.352
36.3285 11.896 0.352
36.3490 10.781 0.335
36.3695 10.625 0.333
36.3899 11.281 0.343
36.4104 12.000 0.354
36.4309 11.958 0.353
36.4513 12.250 0.357
36.4718 12.406 0.359
36.4923 12.646 0.363
36.5127 13.625 0.377
36.5332 13.729 0.378
36.5536 15.677 0.404
36.5741 16.990 0.421
36.5946 19.115 0.446
36.6150 22.208 0.481
36.6355 23.135 0.491
36.6560 21.469 0.473
36.6764 19.344 0.449
36.6969 18.938 0.444
36.7173 18.625 0.440
36.7378 17.729 0.430
36.7583 15.802 0.406
36.7787 14.750 0.392
36.7992 13.625 0.377
36.8197 13.135 0.370
36.8401 12.906 0.367
36.8606 12.792 0.365
36.8810 13.000 0.368
36.9015 12.865 0.366
36.9220 13.583 0.376
36.9424 13.229 0.371
36.9629 14.292 0.386
36.9834 14.135 0.384
37.0038 14.229 0.385
37.0243 16.844 0.419
37.0447 17.771 0.430
37.0652 21.104 0.469
37.0857 24.083 0.501
37.1061 27.646 0.537
37.1266 27.990 0.540
37.1471 26.323 0.524
37.1675 24.969 0.510
37.1880 23.594 0.496
37.2084 21.969 0.478
37.2289 21.823 0.477
37.2494 19.625 0.452
37.2698 18.521 0.439
37.2903 16.271 0.412
37.3108 14.781 0.392
37.3312 13.875 0.380
37.3517 12.521 0.361
37.3722 12.813 0.365
37.3926 11.823 0.351
37.4131 11.302 0.343
37.4335 11.000 0.339
37.4540 10.802 0.335
37.4745 11.208 0.342
37.4949 10.510 0.331
37.5154 10.479 0.330
37.5359 9.875 0.321
37.5563 10.750 0.335
37.5768 10.188 0.326
37.5972 9.635 0.317
37.6177 9.219 0.310
37.6382 9.885 0.321
37.6586 9.146 0.309
37.6791 9.563 0.316
37.6996 9.823 0.320
37.7200 9.729 0.318
37.7405 9.958 0.322
37.7609 9.521 0.315
37.7814 9.260 0.311
37.8019 9.646 0.317
37.8223 9.615 0.316
37.8428 10.552 0.332
37.8633 9.813 0.320
37.8837 9.510 0.315
37.9042 10.021 0.323
37.9246 9.552 0.315
37.9451 9.604 0.316
37.9656 9.708 0.318
37.9860 10.781 0.335
38.0065 11.938 0.353
38.0270 12.115 0.355
38.0474 13.333 0.373
38.0679 14.271 0.386
38.0884 14.625 0.390
38.1088 14.021 0.382
38.1293 13.656 0.377
38.1497 13.708 0.378
38.1702 13.396 0.374
38.1907 13.240 0.371
38.2111 12.167 0.356
38.2316 11.448 0.345
38.2521 11.958 0.353
38.2725 11.406 0.345
38.2930 10.708 0.334
38.3134 10.719 0.334
38.3339 10.906 0.337
38.3544 10.479 0.330
38.3748 10.240 0.327
38.3953 10.792 0.335
38.4158 11.125 0.340
38.4362 11.469 0.346
38.4567 12.271 0.358
38.4771 13.010 0.368
38.4976 13.281 0.372
38.5181 13.833 0.380
38.5385 12.802 0.365
38.5590 11.854 0.351
38.5795 11.990 0.353
38.5999 12.135 0.356
38.6204 11.375 0.344
38.6408 10.781 0.335
38.6613 9.854 0.320
38.6818 9.563 0.316
38.7022 9.677 0.317
38.7227 9.396 0.313
38.7432 8.323 0.294
38.7636 9.073 0.307
38.7841 8.708 0.301
38.8045 8.635 0.300
38.8250 8.604 0.299
38.8455 8.958 0.305
38.8659 8.292 0.294
38.8864 9.021 0.307
38.9069 8.802 0.303
38.9273 8.635 0.300
38.9478 8.729 0.302
38.9683 8.458 0.297
38.9887 8.823 0.303
39.0092 8.292 0.294
39.0296 9.010 0.306
39.0501 8.708 0.301
39.0706 8.563 0.299
39.0910 8.906 0.305
39.1115 8.677 0.301
39.1320 8.490 0.297
39.1524 8.125 0.291
39.1729 8.188 0.292
39.1933 8.219 0.293
39.2138 8.573 0.299
39.2343 8.156 0.291
39.2547 8.844 0.304
39.2752 8.958 0.305
39.2957 8.656 0.300
39.3161 8.677 0.301
39.3366 8.260 0.293
39.3570 8.323 0.294
39.3775 8.698 0.301
39.3980 8.698 0.301
39.4184 8.969 0.306
39.4389 8.104 0.291
39.4594 9.010 0.306
39.4798 8.906 0.305
39.5003 8.823 0.303
39.5207 8.698 0.301
39.5412 8.938 0.305
39.5617 8.135 0.291
39.5821 8.823 0.303
39.6026 8.396 0.296
39.6231 8.188 0.292
39.6435 8.490 0.297
39.6640 8.552 0.298
39.6844 8.250 0.293
39.7049 8.438 0.296
39.7254 8.260 0.293
39.7458 8.677 0.301
39.7663 9.146 0.309
39.7868 9.667 0.317
39.8072 10.115 0.325
39.8277 10.490 0.331
39.8482 10.146 0.325
39.8686 10.740 0.334
39.8891 9.927 0.322
39.9095 9.323 0.312
39.9300 9.677 0.317
39.9505 9.083 0.308
39.9709 9.292 0.311
39.9914 8.458 0.297
40.0119 8.365 0.295
40.0323 8.552 0.298
40.0528 8.417 0.296
40.0732 8.656 0.300
40.0937 8.271 0.294
40.1142 7.906 0.287
40.1346 8.115 0.291
40.1551 8.740 0.302
40.1756 8.510 0.298
40.1960 8.219 0.293
40.2165 8.563 0.299
40.2369 8.708 0.301
40.2574 9.344 0.312
40.2779 9.000 0.306
40.2983 10.240 0.327
40.3188 11.563 0.347
40.3393 12.240 0.357
40.3597 12.667 0.363
40.3802 13.281 0.372
40.4006 13.385 0.373
40.4211 11.771 0.350
40.4416 11.094 0.340
40.4620 10.406 0.329
40.4825 10.354 0.328
40.5030 10.771 0.335
40.5234 9.667 0.317
40.5439 9.313 0.311
40.5643 9.333 0.312
40.5848 8.594 0.299
40.6053 8.427 0.296
40.6257 8.552 0.298
40.6462 8.750 0.302
40.6667 8.625 0.300
40.6871 7.927 0.287
40.7076 8.927 0.305
40.7281 8.417 0.296
40.7485 9.292 0.311
40.7690 9.854 0.320
40.7894 11.594 0.348
40.8099 13.917 0.381
40.8304 14.813 0.393
40.8508 12.073 0.355
40.8713 10.281 0.327
40.8918 10.104 0.324
40.9122 10.563 0.332
40.9327 10.583 0.332
40.9531 9.490 0.314
40.9736 8.427 0.296
40.9941 8.281 0.294
41.0145 8.156 0.291
41.0350 8.594 0.299
41.0555 8.438 0.296
41.0759 8.688 0.301
41.0964 8.990 0.306
41.1168 9.167 0.309
41.1373 10.354 0.328
41.1578 10.885 0.337
41.1782 12.208 0.357
41.1987 12.677 0.363
41.2192 12.760 0.365
41.2396 12.292 0.358
41.2601 12.573 0.362
41.2805 12.073 0.355
41.3010 11.646 0.348
41.3215 10.667 0.333
41.3419 10.313 0.328
41.3624 9.865 0.321
41.3829 9.000 0.306
41.4033 9.313 0.311
41.4238 7.927 0.287
41.4442 7.917 0.287
41.4647 7.771 0.285
41.4852 7.594 0.281
41.5056 7.313 0.276
41.5261 7.031 0.271
41.5466 7.083 0.272
41.5670 7.229 0.274
41.5875 7.615 0.282
41.6080 7.729 0.284
41.6284 8.167 0.292
41.6489 7.542 0.280
41.6693 7.865 0.286
41.6898 7.875 0.286
41.7103 7.177 0.273
41.7307 7.417 0.278
41.7512 7.698 0.283
41.7717 7.875 0.286
41.7921 7.969 0.288
41.8126 7.240 0.275
41.8330 8.156 0.291
41.8535 8.271 0.294
41.8740 8.354 0.295
41.8944 10.104 0.324
41.9149 11.063 0.339
41.9354 9.156 0.309
41.9558 8.771 0.302
41.9763 8.406 0.296
41.9967 9.385 0.313
42.0172 9.594 0.316
42.0377 8.719 0.301
42.0581 7.813 0.285
42.0786 7.625 0.282
42.0991 7.500 0.280
42.1195 7.344 0.277
42.1400 7.333 0.276
42.1604 7.292 0.276
42.1809 7.208 0.274
42.2014 7.469 0.279
42.2218 7.719 0.284
42.2423 7.031 0.271
42.2628 7.729 0.284
42.2832 7.188 0.274
42.3037 7.563 0.281
42.3242 7.094 0.272
42.3446 7.490 0.279
42.3651 7.813 0.285
42.3855 7.615 0.282
42.4060 7.823 0.285
42.4265 8.188 0.292
42.4469 7.938 0.288
42.4674 7.677 0.283
42.4879 8.208 0.292
42.5083 8.521 0.298
42.5288 9.146 0.309
42.5492 9.542 0.315
42.5697 8.573 0.299
42.5902 9.198 0.310
42.6106 8.469 0.297
42.6311 8.427 0.296
42.6516 9.094 0.308
42.6720 9.490 0.314
42.6925 8.542 0.298
42.7129 8.229 0.293
42.7334 8.083 0.290
42.7539 8.406 0.296
42.7743 8.500 0.298
42.7948 7.583 0.281
42.8153 8.417 0.296
42.8357 7.510 0.280
42.8562 7.844 0.286
42.8766 7.625 0.282
42.8971 7.375 0.277
42.9176 7.365 0.277
42.9380 7.365 0.277
42.9585 7.604 0.281
42.9790 7.958 0.288
42.9994 7.542 0.280
43.0199 7.490 0.279
43.0403 7.885 0.287
43.0608 7.427 0.278
43.0813 7.396 0.278
43.1017 7.302 0.276
43.1222 7.865 0.286
43.1427 8.354 0.295
43.1631 7.563 0.281
43.1836 8.094 0.290
43.2041 8.479 0.297
43.2245 9.229 0.310
43.2450 9.104 0.308
43.2654 9.365 0.312
43.2859 9.052 0.307
43.3064 8.875 0.304
43.3268 9.083 0.308
43.3473 8.885 0.304
43.3678 9.188 0.309
43.3882 9.229 0.310
43.4087 9.302 0.311
43.4291 9.198 0.310
43.4496 9.417 0.313
43.4701 8.979 0.306
43.4905 9.271 0.311
43.5110 9.698 0.318
43.5315 9.781 0.319
43.5519 9.781 0.319
43.5724 10.365 0.329
43.5928 10.896 0.337
43.6133 11.865 0.352
43.6338 13.792 0.379
43.6542 15.646 0.404
43.6747 16.719 0.417
43.6952 17.292 0.424
43.7156 17.073 0.422
43.7361 15.802 0.406
43.7565 15.156 0.397
43.7770 14.375 0.387
43.7975 14.021 0.382
43.8179 13.281 0.372
43.8384 12.563 0.362
43.8589 11.917 0.352
43.8793 11.063 0.339
43.8998 10.458 0.330
43.9202 9.542 0.315
43.9407 8.802 0.303
43.9612 9.135 0.308
43.9816 8.854 0.304
44.0021 8.865 0.304
44.0226 8.708 0.301
44.0430 7.750 0.284
44.0635 7.958 0.288
44.0840 7.677 0.283
44.1044 7.656 0.282
44.1249 7.750 0.284
44.1453 7.635 0.282
44.1658 7.990 0.288
44.1863 7.313 0.276
44.2067 7.229 0.274
44.2272 6.646 0.263
44.2477 7.438 0.278
44.2681 7.458 0.279
44.2886 7.260 0.275
44.3090 7.146 0.273
44.3295 7.385 0.277
44.3500 7.406 0.278
44.3704 7.354 0.277
44.3909 7.604 0.281
44.4114 7.646 0.282
44.4318 7.115 0.272
44.4523 7.573 0.281
44.4727 7.094 0.272
44.4932 7.073 0.271
44.5137 6.969 0.269
44.5341 7.104 0.272
44.5546 7.208 0.274
44.5751 7.417 0.278
44.5955 7.167 0.273
44.6160 7.271 0.275
44.6364 6.875 0.268
44.6569 6.917 0.268
44.6774 7.365 0.277
44.6978 7.333 0.276
44.7183 7.490 0.279
44.7388 6.823 0.267
44.7592 7.438 0.278
44.7797 7.323 0.276
44.8001 7.427 0.278
44.8206 7.031 0.271
44.8411 7.573 0.281
44.8615 7.427 0.278
44.8820 7.104 0.272
44.9025 6.583 0.262
44.9229 7.344 0.277
44.9434 7.490 0.279
44.9639 7.448 0.279
44.9843 7.552 0.280
45.0048 7.135 0.273
45.0252 7.323 0.276
45.0457 7.052 0.271
45.0662 6.948 0.269
45.0866 7.417 0.278
45.1071 7.104 0.272
45.1276 7.375 0.277
45.1480 7.552 0.280
45.1685 7.792 0.285
45.1889 7.729 0.284
45.2094 7.771 0.285
45.2299 8.479 0.297
45.2503 8.802 0.303
45.2708 10.167 0.325
45.2913 9.500 0.315
45.3117 9.865 0.321
45.3322 9.385 0.313
45.3526 8.573 0.299
45.3731 8.781 0.302
45.3936 8.990 0.306
45.4140 9.167 0.309
45.4345 8.260 0.293
45.4550 8.292 0.294
45.4754 8.198 0.292
45.4959 7.479 0.279
45.5163 6.969 0.269
45.5368 7.885 0.287
45.5573 7.260 0.275
45.5777 6.948 0.269
45.5982 7.219 0.274
45.6187 7.354 0.277
45.6391 7.177 0.273
45.6596 6.938 0.269
45.6800 7.646 0.282
45.7005 7.615 0.282
45.7210 7.427 0.278
45.7414 7.406 0.278
45.7619 6.885 0.268
45.7824 7.063 0.271
45.8028 6.604 0.262
45.8233 6.667 0.264
45.8438 7.135 0.273
45.8642 6.760 0.265
45.8847 6.719 0.265
45.9051 7.031 0.271
45.9256 7.219 0.274
45.9461 6.802 0.266
45.9665 6.906 0.268
45.9870 6.375 0.258
46.0075 6.969 0.269
46.0279 6.594 0.262
46.0484 6.365 0.257
46.0688 6.615 0.262
46.0893 6.615 0.262
46.1098 6.208 0.254
46.1302 6.448 0.259
46.1507 6.438 0.259
46.1712 6.188 0.254
46.1916 6.750 0.265
46.2121 6.573 0.262
46.2325 6.719 0.265
46.2530 6.385 0.258
46.2735 6.302 0.256
46.2939 6.594 0.262
46.3144 6.490 0.260
46.3349 6.073 0.252
46.3553 6.563 0.261
46.3758 6.854 0.267
46.3962 6.115 0.252
46.4167 6.333 0.257
46.4372 6.510 0.260
46.4576 6.365 0.257
46.4781 6.552 0.261
46.4986 6.521 0.261
46.5190 6.573 0.262
46.5395 6.385 0.258
46.5600 6.417 0.259
46.5804 7.042 0.271
46.6009 7.458 0.279
46.6213 9.198 0.310
46.6418 10.500 0.331
46.6623 10.854 0.336
46.6827 9.354 0.312
46.7032 7.719 0.284
46.7237 7.708 0.283
46.7441 8.365 0.295
46.7646 8.969 0.306
46.7850 8.792 0.303
46.8055 7.917 0.287
46.8260 6.771 0.266
46.8464 6.708 0.264
46.8669 7.198 0.274
46.8874 6.490 0.260
46.9078 6.417 0.259
46.9283 6.510 0.260
46.9487 6.615 0.262
46.9692 5.969 0.249
46.9897 6.646 0.263
47.0101 6.510 0.260
47.0306 6.281 0.256
47.0511 7.000 0.270
47.0715 5.792 0.246
47.0920 6.677 0.264
47.1124 6.469 0.260
47.1329 6.656 0.263
47.1534 6.635 0.263
47.1738 6.573 0.262
47.1943 6.510 0.260
47.2148 6.208 0.254
47.2352 6.313 0.256
47.2557 6.083 0.252
47.2761 6.531 0.261
47.2966 6.083 0.252
47.3171 6.656 0.263
47.3375 6.385 0.258
47.3580 6.688 0.264
47.3785 6.271 0.256
47.3989 6.229 0.255
47.4194 6.823 0.267
47.4399 6.594 0.262
47.4603 6.760 0.265
47.4808 6.521 0.261
47.5012 6.813 0.266
47.5217 6.604 0.262
47.5422 6.927 0.269
47.5626 7.313 0.276
47.5831 7.010 0.270
47.6036 7.740 0.284
47.6240 8.292 0.294
47.6445 8.250 0.293
47.6649 8.927 0.305
47.6854 8.990 0.306
47.7059 9.073 0.307
47.7263 9.458 0.314
47.7468 8.563 0.299
47.7673 8.688 0.301
47.7877 9.083 0.308
47.8082 8.844 0.304
47.8286 8.031 0.289
47.8491 7.823 0.285
47.8696 7.313 0.276
47.8900 7.333 0.276
47.9105 7.750 0.284
47.9310 7.396 0.278
47.9514 6.667 0.264
47.9719 6.771 0.266
47.9923 7.083 0.272
48.0128 6.948 0.269
48.0333 7.042 0.271
48.0537 6.802 0.266
48.0742 7.010 0.270
48.0947 6.698 0.264
48.1151 6.156 0.253
48.1356 6.615 0.262
48.1560 6.677 0.264
48.1765 6.563 0.261
48.1970 6.521 0.261
48.2174 6.406 0.258
48.2379 6.063 0.251
48.2584 6.292 0.256
48.2788 6.292 0.256
48.2993 6.708 0.264
48.3198 6.833 0.267
48.3402 7.167 0.273
48.3607 7.240 0.275
48.3811 7.781 0.285
48.4016 7.125 0.272
48.4221 7.146 0.273
48.4425 7.135 0.273
48.4630 6.958 0.269
48.4835 7.448 0.279
48.5039 6.979 0.270
48.5244 7.177 0.273
48.5448 7.177 0.273
48.5653 6.729 0.265
48.5858 7.125 0.272
48.6062 7.156 0.273
48.6267 7.125 0.272
48.6472 7.167 0.273
48.6676 7.479 0.279
48.6881 7.365 0.277
48.7085 7.625 0.282
48.7290 7.417 0.278
48.7495 7.469 0.279
48.7699 7.313 0.276
48.7904 6.802 0.266
48.8109 6.448 0.259
48.8313 6.625 0.263
48.8518 7.292 0.276
48.8722 6.927 0.269
48.8927 6.604 0.262
48.9132 5.938 0.249
48.9336 5.969 0.249
48.9541 6.531 0.261
48.9746 6.260 0.255
48.9950 6.354 0.257
49.0155 6.635 0.263
49.0359 6.188 0.254
49.0564 6.781 0.266
49.0769 6.969 0.269
49.0973 6.958 0.269
49.1178 7.156 0.273
49.1383 6.917 0.268
49.1587 6.552 0.261
49.1792 6.542 0.261
49.1997 6.292 0.256
49.2201 6.542 0.261
49.2406 6.740 0.265
49.2610 6.896 0.268
49.2815 6.583 0.262
49.3020 6.865 0.267
49.3224 6.531 0.261
49.3429 7.177 0.273
49.3634 7.344 0.277
49.3838 8.323 0.294
49.4043 6.865 0.267
49.4247 6.729 0.265
49.4452 6.885 0.268
49.4657 7.000 0.270
49.4861 7.250 0.275
49.5066 7.031 0.271
49.5271 7.302 0.276
49.5475 7.313 0.276
49.5680 6.802 0.266
49.5884 6.948 0.269
49.6089 6.844 0.267
49.6294 7.188 0.274
49.6498 7.188 0.274
49.6703 6.865 0.267
49.6908 6.844 0.267
49.7112 7.510 0.280
49.7317 7.792 0.285
49.7521 7.563 0.281
49.7726 8.021 0.289
49.7931 9.031 0.307
49.8135 9.031 0.307
49.8340 9.813 0.320
49.8545 11.052 0.339
49.8749 11.375 0.344
49.8954 12.417 0.360
49.9158 12.990 0.368
49.9363 12.000 0.354
49.9568 11.927 0.352
49.9772 10.656 0.333
49.9977 11.167 0.341
50.0182 11.208 0.342
50.0386 10.521 0.331
50.0591 10.365 0.329
50.0796 9.792 0.319
50.1000 9.417 0.313
50.1205 8.615 0.300
50.1409 8.740 0.302
50.1614 8.333 0.295
50.1819 8.760 0.302
50.2023 8.844 0.304
50.2228 8.927 0.305
50.2433 9.292 0.311
50.2637 9.083 0.308
50.2842 8.479 0.297
50.3046 8.854 0.304
50.3251 8.979 0.306
50.3456 8.448 0.297
50.3660 8.010 0.289
50.3865 8.188 0.292
50.4070 7.844 0.286
50.4274 7.750 0.284
50.4479 7.719 0.284
50.4683 7.115 0.272
50.4888 7.458 0.279
50.5093 6.927 0.269
50.5297 6.885 0.268
50.5502 6.958 0.269
50.5707 6.604 0.262
50.5911 7.073 0.271
50.6116 6.990 0.270
50.6320 7.354 0.277
50.6525 6.698 0.264
50.6730 6.469 0.260
50.6934 6.750 0.265
50.7139 6.521 0.261
50.7344 6.750 0.265
50.7548 6.792 0.266
50.7753 6.271 0.256
50.7958 6.656 0.263
50.8162 6.229 0.255
50.8367 6.719 0.265
50.8571 6.135 0.253
50.8776 6.385 0.258
50.8981 6.531 0.261
50.9185 6.396 0.258
50.9390 6.740 0.265
50.9595 6.531 0.261
50.9799 7.021 0.270
51.0004 7.500 0.280
51.0208 7.479 0.279
51.0413 7.479 0.279
51.0618 7.490 0.279
51.0822 7.115 0.272
51.1027 7.229 0.274
51.1232 6.938 0.269
51.1436 7.333 0.276
51.1641 6.917 0.268
51.1845 6.771 0.266
51.2050 6.781 0.266
51.2255 6.646 0.263
51.2459 6.740 0.265
51.2664 6.240 0.255
51.2869 6.729 0.265
51.3073 6.677 0.264
51.3278 6.854 0.267
51.3482 6.615 0.262
51.3687 6.656 0.263
51.3892 6.177 0.254
51.4096 6.729 0.265
51.4301 6.073 0.252
51.4506 6.208 0.254
51.4710 6.188 0.254
51.4915 6.448 0.259
51.5119 6.063 0.251
51.5324 6.219 0.255
51.5529 6.625 0.263
51.5733 5.740 0.245
51.5938 6.073 0.252
51.6143 6.146 0.253
51.6347 6.990 0.270
51.6552 7.500 0.280
51.6757 6.990 0.270
51.6961 6.969 0.269
51.7166 7.042 0.271
51.7370 6.875 0.268
51.7575 7.438 0.278
51.7780 6.823 0.267
51.7984 6.885 0.268
51.8189 7.094 0.272
51.8394 6.448 0.259
51.8598 6.844 0.267
51.8803 6.698 0.264
51.9007 6.135 0.253
51.9212 6.427 0.259
51.9417 6.479 0.260
51.9621 6.938 0.269
51.9826 5.677 0.243
52.0031 5.990 0.250
52.0235 5.844 0.247
52.0440 5.927 0.248
52.0644 5.979 0.250
52.0849 6.125 0.253
52.1054 6.365 0.257
52.1258 5.938 0.249
52.1463 6.177 0.254
52.1668 5.792 0.246
52.1872 5.469 0.239
52.2077 5.333 0.236
52.2281 5.469 0.239
52.2486 5.271 0.234
52.2691 5.792 0.246
52.2895 5.542 0.240
52.3100 6.219 0.255
52.3305 6.156 0.253
52.3509 6.396 0.258
52.3714 5.979 0.250
52.3918 6.125 0.253
52.4123 6.031 0.251
52.4328 6.365 0.257
52.4532 6.385 0.258
52.4737 6.365 0.257
52.4942 5.865 0.247
52.5146 5.760 0.245
52.5351 5.594 0.241
52.5556 5.604 0.242
52.5760 5.958 0.249
52.5965 5.677 0.243
52.6169 5.406 0.237
52.6374 5.479 0.239
52.6579 5.250 0.234
52.6783 5.552 0.240
52.6988 5.438 0.238
52.7193 5.188 0.232
52.7397 5.438 0.238
52.7602 5.542 0.240
52.7806 4.969 0.228
52.8011 5.490 0.239
52.8216 5.229 0.233
52.8420 5.167 0.232
52.8625 5.292 0.235
52.8830 5.594 0.241
52.9034 5.292 0.235
52.9239 5.510 0.240
52.9443 5.250 0.234
52.9648 5.542 0.240
52.9853 5.719 0.244
53.0057 5.708 0.244
53.0262 5.635 0.242
53.0467 6.083 0.252
53.0671 6.396 0.258
53.0876 5.521 0.240
53.1080 5.635 0.242
53.1285 5.573 0.241
53.1490 5.427 0.238
53.1694 5.615 0.242
53.1899 5.573 0.241
53.2104 5.688 0.243
53.2308 5.385 0.237
53.2513 5.510 0.240
53.2717 5.844 0.247
53.2922 5.104 0.231
53.3127 5.292 0.235
53.3331 4.885 0.226
53.3536 5.302 0.235
53.3741 5.188 0.232
53.3945 5.354 0.236
53.4150 5.354 0.236
53.4355 5.563 0.241
53.4559 5.406 0.237
53.4764 5.427 0.238
53.4968 4.948 0.227
53.5173 5.510 0.240
53.5378 5.521 0.240
53.5582 5.167 0.232
53.5787 5.375 0.237
53.5992 5.479 0.239
53.6196 5.625 0.242
53.6401 5.406 0.237
53.6605 5.656 0.243
53.6810 5.417 0.238
53.7015 5.906 0.248
53.7219 6.198 0.254
53.7424 5.500 0.239
53.7629 5.677 0.243
53.7833 5.760 0.245
53.8038 5.365 0.236
53.8242 5.260 0.234
53.8447 5.344 0.236
53.8652 5.479 0.239
53.8856 5.083 0.230
53.9061 5.531 0.240
53.9266 5.594 0.241
53.9470 4.781 0.223
53.9675 5.500 0.239
53.9879 5.406 0.237
54.0084 5.354 0.236
54.0289 5.479 0.239
54.0493 5.458 0.238
54.0698 5.188 0.232
54.0903 5.229 0.233
54.1107 5.760 0.245
54.1312 5.552 0.240
54.1516 5.333 0.236
54.1721 6.156 0.253
54.1926 6.052 0.251
54.2130 5.375 0.237
54.2335 5.698 0.244
54.2540 5.542 0.240
54.2744 5.635 0.242
54.2949 5.229 0.233
54.3154 5.135 0.231
54.3358 5.406 0.237
54.3563 5.260 0.234
54.3767 5.281 0.235
54.3972 5.177 0.232
54.4177 5.719 0.244
54.4381 5.396 0.237
54.4586 5.833 0.247
54.4791 5.594 0.241
54.4995 5.490 0.239
54.5200 5.510 0.240
54.5404 5.708 0.244
54.5609 5.979 0.250
54.5814 5.552 0.240
54.6018 6.031 0.251
54.6223 5.458 0.238
54.6428 5.333 0.236
54.6632 5.510 0.240
54.6837 5.156 0.232
54.7041 5.792 0.246
54.7246 5.563 0.241
54.7451 5.146 0.232
54.7655 5.365 0.236
54.7860 5.729 0.244
54.8065 5.250 0.234
54.8269 5.146 0.232
54.8474 5.396 0.237
54.8678 5.760 0.245
54.8883 5.177 0.232
54.9088 5.417 0.238
54.9292 5.844 0.247
54.9497 5.729 0.244
54.9702 5.854 0.247
54.9906 6.094 0.252
55.0111 6.281 0.256
55.0316 6.510 0.260
55.0520 6.740 0.265
55.0725 7.000 0.270
55.0929 8.313 0.294
55.1134 8.969 0.306
55.1339 10.396 0.329
55.1543 10.719 0.334
55.1748 12.031 0.354
55.1953 13.552 0.376
55.2157 14.281 0.386
55.2362 13.646 0.377
55.2566 12.531 0.361
55.2771 11.542 0.347
55.2976 11.208 0.342
55.3180 11.177 0.341
55.3385 11.219 0.342
55.3590 10.781 0.335
55.3794 10.490 0.331
55.3999 9.500 0.315
55.4203 8.698 0.301
55.4408 8.365 0.295
55.4613 7.469 0.279
55.4817 7.229 0.274
55.5022 6.854 0.267
55.5227 5.885 0.248
55.5431 6.552 0.261
55.5636 6.250 0.255
55.5840 6.010 0.250
55.6045 5.833 0.247
55.6250 5.302 0.235
55.6454 5.885 0.248
55.6659 5.844 0.247
55.6864 5.510 0.240
55.7068 5.635 0.242
55.7273 5.552 0.240
55.7477 5.833 0.247
55.7682 5.729 0.244
55.7887 5.615 0.242
55.8091 5.969 0.249
55.8296 5.802 0.246
55.8501 5.833 0.247
55.8705 6.000 0.250
55.8910 6.021 0.250
55.9115 6.323 0.257
55.9319 6.583 0.262
55.9524 5.958 0.249
55.9728 6.490 0.260
55.9933 6.271 0.256
56.0138 6.333 0.257
56.0342 6.208 0.254
56.0547 6.552 0.261
56.0752 7.052 0.271
56.0956 6.448 0.259
56.1161 7.000 0.270
56.1365 7.354 0.277
56.1570 7.948 0.288
56.1775 8.250 0.293
56.1979 8.979 0.306
56.2184 9.167 0.309
56.2389 10.313 0.328
56.2593 9.198 0.310
56.2798 9.198 0.310
56.3002 8.406 0.296
56.3207 7.917 0.287
56.3412 7.990 0.288
56.3616 8.063 0.290
56.3821 8.198 0.292
56.4026 7.667 0.283
56.4230 7.385 0.277
56.4435 6.948 0.269
56.4639 6.604 0.262
56.4844 6.448 0.259
56.5049 6.104 0.252
56.5253 6.063 0.251
56.5458 6.125 0.253
56.5663 5.792 0.246
56.5867 5.844 0.247
56.6072 5.865 0.247
56.6276 5.958 0.249
56.6481 5.844 0.247
56.6686 5.927 0.248
56.6890 6.594 0.262
56.7095 7.490 0.279
56.7300 8.250 0.293
56.7504 7.927 0.287
56.7709 6.448 0.259
56.7914 5.594 0.241
56.8118 5.365 0.236
56.8323 5.740 0.245
56.8527 5.927 0.248
56.8732 6.406 0.258
56.8937 6.260 0.255
56.9141 6.219 0.255
56.9346 5.750 0.245
56.9551 5.490 0.239
56.9755 5.448 0.238
56.9960 4.927 0.227
57.0164 5.260 0.234
57.0369 5.313 0.235
57.0574 4.979 0.228
57.0778 5.302 0.235
57.0983 4.656 0.220
57.1188 4.979 0.228
57.1392 5.302 0.235
57.1597 5.021 0.229
57.1801 4.865 0.225
57.2006 5.521 0.240
57.2211 4.969 0.228
57.2415 4.948 0.227
57.2620 5.375 0.237
57.2825 4.531 0.217
57.3029 4.938 0.227
57.3234 4.927 0.227
57.3438 5.177 0.232
57.3643 5.208 0.233
57.3848 4.771 0.223
57.4052 5.083 0.230
57.4257 4.823 0.224
57.4462 4.896 0.226
57.4666 5.115 0.231
57.4871 5.219 0.233
57.5075 5.198 0.233
57.5280 5.510 0.240
57.5485 5.573 0.241
57.5689 5.396 0.237
57.5894 5.875 0.247
57.6099 5.563 0.241
57.6303 4.990 0.228
57.6508 5.073 0.230
57.6713 5.198 0.233
57.6917 4.979 0.228
57.7122 5.042 0.229
57.7326 5.604 0.242
57.7531 5.958 0.249
57.7736 5.833 0.247
57.7940 5.094 0.230
57.8145 5.646 0.243
57.8350 5.542 0.240
57.8554 5.698 0.244
57.8759 6.188 0.254
57.8963 6.010 0.250
57.9168 6.010 0.250
57.9373 6.938 0.269
57.9577 6.469 0.260
57.9782 7.250 0.275
57.9987 7.417 0.278
58.0191 7.094 0.272
58.0396 7.323 0.276
58.0600 6.906 0.268
58.0805 6.198 0.254
58.1010 6.771 0.266
58.1214 6.500 0.260
58.1419 6.531 0.261
58.1624 6.292 0.256
58.1828 6.250 0.255
58.2033 6.021 0.250
58.2237 6.010 0.250
58.2442 6.604 0.262
58.2647 6.177 0.254
58.2851 6.479 0.260
58.3056 5.969 0.249
58.3261 5.583 0.241
58.3465 5.823 0.246
58.3670 5.479 0.239
58.3874 5.885 0.248
58.4079 5.719 0.244
58.4284 5.667 0.243
58.4488 5.708 0.244
58.4693 5.938 0.249
58.4898 6.073 0.252
58.5102 6.156 0.253
58.5307 6.219 0.255
58.5512 5.938 0.249
58.5716 6.094 0.252
58.5921 5.354 0.236
58.6125 5.490 0.239
58.6330 5.198 0.233
58.6535 5.406 0.237
58.6739 5.656 0.243
58.6944 5.823 0.246
58.7149 5.344 0.236
58.7353 5.333 0.236
58.7558 5.219 0.233
58.7762 5.458 0.238
58.7967 4.813 0.224
58.8172 5.333 0.236
58.8376 5.344 0.236
58.8581 5.573 0.241
58.8786 5.469 0.239
58.8990 5.021 0.229
58.9195 4.948 0.227
58.9399 4.927 0.227
58.9604 5.438 0.238
58.9809 5.063 0.230
59.0013 5.063 0.230
59.0218 5.156 0.232
59.0423 5.573 0.241
59.0627 5.344 0.236
59.0832 5.229 0.233
59.1036 5.510 0.240
59.1241 5.573 0.241
59.1446 5.521 0.240
59.1650 6.469 0.260
59.1855 6.417 0.259
59.2060 6.510 0.260
59.2264 6.906 0.268
59.2469 7.010 0.270
59.2674 7.563 0.281
59.2878 7.167 0.273
59.3083 6.323 0.257
59.3287 6.438 0.259
59.3492 6.125 0.253
59.3697 5.427 0.238
59.3901 6.240 0.255
59.4106 6.260 0.255
59.4311 5.958 0.249
59.4515 6.313 0.256
59.4720 5.667 0.243
59.4924 5.135 0.231
59.5129 5.458 0.238
59.5334 5.042 0.229
59.5538 5.250 0.234
59.5743 5.167 0.232
59.5948 4.979 0.228
59.6152 5.042 0.229
59.6357 5.042 0.229
59.6561 5.042 0.229
59.6766 5.156 0.232
59.6971 5.135 0.231
59.7175 4.865 0.225
59.7380 4.927 0.227
59.7585 5.115 0.231
59.7789 4.552 0.218
59.7994 5.188 0.232
59.8198 5.052 0.229
59.8403 5.375 0.237
59.8608 5.760 0.245
59.8812 6.073 0.252
59.9017 6.156 0.253
59.9222 6.240 0.255
59.9426 6.677 0.264
59.9631 6.229 0.255
59.9835 6.156 0.253
60.0040 6.188 0.254
60.0245 5.865 0.247
60.0449 5.802 0.246
60.0654 5.917 0.248
60.0859 5.667 0.243
60.1063 5.938 0.249
60.1268 5.146 0.232
60.1473 5.219 0.233
60.1677 5.260 0.234
60.1882 5.781 0.245
60.2086 5.406 0.237
60.2291 5.438 0.238
60.2496 4.458 0.216
60.2700 4.958 0.227
60.2905 4.833 0.224
60.3110 5.198 0.233
60.3314 5.115 0.231
60.3519 4.885 0.226
60.3723 5.302 0.235
60.3928 5.104 0.231
60.4133 5.135 0.231
60.4337 5.167 0.232
60.4542 4.844 0.225
60.4747 4.698 0.221
60.4951 4.885 0.226
60.5156 4.531 0.217
60.5360 4.615 0.219
60.5565 4.604 0.219
60.5770 4.792 0.223
60.5974 4.635 0.220
60.6179 4.708 0.221
60.6384 4.708 0.221
60.6588 4.906 0.226
60.6793 4.552 0.218
60.6997 4.854 0.225
60.7202 4.438 0.215
60.7407 4.719 0.222
60.7611 4.865 0.225
60.7816 5.073 0.230
60.8021 4.625 0.219
60.8225 4.448 0.215
60.8430 5.094 0.230
60.8634 4.802 0.224
60.8839 4.646 0.220
60.9044 4.542 0.218
60.9248 4.750 0.222
60.9453 4.948 0.227
60.9658 5.073 0.230
60.9862 4.979 0.228
61.0067 4.938 0.227
61.0272 5.021 0.229
61.0476 4.771 0.223
61.0681 4.750 0.222
61.0885 4.667 0.220
61.1090 4.698 0.221
61.1295 5.177 0.232
61.1499 5.010 0.228
61.1704 4.646 0.220
61.1909 4.406 0.214
61.2113 4.865 0.225
61.2318 4.677 0.221
61.2522 4.313 0.212
61.2727 4.750 0.222
61.2932 4.479 0.216
61.3136 4.990 0.228
61.3341 4.458 0.216
61.3546 4.948 0.227
61.3750 4.771 0.223
61.3955 5.240 0.234
61.4159 4.615 0.219
61.4364 4.656 0.220
61.4569 4.948 0.227
61.4773 4.823 0.224
61.4978 4.167 0.208
61.5183 4.125 0.207
61.5387 4.365 0.213
61.5592 4.625 0.219
61.5796 4.729 0.222
61.6001 4.958 0.227
61.6206 4.552 0.218
61.6410 4.375 0.213
61.6615 4.604 0.219
61.6820 4.792 0.223
61.7024 4.406 0.214
61.7229 4.646 0.220
61.7433 4.594 0.219
61.7638 4.375 0.213
61.7843 4.542 0.218
61.8047 4.271 0.211
61.8252 4.333 0.212
61.8457 4.188 0.209
61.8661 4.344 0.213
61.8866 4.458 0.216
61.9071 4.365 0.213
61.9275 4.250 0.210
61.9480 4.417 0.214
61.9684 4.594 0.219
61.9889 4.406 0.214
62.0094 4.500 0.217
62.0298 4.510 0.217
62.0503 4.417 0.214
62.0708 4.177 0.209
62.0912 4.573 0.218
62.1117 4.781 0.223
62.1321 4.771 0.223
62.1526 5.240 0.234
62.1731 5.073 0.230
62.1935 5.292 0.235
62.2140 4.979 0.228
62.2345 5.188 0.232
62.2549 5.104 0.231
62.2754 4.896 0.226
62.2958 5.031 0.229
62.3163 4.938 0.227
62.3368 4.583 0.219
62.3572 4.938 0.227
62.3777 5.156 0.232
62.3982 4.656 0.220
62.4186 4.698 0.221
62.4391 4.500 0.217
62.4595 5.271 0.234
62.4800 4.698 0.221
62.5005 4.448 0.215
62.5209 4.198 0.209
62.5414 4.938 0.227
62.5619 4.198 0.209
62.5823 4.500 0.217
62.6028 4.573 0.218
62.6232 4.729 0.222
62.6437 4.667 0.220
62.6642 4.552 0.218
62.6846 4.521 0.217
62.7051 4.792 0.223
62.7256 4.344 0.213
62.7460 4.740 0.222
62.7665 4.656 0.220
62.7870 4.333 0.212
62.8074 4.313 0.212
62.8279 4.833 0.224
62.8483 3.990 0.204
62.8688 3.927 0.202
62.8893 4.115 0.207
62.9097 4.375 0.213
62.9302 4.240 0.210
62.9507 3.854 0.200
62.9711 4.406 0.214
62.9916 4.219 0.210
63.0120 4.771 0.223
63.0325 4.563 0.218
63.0530 4.250 0.210
63.0734 4.927 0.227
63.0939 4.396 0.214
63.1144 4.448 0.215
63.1348 4.656 0.220
63.1553 4.500 0.217
63.1757 4.542 0.218
63.1962 4.500 0.217
63.2167 4.604 0.219
63.2371 4.406 0.214
63.2576 4.552 0.218
63.2781 4.771 0.223
63.2985 4.427 0.215
63.3190 4.979 0.228
63.3394 4.563 0.218
63.3599 4.646 0.220
63.3804 4.875 0.225
63.4008 4.625 0.219
63.4213 5.396 0.237
63.4418 4.813 0.224
63.4622 5.031 0.229
63.4827 5.146 0.232
63.5032 4.854 0.225
63.5236 4.802 0.224
63.5441 5.188 0.232
63.5645 4.708 0.221
63.5850 4.771 0.223
63.6055 5.063 0.230
63.6259 5.271 0.234
63.6464 5.052 0.229
63.6669 5.146 0.232
63.6873 5.365 0.236
63.7078 4.865 0.225
63.7282 4.583 0.219
63.7487 4.594 0.219
63.7692 4.635 0.220
63.7896 4.927 0.227
63.8101 4.990 0.228
63.8306 5.083 0.230
63.8510 4.385 0.214
63.8715 5.021 0.229
63.8919 5.167 0.232
63.9124 5.250 0.234
63.9329 5.021 0.229
63.9533 4.292 0.211
63.9738 5.292 0.235
63.9943 4.885 0.226
64.0147 4.948 0.227
64.0352 5.240 0.234
64.0556 5.125 0.231
64.0761 5.021 0.229
64.0966 5.083 0.230
64.1170 5.010 0.228
64.1375 5.125 0.231
64.1580 5.354 0.236
64.1784 5.021 0.229
64.1989 5.385 0.237
64.2193 5.229 0.233
64.2398 5.031 0.229
64.2603 5.042 0.229
64.2807 4.781 0.223
64.3012 5.021 0.229
64.3217 5.010 0.228
64.3421 5.052 0.229
64.3626 5.167 0.232
64.3831 5.063 0.230
64.4035 5.094 0.230
64.4240 5.354 0.236
64.4444 5.438 0.238
64.4649 4.531 0.217
64.4854 5.000 0.228
64.5058 5.094 0.230
64.5263 5.219 0.233
64.5468 5.240 0.234
64.5672 5.667 0.243
64.5877 5.271 0.234
64.6081 6.042 0.251
64.6286 5.615 0.242
64.6491 6.656 0.263
64.6695 7.135 0.273
64.6900 6.469 0.260
64.7105 6.552 0.261
64.7309 6.448 0.259
64.7514 6.781 0.266
64.7718 6.490 0.260
64.7923 6.271 0.256
64.8128 5.927 0.248
64.8332 6.438 0.259
64.8537 6.667 0.264
64.8742 6.500 0.260
64.8946 5.865 0.247
64.9151 5.698 0.244
64.9355 5.271 0.234
64.9560 5.073 0.230
64.9765 4.729 0.222
64.9969 5.490 0.239
65.0174 4.667 0.220
65.0379 5.188 0.232
65.0583 4.542 0.218
65.0788 4.729 0.222
65.0992 5.396 0.237
65.1197 4.583 0.219
65.1402 4.771 0.223
65.1606 4.844 0.225
65.1811 4.698 0.221
65.2016 4.365 0.213
65.2220 5.021 0.229
65.2425 4.500 0.217
65.2630 4.844 0.225
65.2834 4.583 0.219
65.3039 4.594 0.219
65.3243 4.417 0.214
65.3448 4.510 0.217
65.3653 4.781 0.223
65.3857 4.948 0.227
65.4062 4.375 0.213
65.4267 4.813 0.224
65.4471 4.688 0.221
65.4676 4.510 0.217
65.4880 4.542 0.218
65.5085 4.646 0.220
65.5290 4.906 0.226
65.5494 4.708 0.221
65.5699 4.990 0.228
65.5904 5.073 0.230
65.6108 5.073 0.230
65.6313 5.552 0.240
65.6517 4.854 0.225
65.6722 5.615 0.242
65.6927 4.792 0.223
65.7131 4.875 0.225
65.7336 5.073 0.230
65.7541 4.760 0.223
65.7745 4.885 0.226
65.7950 5.333 0.236
65.8154 5.115 0.231
65.8359 5.010 0.228
65.8564 4.760 0.223
65.8768 4.750 0.222
65.8973 4.750 0.222
65.9178 4.635 0.220
65.9382 4.760 0.223
65.9587 4.458 0.216
65.9791 4.729 0.222
65.9996 4.656 0.220
66.0201 4.396 0.214
66.0405 4.521 0.217
66.0610 4.615 0.219
66.0815 4.198 0.209
66.1019 4.792 0.223
66.1224 4.417 0.214
66.1429 4.240 0.210
66.1633 3.875 0.201
66.1838 4.281 0.211
66.2042 4.458 0.216
66.2247 4.688 0.221
66.2452 3.948 0.203
66.2656 4.365 0.213
66.2861 4.125 0.207
66.3066 4.031 0.205
66.3270 4.240 0.210
66.3475 4.240 0.210
66.3679 4.302 0.212
66.3884 4.208 0.209
66.4089 4.167 0.208
66.4293 4.281 0.211
66.4498 3.865 0.201
66.4703 4.031 0.205
66.4907 4.302 0.212
66.5112 4.417 0.214
66.5316 4.396 0.214
66.5521 4.365 0.213
66.5726 4.479 0.216
66.5930 4.156 0.208
66.6135 4.240 0.210
66.6340 4.802 0.224
66.6544 4.333 0.212
66.6749 4.406 0.214
66.6953 4.188 0.209
66.7158 4.125 0.207
66.7363 4.146 0.208
66.7567 4.438 0.215
66.7772 4.000 0.204
66.7977 4.365 0.213
66.8181 4.292 0.211
66.8386 3.938 0.203
66.8590 4.521 0.217
66.8795 4.344 0.213
66.9000 4.208 0.209
66.9204 4.031 0.205
66.9409 4.635 0.220
66.9614 4.552 0.218
66.9818 4.521 0.217
67.0023 4.833 0.224
67.0228 4.667 0.220
67.0432 4.656 0.220
67.0637 5.375 0.237
67.0841 5.031 0.229
67.1046 4.729 0.222
67.1251 5.427 0.238
67.1455 5.583 0.241
67.1660 5.479 0.239
67.1865 5.854 0.247
67.2069 6.635 0.263
67.2274 6.604 0.262
67.2478 6.656 0.263
67.2683 6.760 0.265
67.2888 6.646 0.263
67.3092 6.323 0.257
67.3297 6.344 0.257
67.3502 6.260 0.255
67.3706 5.948 0.249
67.3911 6.031 0.251
67.4115 6.156 0.253
67.4320 5.823 0.246
67.4525 5.542 0.240
67.4729 5.729 0.244
67.4934 5.531 0.240
67.5139 5.458 0.238
67.5343 5.240 0.234
67.5548 4.885 0.226
67.5752 5.042 0.229
67.5957 4.760 0.223
67.6162 4.479 0.216
67.6366 4.698 0.221
67.6571 4.708 0.221
67.6776 4.479 0.216
67.6980 4.688 0.221
67.7185 4.615 0.219
67.7389 4.646 0.220
67.7594 4.479 0.216
67.7799 4.635 0.220
67.8003 4.271 0.211
67.8208 5.052 0.229
67.8413 4.667 0.220
67.8617 4.573 0.218
67.8822 4.500 0.217
67.9027 4.625 0.219
67.9231 4.656 0.220
67.9436 4.740 0.222
67.9640 4.469 0.216
67.9845 4.510 0.217
68.0050 4.260 0.211
68.0254 4.563 0.218
68.0459 4.219 0.210
68.0664 4.656 0.220
68.0868 4.125 0.207
68.1073 4.208 0.209
68.1277 4.604 0.219
68.1482 4.458 0.216
68.1687 4.708 0.221
68.1891 4.792 0.223
68.2096 4.740 0.222
68.2301 4.594 0.219
68.2505 4.615 0.219
68.2710 4.604 0.219
68.2914 4.865 0.225
68.3119 4.917 0.226
68.3324 4.729 0.222
68.3528 5.177 0.232
68.3733 5.073 0.230
68.3938 5.156 0.232
68.4142 5.146 0.232
68.4347 4.990 0.228
68.4551 4.948 0.227
68.4756 4.865 0.225
68.4961 4.552 0.218
68.5165 4.469 0.216
68.5370 4.427 0.215
68.5575 4.625 0.219
68.5779 4.885 0.226
68.5984 4.521 0.217
68.6189 4.781 0.223
68.6393 4.479 0.216
68.6598 4.354 0.213
68.6802 4.833 0.224
68.7007 4.281 0.211
68.7212 4.688 0.221
68.7416 4.198 0.209
68.7621 4.396 0.214
68.7826 4.417 0.214
68.8030 4.188 0.209
68.8235 3.958 0.203
68.8439 4.073 0.206
68.8644 4.146 0.208
68.8849 4.250 0.210
68.9053 4.385 0.214
68.9258 4.177 0.209
68.9463 4.063 0.206
68.9667 4.094 0.207
68.9872 4.135 0.208
69.0076 4.375 0.213
69.0281 4.354 0.213
69.0486 4.750 0.222
69.0690 4.875 0.225
69.0895 5.125 0.231
69.1100 4.875 0.225
69.1304 4.469 0.216
69.1509 4.563 0.218
69.1713 4.177 0.209
69.1918 4.979 0.228
69.2123 4.583 0.219
69.2327 4.854 0.225
69.2532 4.948 0.227
69.2737 5.188 0.232
69.2941 5.198 0.233
69.3146 4.844 0.225
69.3350 4.500 0.217
69.3555 4.552 0.218
69.3760 4.521 0.217
69.3964 4.292 0.211
69.4169 4.510 0.217
69.4374 4.281 0.211
69.4578 4.333 0.212
69.4783 4.604 0.219
69.4988 4.500 0.217
69.5192 3.865 0.201
69.5397 4.302 0.212
69.5601 4.000 0.204
69.5806 4.292 0.211
69.6011 3.740 0.197
69.6215 4.177 0.209
69.6420 4.479 0.216
69.6625 3.813 0.199
69.6829 3.906 0.202
69.7034 3.719 0.197
69.7238 3.802 0.199
69.7443 4.135 0.208
69.7648 3.948 0.203
69.7852 3.698 0.196
69.8057 3.875 0.201
69.8262 4.021 0.205
69.8466 3.844 0.200
69.8671 4.104 0.207
69.8875 3.760 0.198
69.9080 4.000 0.204
69.9285 3.719 0.197
69.9489 3.719 0.197
69.9694 3.563 0.193
69.9899 3.708 0.197
70.0103 3.656 0.195
70.0308 3.958 0.203
70.0512 3.792 0.199
70.0717 3.990 0.204
70.0922 3.667 0.195
70.1126 4.177 0.209
70.1331 3.719 0.197
70.1536 3.583 0.193
70.1740 4.115 0.207
70.1945 3.990 0.204
70.2149 3.865 0.201
70.2354 4.333 0.212
70.2559 4.083 0.206
70.2763 4.021 0.205
70.2968 3.844 0.200
70.3173 3.990 0.204
70.3377 3.729 0.197
70.3582 3.677 0.196
70.3787 4.250 0.210
70.3991 3.938 0.203
70.4196 4.073 0.206
70.4400 3.948 0.203
70.4605 4.073 0.206
70.4810 3.531 0.192
70.5014 4.000 0.204
70.5219 4.021 0.205
70.5424 3.750 0.198
70.5628 3.823 0.200
70.5833 3.438 0.189
70.6037 3.938 0.203
70.6242 3.573 0.193
70.6447 3.615 0.194
70.6651 4.302 0.212
70.6856 3.823 0.200
70.7061 3.656 0.195
70.7265 4.063 0.206
70.7470 3.906 0.202
70.7674 3.802 0.199
70.7879 3.708 0.197
70.8084 3.250 0.184
70.8288 3.552 0.192
70.8493 3.615 0.194
70.8698 3.802 0.199
70.8902 4.115 0.207
70.9107 3.667 0.195
70.9311 3.521 0.192
70.9516 3.469 0.190
70.9721 3.385 0.188
70.9925 3.802 0.199
71.0130 3.667 0.195
71.0335 3.927 0.202
71.0539 3.917 0.202
71.0744 3.531 0.192
71.0948 3.958 0.203
71.1153 3.979 0.204
71.1358 4.010 0.204
71.1562 3.833 0.200
71.1767 4.042 0.205
71.1972 3.563 0.193
71.2176 4.104 0.207
71.2381 3.927 0.202
71.2586 4.104 0.207
71.2790 3.938 0.203
71.2995 3.792 0.199
71.3199 3.885 0.201
71.3404 3.396 0.188
71.3609 3.823 0.200
71.3813 3.635 0.195
71.4018 3.490 0.191
71.4223 3.698 0.196
71.4427 3.740 0.197
71.4632 3.344 0.187
71.4836 3.740 0.197
71.5041 3.760 0.198
71.5246 3.906 0.202
71.5450 3.906 0.202
71.5655 3.583 0.193
71.5860 3.781 0.198
71.6064 3.750 0.198
71.6269 3.844 0.200
71.6473 3.948 0.203
71.6678 3.542 0.192
71.6883 3.552 0.192
71.7087 3.844 0.200
71.7292 3.542 0.192
71.7497 3.490 0.191
71.7701 3.760 0.198
71.7906 3.521 0.192
71.8110 3.448 0.190
71.8315 3.667 0.195
71.8520 3.604 0.194
71.8724 3.990 0.204
71.8929 3.365 0.187
71.9134 3.396 0.188
71.9338 3.354 0.187
71.9543 3.615 0.194
71.9747 3.146 0.181
71.9952 3.833 0.200
72.0157 3.521 0.192
72.0361 3.448 0.190
72.0566 3.646 0.195
72.0771 3.583 0.193
72.0975 3.438 0.189
72.1180 3.906 0.202
72.1385 3.448 0.190
72.1589 3.865 0.201
72.1794 3.813 0.199
72.1998 3.688 0.196
72.2203 3.708 0.197
72.2408 3.594 0.193
72.2612 3.969 0.203
72.2817 3.490 0.191
72.3022 3.573 0.193
72.3226 3.292 0.185
72.3431 4.000 0.204
72.3635 3.521 0.192
72.3840 3.417 0.189
72.4045 3.396 0.188
72.4249 3.802 0.199
72.4454 3.417 0.189
72.4659 3.625 0.194
72.4863 3.354 0.187
72.5068 3.469 0.190
72.5272 3.740 0.197
72.5477 3.313 0.186
72.5682 3.604 0.194
72.5886 3.625 0.194
72.6091 3.396 0.188
72.6296 3.385 0.188
72.6500 3.427 0.189
72.6705 3.729 0.197
72.6909 3.677 0.196
72.7114 3.542 0.192
72.7319 3.563 0.193
72.7523 4.031 0.205
72.7728 3.740 0.197
72.7933 3.740 0.197
72.8137 3.458 0.190
72.8342 3.573 0.193
72.8547 3.906 0.202
72.8751 3.885 0.201
72.8956 3.875 0.201
72.9160 3.938 0.203
72.9365 3.865 0.201
72.9570 4.073 0.206
72.9774 3.677 0.196
72.9979 3.688 0.196
73.0184 3.521 0.192
73.0388 3.760 0.198
73.0593 3.833 0.200
73.0797 3.396 0.188
73.1002 3.542 0.192
73.1207 3.854 0.200
73.1411 3.948 0.203
73.1616 3.552 0.192
73.1821 3.500 0.191
73.2025 3.594 0.193
73.2230 3.438 0.189
73.2434 3.688 0.196
73.2639 3.313 0.186
73.2844 3.458 0.190
73.3048 3.708 0.197
73.3253 3.271 0.185
73.3458 3.417 0.189
73.3662 3.604 0.194
73.3867 3.708 0.197
73.4071 3.542 0.192
73.4276 3.542 0.192
73.4481 3.740 0.197
73.4685 3.448 0.190
73.4890 3.073 0.179
73.5095 3.385 0.188
73.5299 3.271 0.185
73.5504 3.281 0.185
73.5708 3.615 0.194
73.5913 3.417 0.189
73.6118 3.500 0.191
73.6322 3.719 0.197
73.6527 3.500 0.191
73.6732 3.406 0.188
73.6936 3.698 0.196
73.7141 3.479 0.190
73.7346 3.313 0.186
73.7550 3.875 0.201
73.7755 3.229 0.183
73.7959 3.625 0.194
73.8164 3.802 0.199
73.8369 3.281 0.185
73.8573 3.281 0.185
73.8778 3.823 0.200
73.8983 3.500 0.191
73.9187 3.385 0.188
73.9392 3.656 0.195
73.9596 3.938 0.203
73.9801 3.865 0.201
74.0006 3.563 0.193
74.0210 3.719 0.197
74.0415 3.615 0.194
74.0620 4.010 0.204
74.0824 3.563 0.193
74.1029 3.781 0.198
74.1233 3.625 0.194
74.1438 3.188 0.182
74.1643 3.417 0.189
74.1847 3.750 0.198
74.2052 3.604 0.194
74.2257 3.958 0.203
74.2461 3.365 0.187
74.2666 3.271 0.185
74.2870 3.813 0.199
74.3075 3.354 0.187
74.3280 3.563 0.193
74.3484 3.469 0.190
74.3689 3.563 0.193
74.3894 3.583 0.193
74.4098 3.396 0.188
74.4303 3.281 0.185
74.4507 3.740 0.197
74.4712 3.427 0.189
74.4917 3.625 0.194
74.5121 3.500 0.191
74.5326 3.750 0.198
74.5531 3.438 0.189
74.5735 3.438 0.189
74.5940 3.510 0.191
74.6145 3.344 0.187
74.6349 2.833 0.172
74.6554 3.167 0.182
74.6758 3.531 0.192
74.6963 3.229 0.183
74.7168 3.313 0.186
74.7372 3.479 0.190
74.7577 3.417 0.189
74.7782 3.448 0.190
74.7986 3.260 0.184
74.8191 3.250 0.184
74.8395 3.802 0.199
74.8600 3.281 0.185
74.8805 3.083 0.179
74.9009 3.625 0.194
74.9214 3.479 0.190
74.9419 3.104 0.180
74.9623 3.375 0.188
74.9828 3.469 0.190
75.0032 3.250 0.184
75.0237 3.740 0.197
75.0442 3.406 0.188
75.0646 3.344 0.187
75.0851 3.438 0.189
75.1056 3.594 0.193
75.1260 3.375 0.188
75.1465 3.771 0.198
75.1669 3.448 0.190
75.1874 3.281 0.185
75.2079 3.427 0.189
75.2283 3.583 0.193
75.2488 3.281 0.185
75.2693 3.510 0.191
75.2897 3.344 0.187
75.3102 3.656 0.195
75.3306 3.552 0.192
75.3511 3.250 0.184
75.3716 3.469 0.190
75.3920 3.438 0.189
75.4125 3.646 0.195
75.4330 3.063 0.179
75.4534 3.583 0.193
75.4739 3.417 0.189
75.4944 3.896 0.201
75.5148 3.427 0.189
75.5353 3.531 0.192
75.5557 3.333 0.186
75.5762 3.417 0.189
75.5967 3.396 0.188
75.6171 3.740 0.197
75.6376 3.417 0.189
75.6581 3.771 0.198
75.6785 3.823 0.200
75.6990 3.688 0.196
75.7194 3.583 0.193
75.7399 4.021 0.205
75.7604 4.031 0.205
75.7808 3.938 0.203
75.8013 3.729 0.197
75.8218 4.031 0.205
75.8422 4.365 0.213
75.8627 4.656 0.220
75.8831 4.125 0.207
75.9036 4.167 0.208
75.9241 4.635 0.220
75.9445 4.438 0.215
75.9650 4.177 0.209
75.9855 3.948 0.203
76.0059 4.125 0.207
76.0264 4.125 0.207
76.0468 4.042 0.205
76.0673 4.469 0.216
76.0878 4.094 0.207
76.1082 4.031 0.205
76.1287 4.031 0.205
76.1492 3.583 0.193
76.1696 4.302 0.212
76.1901 4.000 0.204
76.2105 4.115 0.207
76.2310 3.833 0.200
76.2515 3.854 0.200
76.2719 3.458 0.190
76.2924 3.510 0.191
76.3129 3.708 0.197
76.3333 3.458 0.190
76.3538 3.375 0.188
76.3743 3.635 0.195
76.3947 3.521 0.192
76.4152 3.406 0.188
76.4356 3.260 0.184
76.4561 3.354 0.187
76.4766 3.375 0.188
76.4970 3.458 0.190
76.5175 3.813 0.199
76.5380 3.594 0.193
76.5584 3.354 0.187
76.5789 3.417 0.189
76.5993 3.385 0.188
76.6198 3.646 0.195
76.6403 3.375 0.188
76.6607 3.594 0.193
76.6812 3.531 0.192
76.7017 3.510 0.191
76.7221 3.313 0.186
76.7426 3.292 0.185
76.7630 3.323 0.186
76.7835 3.385 0.188
76.8040 3.406 0.188
76.8244 3.417 0.189
76.8449 3.375 0.188
76.8654 3.229 0.183
76.8858 3.521 0.192
76.9063 3.240 0.184
76.9267 3.604 0.194
76.9472 3.396 0.188
76.9677 3.073 0.179
76.9881 3.448 0.190
77.0086 3.458 0.190
77.0291 3.281 0.185
77.0495 3.229 0.183
77.0700 3.365 0.187
77.0905 3.260 0.184
77.1109 3.250 0.184
77.1314 3.396 0.188
77.1518 3.292 0.185
77.1723 3.427 0.189
77.1928 3.458 0.190
77.2132 3.479 0.190
77.2337 3.313 0.186
77.2542 3.406 0.188
77.2746 3.219 0.183
77.2951 3.667 0.195
77.3155 3.688 0.196
77.3360 3.448 0.190
77.3565 3.438 0.189
77.3769 3.104 0.180
77.3974 3.219 0.183
77.4179 3.563 0.193
77.4383 3.625 0.194
77.4588 3.458 0.190
77.4792 3.375 0.188
77.4997 3.510 0.191
77.5202 3.875 0.201
77.5406 3.510 0.191
77.5611 3.740 0.197
77.5816 3.698 0.196
77.6020 3.656 0.195
77.6225 3.833 0.200
77.6429 3.500 0.191
77.6634 3.719 0.197
77.6839 4.094 0.207
77.7043 3.490 0.191
77.7248 3.781 0.198
77.7453 3.635 0.195
77.7657 3.865 0.201
77.7862 4.031 0.205
77.8066 3.646 0.195
77.8271 3.927 0.202
77.8476 4.073 0.206
77.8680 4.167 0.208
77.8885 4.063 0.206
77.9090 3.979 0.204
77.9294 3.948 0.203
77.9499 3.771 0.198
77.9704 3.813 0.199
77.9908 3.708 0.197
78.0113 3.865 0.201
78.0317 3.719 0.197
78.0522 3.813 0.199
78.0727 3.688 0.196
78.0931 3.917 0.202
78.1136 3.833 0.200
78.1341 3.552 0.192
78.1545 3.302 0.185
78.1750 3.740 0.197
78.1954 3.458 0.190
78.2159 3.219 0.183
78.2364 3.417 0.189
78.2568 3.677 0.196
78.2773 3.094 0.180
78.2978 3.385 0.188
78.3182 3.500 0.191
78.3387 3.729 0.197
78.3591 3.573 0.193
78.3796 3.323 0.186
78.4001 3.708 0.197
78.4205 4.042 0.205
78.4410 3.990 0.204
78.4615 3.917 0.202
78.4819 3.719 0.197
78.5024 4.104 0.207
78.5228 3.865 0.201
78.5433 3.656 0.195
78.5638 3.708 0.197
78.5842 3.823 0.200
78.6047 3.615 0.194
78.6252 3.729 0.197
78.6456 3.333 0.186
78.6661 3.531 0.192
78.6865 3.813 0.199
78.7070 3.521 0.192
78.7275 3.750 0.198
78.7479 3.594 0.193
78.7684 3.396 0.188
78.7889 3.344 0.187
78.8093 3.583 0.193
78.8298 3.521 0.192
78.8503 3.406 0.188
78.8707 3.906 0.202
78.8912 3.625 0.194
78.9116 3.438 0.189
78.9321 3.865 0.201
78.9526 3.365 0.187
78.9730 3.281 0.185
78.9935 3.250 0.184
79.0140 3.594 0.193
79.0344 3.188 0.182
79.0549 3.750 0.198
79.0753 3.313 0.186
79.0958 3.854 0.200
79.1163 3.135 0.181
79.1367 3.427 0.189
79.1572 3.417 0.189
79.1777 3.833 0.200
79.1981 3.469 0.190
79.2186 3.438 0.189
79.2390 3.594 0.193
79.2595 3.490 0.191
79.2800 3.625 0.194
79.3004 3.500 0.191
79.3209 3.156 0.181
79.3414 3.438 0.189
79.3618 3.594 0.193
79.3823 3.594 0.193
79.4027 3.448 0.190
79.4232 3.688 0.196
79.4437 3.604 0.194
79.4641 3.521 0.192
79.4846 3.708 0.197
79.5051 3.688 0.196
79.5255 3.615 0.194
79.5460 3.490 0.191
79.5664 3.635 0.195
79.5869 3.656 0.195
79.6074 3.792 0.199
79.6278 3.667 0.195
79.6483 3.865 0.201
79.6688 3.688 0.196
79.6892 3.667 0.195
79.7097 3.813 0.199
79.7302 3.885 0.201
79.7506 3.552 0.192
79.7711 3.302 0.185
79.7915 3.698 0.196
79.8120 3.542 0.192
79.8325 3.885 0.201
79.8529 3.531 0.192
79.8734 3.344 0.187
79.8939 3.469 0.190
79.9143 3.781 0.198
79.9348 3.167 0.182
79.9552 3.427 0.189
79.9757 3.500 0.191
79.9962 3.708 0.197
