'Id: "" Comment: "" Operator: "Lab Manager" Anode: "Cu" Scantype: "Locked Coupled" TimePerStep: "96" X: "0" Y: "0" Z: "0" 
5.0000 21.469 0.473
5.0205 21.677 0.475
5.0409 20.979 0.467
5.0614 21.156 0.469
5.0819 20.979 0.467
5.1023 20.844 0.466
5.1228 19.948 0.456
5.1432 20.708 0.464
5.1637 20.625 0.464
5.1842 21.854 0.477
5.2046 21.073 0.469
5.2251 20.365 0.461
5.2456 20.479 0.462
5.2660 20.719 0.465
5.2865 20.458 0.462
5.3069 19.885 0.455
5.3274 19.708 0.453
5.3479 20.927 0.467
5.3683 20.833 0.466
5.3888 21.042 0.468
5.4093 20.844 0.466
5.4297 20.146 0.458
5.4502 20.823 0.466
5.4706 20.510 0.462
5.4911 20.104 0.458
5.5116 19.896 0.455
5.5320 19.573 0.452
5.5525 19.344 0.449
5.5730 19.792 0.454
5.5934 19.740 0.453
5.6139 20.000 0.456
5.6343 19.813 0.454
5.6548 19.896 0.455
5.6753 18.844 0.443
5.6957 20.042 0.457
5.7162 19.896 0.455
5.7367 20.104 0.458
5.7571 19.208 0.447
5.7776 19.958 0.456
5.7980 20.094 0.458
5.8185 20.010 0.457
5.8390 18.885 0.444
5.8594 19.042 0.445
5.8799 19.281 0.448
5.9004 19.906 0.455
5.9208 18.750 0.442
5.9413 18.979 0.445
5.9618 19.000 0.445
5.9822 19.063 0.446
6.0027 18.208 0.436
6.0231 18.177 0.435
6.0436 19.823 0.454
6.0641 18.531 0.439
6.0845 18.104 0.434
6.1050 18.365 0.437
6.1255 18.979 0.445
6.1459 18.323 0.437
6.1664 18.938 0.444
6.1868 18.802 0.443
6.2073 18.177 0.435
6.2278 18.146 0.435
6.2482 17.948 0.432
6.2687 18.938 0.444
6.2892 18.552 0.440
6.3096 18.302 0.437
6.3301 17.938 0.432
6.3505 18.500 0.439
6.3710 18.240 0.436
6.3915 18.875 0.443
6.4119 18.344 0.437
6.4324 18.927 0.444
6.4529 18.125 0.435
6.4733 18.615 0.440
6.4938 19.042 0.445
6.5142 18.625 0.440
6.5347 18.031 0.433
6.5552 18.385 0.438
6.5756 17.990 0.433
6.5961 17.875 0.432
6.6166 18.146 0.435
6.6370 18.406 0.438
6.6575 17.927 0.432
6.6779 17.479 0.427
6.6984 18.688 0.441
6.7189 19.417 0.450
6.7393 18.823 0.443
6.7598 18.198 0.435
6.7803 17.865 0.431
6.8007 18.760 0.442
6.8212 18.542 0.439
6.8417 17.979 0.433
6.8621 17.823 0.431
6.8826 18.156 0.435
6.9030 18.646 0.441
6.9235 18.781 0.442
6.9440 17.667 0.429
6.9644 17.396 0.426
6.9849 17.010 0.421
7.0054 18.563 0.440
7.0258 17.396 0.426
7.0463 17.510 0.427
7.0667 17.531 0.427
7.0872 17.271 0.424
7.1077 17.594 0.428
7.1281 17.958 0.433
7.1486 17.698 0.429
7.1691 17.708 0.429
7.1895 18.240 0.436
7.2100 18.427 0.438
7.2304 18.417 0.438
7.2509 17.615 0.428
7.2714 17.073 0.422
7.2918 17.667 0.429
7.3123 18.229 0.436
7.3328 17.240 0.424
7.3532 17.458 0.426
7.3737 16.802 0.418
7.3941 17.583 0.428
7.4146 18.000 0.433
7.4351 17.917 0.432
7.4555 17.948 0.432
7.4760 17.500 0.427
7.4965 17.833 0.431
7.5169 17.927 0.432
7.5374 18.260 0.436
7.5579 18.302 0.437
7.5783 17.531 0.427
7.5988 17.781 0.430
7.6192 18.271 0.436
7.6397 18.542 0.439
7.6602 18.167 0.435
7.6806 17.906 0.432
7.7011 17.865 0.431
7.7216 17.844 0.431
7.7420 17.406 0.426
7.7625 17.604 0.428
7.7829 16.740 0.418
7.8034 17.583 0.428
7.8239 17.667 0.429
7.8443 17.104 0.422
7.8648 17.990 0.433
7.8853 17.906 0.432
7.9057 17.427 0.426
7.9262 17.875 0.432
7.9466 17.385 0.426
7.9671 18.417 0.438
7.9876 16.896 0.420
8.0080 18.167 0.435
8.0285 18.240 0.436
8.0490 18.156 0.435
8.0694 18.094 0.434
8.0899 17.865 0.431
8.1103 17.656 0.429
8.1308 18.521 0.439
8.1513 17.396 0.426
8.1717 18.240 0.436
8.1922 18.010 0.433
8.2127 18.354 0.437
8.2331 18.073 0.434
8.2536 18.365 0.437
8.2740 18.604 0.440
8.2945 18.417 0.438
8.3150 18.417 0.438
8.3354 18.396 0.438
8.3559 18.490 0.439
8.3764 17.729 0.430
8.3968 17.313 0.425
8.4173 17.573 0.428
8.4378 18.281 0.436
8.4582 17.885 0.432
8.4787 17.510 0.427
8.4991 17.990 0.433
8.5196 17.125 0.422
8.5401 17.604 0.428
8.5605 17.531 0.427
8.5810 17.188 0.423
8.6015 17.313 0.425
8.6219 18.115 0.434
8.6424 18.083 0.434
8.6628 17.875 0.432
8.6833 18.031 0.433
8.7038 17.948 0.432
8.7242 18.302 0.437
8.7447 18.542 0.439
8.7652 17.844 0.431
8.7856 17.969 0.433
8.8061 19.250 0.448
8.8265 18.885 0.444
8.8470 18.604 0.440
8.8675 18.313 0.437
8.8879 20.417 0.461
8.9084 21.906 0.478
8.9289 20.667 0.464
8.9493 21.563 0.474
8.9698 21.510 0.473
8.9902 23.219 0.492
9.0107 27.021 0.531
9.0312 33.010 0.586
9.0516 41.115 0.654
9.0721 48.469 0.711
9.0926 52.188 0.737
9.1130 41.844 0.660
9.1335 29.219 0.552
9.1539 22.219 0.481
9.1744 22.760 0.487
9.1949 23.313 0.493
9.2153 24.031 0.500
9.2358 25.240 0.513
9.2563 28.490 0.545
9.2767 29.677 0.556
9.2972 27.635 0.537
9.3177 26.469 0.525
9.3381 24.844 0.509
9.3586 23.844 0.498
9.3790 24.594 0.506
9.3995 24.563 0.506
9.4200 23.573 0.496
9.4404 23.990 0.500
9.4609 23.781 0.498
9.4814 24.510 0.505
9.5018 25.510 0.515
9.5223 28.563 0.545
9.5427 28.646 0.546
9.5632 32.094 0.578
9.5837 35.552 0.609
9.6041 38.135 0.630
9.6246 40.521 0.650
9.6451 43.802 0.675
9.6655 45.938 0.692
9.6860 49.000 0.714
9.7064 53.750 0.748
9.7269 61.177 0.798
9.7474 71.906 0.865
9.7678 88.531 0.960
9.7883 113.958 1.090
9.8088 164.385 1.309
9.8292 260.010 1.646
9.8497 421.125 2.094
9.8701 667.302 2.636
9.8906 837.021 2.953
9.9111 676.917 2.655
9.9315 371.885 1.968
9.9520 171.458 1.336
9.9725 95.875 0.999
9.9929 70.667 0.858
10.0134 57.292 0.773
10.0338 50.646 0.726
10.0543 48.083 0.708
10.0748 43.760 0.675
10.0952 39.406 0.641
10.1157 37.521 0.625
10.1362 34.052 0.596
10.1566 30.094 0.560
10.1771 28.448 0.544
10.1976 25.250 0.513
10.2180 25.240 0.513
10.2385 24.313 0.503
10.2589 23.365 0.493
10.2794 23.271 0.492
10.2999 22.542 0.485
10.3203 23.708 0.497
10.3408 22.813 0.487
10.3613 21.938 0.478
10.3817 21.063 0.468
10.4022 21.500 0.473
10.4226 21.708 0.476
10.4431 20.344 0.460
10.4636 20.646 0.464
10.4840 20.219 0.459
10.5045 20.271 0.460
10.5250 20.177 0.458
10.5454 18.979 0.445
10.5659 20.073 0.457
10.5863 19.594 0.452
10.6068 19.813 0.454
10.6273 19.875 0.455
10.6477 19.906 0.455
10.6682 19.021 0.445
10.6887 19.563 0.451
10.7091 19.594 0.452
10.7296 19.375 0.449
10.7500 18.958 0.444
10.7705 19.688 0.453
10.7910 18.635 0.441
10.8114 18.542 0.439
10.8319 17.167 0.423
10.8524 17.479 0.427
10.8728 17.125 0.422
10.8933 16.927 0.420
10.9137 17.052 0.421
10.9342 16.833 0.419
10.9547 16.583 0.416
10.9751 16.792 0.418
10.9956 15.990 0.408
11.0161 16.521 0.415
11.0365 16.073 0.409
11.0570 15.500 0.402
11.0775 16.427 0.414
11.0979 15.521 0.402
11.1184 15.750 0.405
11.1388 15.729 0.405
11.1593 15.896 0.407
11.1798 15.677 0.404
11.2002 15.802 0.406
11.2207 15.052 0.396
11.2412 15.885 0.407
11.2616 14.760 0.392
11.2821 15.177 0.398
11.3025 15.417 0.401
11.3230 15.250 0.399
11.3435 14.167 0.384
11.3639 15.042 0.396
11.3844 14.573 0.390
11.4049 14.865 0.393
11.4253 15.313 0.399
11.4458 14.615 0.390
11.4662 13.979 0.382
11.4867 14.302 0.386
11.5072 14.469 0.388
11.5276 13.844 0.380
11.5481 14.521 0.389
11.5686 13.927 0.381
11.5890 14.688 0.391
11.6095 13.948 0.381
11.6299 14.375 0.387
11.6504 14.094 0.383
11.6709 14.615 0.390
11.6913 14.125 0.384
11.7118 13.698 0.378
11.7323 14.552 0.389
11.7527 14.396 0.387
11.7732 13.625 0.377
11.7937 14.052 0.383
11.8141 13.677 0.377
11.8346 14.052 0.383
11.8550 13.469 0.375
11.8755 13.385 0.373
11.8960 13.719 0.378
11.9164 13.521 0.375
11.9369 13.094 0.369
11.9574 13.688 0.378
11.9778 13.438 0.374
11.9983 13.729 0.378
12.0187 13.146 0.370
12.0392 13.208 0.371
12.0597 13.313 0.372
12.0801 12.677 0.363
12.1006 13.396 0.374
12.1211 13.208 0.371
12.1415 13.031 0.368
12.1620 12.750 0.364
12.1824 13.052 0.369
12.2029 13.458 0.374
12.2234 13.750 0.378
12.2438 12.792 0.365
12.2643 13.031 0.368
12.2848 12.844 0.366
12.3052 12.979 0.368
12.3257 12.563 0.362
12.3461 13.021 0.368
12.3666 12.177 0.356
12.3871 12.229 0.357
12.4075 12.083 0.355
12.4280 12.458 0.360
12.4485 12.844 0.366
12.4689 11.573 0.347
12.4894 12.188 0.356
12.5098 11.833 0.351
12.5303 12.542 0.361
12.5508 12.292 0.358
12.5712 12.656 0.363
12.5917 12.979 0.368
12.6122 12.177 0.356
12.6326 11.490 0.346
12.6531 11.604 0.348
12.6736 11.333 0.344
12.6940 11.333 0.344
12.7145 11.948 0.353
12.7349 11.875 0.352
12.7554 12.302 0.358
12.7759 11.927 0.352
12.7963 11.813 0.351
12.8168 11.740 0.350
12.8373 11.781 0.350
12.8577 12.115 0.355
12.8782 12.188 0.356
12.8986 11.927 0.352
12.9191 12.042 0.354
12.9396 11.615 0.348
12.9600 11.000 0.339
12.9805 10.823 0.336
13.0010 11.698 0.349
13.0214 11.396 0.345
13.0419 10.719 0.334
13.0623 12.010 0.354
13.0828 11.250 0.342
13.1033 11.906 0.352
13.1237 11.375 0.344
13.1442 11.479 0.346
13.1647 11.031 0.339
13.1851 11.781 0.350
13.2056 11.323 0.343
13.2260 11.083 0.340
13.2465 11.083 0.340
13.2670 11.104 0.340
13.2874 10.719 0.334
13.3079 10.948 0.338
13.3284 11.438 0.345
13.3488 11.146 0.341
13.3693 11.156 0.341
13.3897 11.333 0.344
13.4102 11.469 0.346
13.4307 11.542 0.347
13.4511 11.521 0.346
13.4716 11.438 0.345
13.4921 10.990 0.338
13.5125 11.094 0.340
13.5330 10.885 0.337
13.5535 10.792 0.335
13.5739 11.208 0.342
13.5944 10.990 0.338
13.6148 11.094 0.340
13.6353 10.781 0.335
13.6558 11.479 0.346
13.6762 10.396 0.329
13.6967 10.625 0.333
13.7172 10.958 0.338
13.7376 10.688 0.334
13.7581 10.354 0.328
13.7785 10.896 0.337
13.7990 10.083 0.324
13.8195 10.094 0.324
13.8399 11.000 0.339
13.8604 10.688 0.334
13.8809 11.219 0.342
13.9013 10.427 0.330
13.9218 10.208 0.326
13.9422 10.333 0.328
13.9627 11.000 0.339
13.9832 10.656 0.333
14.0036 10.260 0.327
14.0241 10.167 0.325
14.0446 10.302 0.328
14.0650 10.021 0.323
14.0855 10.625 0.333
14.1059 10.448 0.330
14.1264 10.417 0.329
14.1469 10.438 0.330
14.1673 10.635 0.333
14.1878 10.198 0.326
14.2083 10.260 0.327
14.2287 9.927 0.322
14.2492 10.010 0.323
14.2696 10.490 0.331
14.2901 10.844 0.336
14.3106 10.125 0.325
14.3310 9.854 0.320
14.3515 10.208 0.326
14.3720 10.542 0.331
14.3924 10.677 0.333
14.4129 10.250 0.327
14.4334 10.000 0.323
14.4538 10.042 0.323
14.4743 9.875 0.321
14.4947 9.969 0.322
14.5152 9.927 0.322
14.5357 10.281 0.327
14.5561 9.740 0.319
14.5766 9.698 0.318
14.5971 10.156 0.325
14.6175 9.750 0.319
14.6380 9.615 0.316
14.6584 10.354 0.328
14.6789 10.229 0.326
14.6994 9.885 0.321
14.7198 10.583 0.332
14.7403 10.563 0.332
14.7608 10.292 0.327
14.7812 9.719 0.318
14.8017 10.240 0.327
14.8221 9.563 0.316
14.8426 9.885 0.321
14.8631 9.677 0.317
14.8835 9.990 0.323
14.9040 10.198 0.326
14.9245 9.625 0.317
14.9449 9.333 0.312
14.9654 9.167 0.309
14.9858 9.885 0.321
15.0063 10.344 0.328
15.0268 9.667 0.317
15.0472 9.604 0.316
15.0677 9.958 0.322
15.0882 9.771 0.319
15.1086 9.760 0.319
15.1291 9.125 0.308
15.1495 9.813 0.320
15.1700 9.604 0.316
15.1905 9.427 0.313
15.2109 9.823 0.320
15.2314 9.417 0.313
15.2519 9.938 0.322
15.2723 9.677 0.317
15.2928 9.396 0.313
15.3133 10.010 0.323
15.3337 10.177 0.326
15.3542 10.458 0.330
15.3746 10.438 0.330
15.3951 10.219 0.326
15.4156 9.448 0.314
15.4360 9.708 0.318
15.4565 9.667 0.317
15.4770 9.906 0.321
15.4974 10.010 0.323
15.5179 9.823 0.320
15.5383 10.104 0.324
15.5588 10.010 0.323
15.5793 9.708 0.318
15.5997 10.094 0.324
15.6202 10.646 0.333
15.6407 10.083 0.324
15.6611 10.792 0.335
15.6816 11.115 0.340
15.7020 13.073 0.369
15.7225 14.885 0.394
15.7430 19.458 0.450
15.7634 22.583 0.485
15.7839 20.771 0.465
15.8044 16.396 0.413
15.8248 12.563 0.362
15.8453 10.948 0.338
15.8657 9.521 0.315
15.8862 10.031 0.323
15.9067 9.906 0.321
15.9271 9.646 0.317
15.9476 9.500 0.315
15.9681 9.813 0.320
15.9885 9.354 0.312
16.0090 9.354 0.312
16.0295 9.292 0.311
16.0499 9.365 0.312
16.0704 9.521 0.315
16.0908 9.250 0.310
16.1113 9.521 0.315
16.1318 9.385 0.313
16.1522 9.604 0.316
16.1727 8.958 0.305
16.1932 9.135 0.308
16.2136 9.656 0.317
16.2341 9.302 0.311
16.2545 9.823 0.320
16.2750 9.792 0.319
16.2955 9.042 0.307
16.3159 9.896 0.321
16.3364 9.563 0.316
16.3569 9.271 0.311
16.3773 9.042 0.307
16.3978 9.052 0.307
16.4182 9.479 0.314
16.4387 9.333 0.312
16.4592 9.479 0.314
16.4796 9.396 0.313
16.5001 8.688 0.301
16.5206 9.031 0.307
16.5410 10.010 0.323
16.5615 9.229 0.310
16.5819 9.240 0.310
16.6024 9.229 0.310
16.6229 9.854 0.320
16.6433 9.698 0.318
16.6638 9.458 0.314
16.6843 9.406 0.313
16.7047 9.844 0.320
16.7252 9.469 0.314
16.7456 9.583 0.316
16.7661 9.531 0.315
16.7866 8.927 0.305
16.8070 9.177 0.309
16.8275 9.135 0.308
16.8480 9.542 0.315
16.8684 9.094 0.308
16.8889 8.927 0.305
16.9094 9.760 0.319
16.9298 10.156 0.325
16.9503 9.885 0.321
16.9707 10.354 0.328
16.9912 9.167 0.309
17.0117 9.167 0.309
17.0321 9.510 0.315
17.0526 9.938 0.322
17.0731 9.979 0.322
17.0935 10.365 0.329
17.1140 9.469 0.314
17.1344 9.333 0.312
17.1549 9.302 0.311
17.1754 9.813 0.320
17.1958 10.042 0.323
17.2163 9.438 0.314
17.2368 10.604 0.332
17.2572 10.156 0.325
17.2777 9.771 0.319
17.2981 10.135 0.325
17.3186 9.677 0.317
17.3391 10.177 0.326
17.3595 10.854 0.336
17.3800 9.792 0.319
17.4005 10.625 0.333
17.4209 10.906 0.337
17.4414 10.490 0.331
17.4618 10.875 0.337
17.4823 11.010 0.339
17.5028 10.635 0.333
17.5232 11.344 0.344
17.5437 11.563 0.347
17.5642 10.906 0.337
17.5846 10.781 0.335
17.6051 11.313 0.343
17.6255 11.188 0.341
17.6460 11.635 0.348
17.6665 11.552 0.347
17.6869 11.667 0.349
17.7074 11.938 0.353
17.7279 12.740 0.364
17.7483 12.552 0.362
17.7688 12.729 0.364
17.7893 14.177 0.384
17.8097 14.875 0.394
17.8302 14.281 0.386
17.8506 13.156 0.370
17.8711 13.656 0.377
17.8916 14.979 0.395
17.9120 13.260 0.372
17.9325 14.458 0.388
17.9530 14.260 0.385
17.9734 14.802 0.393
17.9939 15.427 0.401
18.0143 16.125 0.410
18.0348 17.927 0.432
18.0553 20.115 0.458
18.0757 20.771 0.465
18.0962 19.729 0.453
18.1167 18.813 0.443
18.1371 17.229 0.424
18.1576 17.219 0.424
18.1780 16.740 0.418
18.1985 17.583 0.428
18.2190 18.792 0.442
18.2394 17.531 0.427
18.2599 17.896 0.432
18.2804 17.875 0.432
18.3008 17.917 0.432
18.3213 19.354 0.449
18.3417 19.406 0.450
18.3622 19.271 0.448
18.3827 19.823 0.454
18.4031 19.677 0.453
18.4236 20.865 0.466
18.4441 21.510 0.473
18.4645 22.979 0.489
18.4850 24.260 0.503
18.5054 25.563 0.516
18.5259 23.938 0.499
18.5464 24.094 0.501
18.5668 24.208 0.502
18.5873 23.688 0.497
18.6078 22.688 0.486
18.6282 21.854 0.477
18.6487 21.073 0.469
18.6692 19.906 0.455
18.6896 20.354 0.460
18.7101 19.302 0.448
18.7305 19.135 0.446
18.7510 18.698 0.441
18.7715 18.771 0.442
18.7919 18.938 0.444
18.8124 18.417 0.438
18.8329 18.677 0.441
18.8533 19.083 0.446
18.8738 18.479 0.439
18.8942 16.625 0.416
18.9147 16.479 0.414
18.9352 15.844 0.406
18.9556 14.604 0.390
18.9761 14.083 0.383
18.9966 13.990 0.382
19.0170 13.354 0.373
19.0375 13.042 0.369
19.0579 12.865 0.366
19.0784 12.698 0.364
19.0989 12.885 0.366
19.1193 12.854 0.366
19.1398 12.552 0.362
19.1603 12.729 0.364
19.1807 13.125 0.370
19.2012 12.094 0.355
19.2216 12.615 0.362
19.2421 12.458 0.360
19.2626 12.688 0.364
19.2830 12.438 0.360
19.3035 12.469 0.360
19.3240 12.063 0.354
19.3444 12.448 0.360
19.3649 12.740 0.364
19.3853 12.708 0.364
19.4058 12.708 0.364
19.4263 12.792 0.365
19.4467 13.667 0.377
19.4672 12.698 0.364
19.4877 13.073 0.369
19.5081 13.479 0.375
19.5286 14.406 0.387
19.5491 14.677 0.391
19.5695 14.406 0.387
19.5900 15.042 0.396
19.6104 15.969 0.408
19.6309 16.479 0.414
19.6514 17.333 0.425
19.6718 17.573 0.428
19.6923 19.927 0.456
19.7128 22.052 0.479
19.7332 25.208 0.512
19.7537 30.833 0.567
19.7741 42.323 0.664
19.7946 61.854 0.803
19.8151 108.615 1.064
19.8355 182.698 1.380
19.8560 175.531 1.352
19.8765 142.667 1.219
19.8969 122.719 1.131
19.9174 79.125 0.908
19.9378 48.750 0.713
19.9583 34.990 0.604
19.9788 28.510 0.545
19.9992 24.333 0.503
20.0197 23.010 0.490
20.0402 20.719 0.465
20.0606 19.240 0.448
20.0811 18.677 0.441
20.1015 18.063 0.434
20.1220 16.740 0.418
20.1425 16.417 0.414
20.1629 16.667 0.417
20.1834 16.406 0.413
20.2039 15.698 0.404
20.2243 16.813 0.418
20.2448 16.510 0.415
20.2653 17.281 0.424
20.2857 16.573 0.415
20.3062 17.740 0.430
20.3266 17.167 0.423
20.3471 16.521 0.415
20.3676 17.042 0.421
20.3880 16.333 0.412
20.4085 16.740 0.418
20.4290 15.823 0.406
20.4494 16.719 0.417
20.4699 15.760 0.405
20.4903 16.198 0.411
20.5108 16.135 0.410
20.5313 15.219 0.398
20.5517 15.479 0.402
20.5722 15.438 0.401
20.5927 15.021 0.396
20.6131 14.344 0.387
20.6336 14.240 0.385
20.6540 13.375 0.373
20.6745 13.833 0.380
20.6950 13.406 0.374
20.7154 13.417 0.374
20.7359 13.135 0.370
20.7564 12.667 0.363
20.7768 12.333 0.358
20.7973 12.167 0.356
20.8177 12.052 0.354
20.8382 11.813 0.351
20.8587 12.083 0.355
20.8791 11.583 0.347
20.8996 12.010 0.354
20.9201 11.625 0.348
20.9405 11.729 0.350
20.9610 12.125 0.355
20.9814 11.281 0.343
21.0019 11.115 0.340
21.0224 11.615 0.348
21.0428 11.052 0.339
21.0633 11.344 0.344
21.0838 10.906 0.337
21.1042 10.906 0.337
21.1247 11.406 0.345
21.1452 10.948 0.338
21.1656 11.250 0.342
21.1861 10.906 0.337
21.2065 11.969 0.353
21.2270 10.979 0.338
21.2475 11.052 0.339
21.2679 11.615 0.348
21.2884 10.802 0.335
21.3089 11.271 0.343
21.3293 10.979 0.338
21.3498 11.031 0.339
21.3702 10.385 0.329
21.3907 10.969 0.338
21.4112 11.042 0.339
21.4316 10.729 0.334
21.4521 10.521 0.331
21.4726 10.260 0.327
21.4930 10.802 0.335
21.5135 10.948 0.338
21.5339 10.052 0.324
21.5544 10.417 0.329
21.5749 10.427 0.330
21.5953 10.813 0.336
21.6158 10.615 0.333
21.6363 11.083 0.340
21.6567 10.688 0.334
21.6772 11.125 0.340
21.6976 11.344 0.344
21.7181 11.156 0.341
21.7386 10.552 0.332
21.7590 10.917 0.337
21.7795 10.906 0.337
21.8000 10.427 0.330
21.8204 11.469 0.346
21.8409 10.792 0.335
21.8613 10.177 0.326
21.8818 11.052 0.339
21.9023 11.010 0.339
21.9227 11.917 0.352
21.9432 11.792 0.350
21.9637 12.521 0.361
21.9841 12.281 0.358
22.0046 12.563 0.362
22.0251 13.792 0.379
22.0455 14.792 0.393
22.0660 15.896 0.407
22.0864 17.427 0.426
22.1069 20.323 0.460
22.1274 25.521 0.516
22.1478 34.458 0.599
22.1683 48.313 0.709
22.1888 56.854 0.770
22.2092 53.885 0.749
22.2297 46.948 0.699
22.2501 41.344 0.656
22.2706 31.260 0.571
22.2911 24.469 0.505
22.3115 19.740 0.453
22.3320 16.635 0.416
22.3525 16.052 0.409
22.3729 14.104 0.383
22.3934 14.000 0.382
22.4138 13.823 0.379
22.4343 12.573 0.362
22.4548 11.563 0.347
22.4752 11.177 0.341
22.4957 11.521 0.346
22.5162 11.115 0.340
22.5366 10.948 0.338
22.5571 10.917 0.337
22.5775 10.542 0.331
22.5980 10.104 0.324
22.6185 9.729 0.318
22.6389 10.010 0.323
22.6594 10.771 0.335
22.6799 9.375 0.313
22.7003 9.604 0.316
22.7208 10.135 0.325
22.7412 10.479 0.330
22.7617 10.531 0.331
22.7822 10.146 0.325
22.8026 9.990 0.323
22.8231 10.646 0.333
22.8436 10.698 0.334
22.8640 11.823 0.351
22.8845 13.458 0.374
22.9050 13.844 0.380
22.9254 11.760 0.350
22.9459 11.365 0.344
22.9663 11.260 0.342
22.9868 10.323 0.328
23.0073 9.000 0.306
23.0277 9.313 0.311
23.0482 9.292 0.311
23.0687 9.052 0.307
23.0891 8.719 0.301
23.1096 8.854 0.304
23.1300 9.385 0.313
23.1505 8.771 0.302
23.1710 8.979 0.306
23.1914 9.135 0.308
23.2119 9.302 0.311
23.2324 9.104 0.308
23.2528 9.094 0.308
23.2733 8.198 0.292
23.2937 8.990 0.306
23.3142 8.781 0.302
23.3347 9.292 0.311
23.3551 9.125 0.308
23.3756 8.969 0.306
23.3961 8.542 0.298
23.4165 9.302 0.311
23.4370 9.365 0.312
23.4574 8.677 0.301
23.4779 8.677 0.301
23.4984 9.104 0.308
23.5188 9.042 0.307
23.5393 8.750 0.302
23.5598 9.271 0.311
23.5802 9.167 0.309
23.6007 9.229 0.310
23.6211 9.438 0.314
23.6416 9.438 0.314
23.6621 10.323 0.328
23.6825 10.760 0.335
23.7030 10.250 0.327
23.7235 10.073 0.324
23.7439 9.833 0.320
23.7644 9.469 0.314
23.7849 8.813 0.303
23.8053 8.396 0.296
23.8258 8.542 0.298
23.8462 8.604 0.299
23.8667 8.719 0.301
23.8872 8.906 0.305
23.9076 8.604 0.299
23.9281 8.740 0.302
23.9486 8.438 0.296
23.9690 8.063 0.290
23.9895 8.646 0.300
24.0099 8.458 0.297
24.0304 8.469 0.297
24.0509 8.667 0.300
24.0713 8.583 0.299
24.0918 8.313 0.294
24.1123 8.656 0.300
24.1327 8.615 0.300
24.1532 9.135 0.308
24.1736 9.365 0.312
24.1941 8.813 0.303
24.2146 9.156 0.309
24.2350 9.313 0.311
24.2555 9.188 0.309
24.2760 9.740 0.319
24.2964 11.167 0.341
24.3169 10.927 0.337
24.3373 12.000 0.354
24.3578 12.208 0.357
24.3783 11.510 0.346
24.3987 11.219 0.342
24.4192 10.250 0.327
24.4397 10.135 0.325
24.4601 9.313 0.311
24.4806 8.531 0.298
24.5011 8.917 0.305
24.5215 8.594 0.299
24.5420 8.896 0.304
24.5624 8.146 0.291
24.5829 8.208 0.292
24.6034 8.813 0.303
24.6238 8.354 0.295
24.6443 8.813 0.303
24.6648 8.667 0.300
24.6852 8.688 0.301
24.7057 8.531 0.298
24.7261 8.406 0.296
24.7466 8.375 0.295
24.7671 8.396 0.296
24.7875 8.229 0.293
24.8080 7.938 0.288
24.8285 7.771 0.285
24.8489 8.333 0.295
24.8694 7.948 0.288
24.8898 8.458 0.297
24.9103 7.854 0.286
24.9308 7.885 0.287
24.9512 8.698 0.301
24.9717 7.854 0.286
24.9922 7.667 0.283
25.0126 7.875 0.286
25.0331 7.625 0.282
25.0535 8.167 0.292
25.0740 7.938 0.288
25.0945 7.823 0.285
25.1149 7.417 0.278
25.1354 7.802 0.285
25.1559 7.833 0.286
25.1763 8.031 0.289
25.1968 7.573 0.281
25.2172 7.740 0.284
25.2377 8.500 0.298
25.2582 7.698 0.283
25.2786 7.781 0.285
25.2991 7.635 0.282
25.3196 8.031 0.289
25.3400 7.750 0.284
25.3605 8.573 0.299
25.3810 7.177 0.273
25.4014 7.833 0.286
25.4219 7.667 0.283
25.4423 7.885 0.287
25.4628 8.115 0.291
25.4833 8.229 0.293
25.5037 8.323 0.294
25.5242 8.417 0.296
25.5447 9.219 0.310
25.5651 10.021 0.323
25.5856 9.969 0.322
25.6060 9.635 0.317
25.6265 9.313 0.311
25.6470 9.500 0.315
25.6674 8.469 0.297
25.6879 8.042 0.289
25.7084 8.031 0.289
25.7288 8.552 0.298
25.7493 8.302 0.294
25.7697 8.063 0.290
25.7902 8.083 0.290
25.8107 7.948 0.288
25.8311 7.448 0.279
25.8516 8.750 0.302
25.8721 8.156 0.291
25.8925 7.177 0.273
25.9130 7.896 0.287
25.9334 8.344 0.295
25.9539 8.115 0.291
25.9744 7.771 0.285
25.9948 7.729 0.284
26.0153 7.906 0.287
26.0358 8.208 0.292
26.0562 7.250 0.275
26.0767 7.885 0.287
26.0971 7.698 0.283
26.1176 7.740 0.284
26.1381 7.958 0.288
26.1585 7.646 0.282
26.1790 7.625 0.282
26.1995 8.115 0.291
26.2199 8.177 0.292
26.2404 7.833 0.286
26.2609 7.406 0.278
26.2813 7.604 0.281
26.3018 7.354 0.277
26.3222 7.542 0.280
26.3427 7.781 0.285
26.3632 8.104 0.291
26.3836 8.292 0.294
26.4041 7.500 0.280
26.4246 8.479 0.297
26.4450 7.760 0.284
26.4655 7.833 0.286
26.4859 7.438 0.278
26.5064 7.385 0.277
26.5269 8.135 0.291
26.5473 8.000 0.289
26.5678 7.854 0.286
26.5883 7.531 0.280
26.6087 7.542 0.280
26.6292 8.167 0.292
26.6496 7.583 0.281
26.6701 7.625 0.282
26.6906 7.833 0.286
26.7110 7.510 0.280
26.7315 8.021 0.289
26.7520 8.000 0.289
26.7724 7.531 0.280
26.7929 7.573 0.281
26.8133 7.625 0.282
26.8338 7.885 0.287
26.8543 7.625 0.282
26.8747 8.000 0.289
26.8952 7.979 0.288
26.9157 7.604 0.281
26.9361 7.781 0.285
26.9566 7.979 0.288
26.9770 8.531 0.298
26.9975 7.854 0.286
27.0180 7.948 0.288
27.0384 7.500 0.280
27.0589 8.083 0.290
27.0794 7.979 0.288
27.0998 8.406 0.296
27.1203 7.115 0.272
27.1408 8.313 0.294
27.1612 7.531 0.280
27.1817 8.010 0.289
27.2021 7.458 0.279
27.2226 8.385 0.296
27.2431 7.875 0.286
27.2635 7.802 0.285
27.2840 8.115 0.291
27.3045 8.177 0.292
27.3249 8.448 0.297
27.3454 8.021 0.289
27.3658 7.896 0.287
27.3863 7.500 0.280
27.4068 8.188 0.292
27.4272 8.573 0.299
27.4477 9.052 0.307
27.4682 9.646 0.317
27.4886 8.771 0.302
27.5091 8.646 0.300
27.5295 9.135 0.308
27.5500 8.427 0.296
27.5705 8.333 0.295
27.5909 7.740 0.284
27.6114 7.885 0.287
27.6319 7.458 0.279
27.6523 7.875 0.286
27.6728 7.823 0.285
27.6932 7.948 0.288
27.7137 8.667 0.300
27.7342 8.010 0.289
27.7546 7.979 0.288
27.7751 8.427 0.296
27.7956 8.260 0.293
27.8160 7.792 0.285
27.8365 8.406 0.296
27.8569 8.240 0.293
27.8774 8.073 0.290
27.8979 7.979 0.288
27.9183 8.115 0.291
27.9388 8.260 0.293
27.9593 8.375 0.295
27.9797 8.073 0.290
28.0002 7.990 0.288
28.0207 7.688 0.283
28.0411 7.438 0.278
28.0616 7.531 0.280
28.0820 7.729 0.284
28.1025 7.833 0.286
28.1230 7.719 0.284
28.1434 7.323 0.276
28.1639 7.146 0.273
28.1844 7.573 0.281
28.2048 7.385 0.277
28.2253 7.844 0.286
28.2457 7.448 0.279
28.2662 7.781 0.285
28.2867 7.479 0.279
28.3071 7.417 0.278
28.3276 7.438 0.278
28.3481 7.458 0.279
28.3685 6.969 0.269
28.3890 7.646 0.282
28.4094 7.771 0.285
28.4299 7.125 0.272
28.4504 7.323 0.276
28.4708 7.375 0.277
28.4913 7.271 0.275
28.5118 7.042 0.271
28.5322 7.979 0.288
28.5527 7.417 0.278
28.5731 7.750 0.284
28.5936 7.188 0.274
28.6141 7.250 0.275
28.6345 7.250 0.275
28.6550 7.063 0.271
28.6755 7.625 0.282
28.6959 7.448 0.279
28.7164 7.563 0.281
28.7368 7.323 0.276
28.7573 7.604 0.281
28.7778 7.500 0.280
28.7982 7.469 0.279
28.8187 7.875 0.286
28.8392 7.271 0.275
28.8596 7.302 0.276
28.8801 7.385 0.277
28.9006 7.698 0.283
28.9210 6.833 0.267
28.9415 6.969 0.269
28.9619 7.000 0.270
28.9824 7.167 0.273
29.0029 7.260 0.275
29.0233 7.375 0.277
29.0438 7.021 0.270
29.0643 7.667 0.283
29.0847 7.802 0.285
29.1052 7.438 0.278
29.1256 7.375 0.277
29.1461 7.969 0.288
29.1666 6.927 0.269
29.1870 7.250 0.275
29.2075 7.125 0.272
29.2280 7.354 0.277
29.2484 7.469 0.279
29.2689 7.771 0.285
29.2893 7.385 0.277
29.3098 7.208 0.274
29.3303 7.635 0.282
29.3507 7.479 0.279
29.3712 7.875 0.286
29.3917 8.094 0.290
29.4121 7.385 0.277
29.4326 7.490 0.279
29.4530 7.313 0.276
29.4735 7.333 0.276
29.4940 7.458 0.279
29.5144 7.646 0.282
29.5349 7.729 0.284
29.5554 7.208 0.274
29.5758 7.927 0.287
29.5963 7.406 0.278
29.6168 7.500 0.280
29.6372 7.260 0.275
29.6577 7.396 0.278
29.6781 7.281 0.275
29.6986 6.750 0.265
29.7191 7.313 0.276
29.7395 7.063 0.271
29.7600 6.906 0.268
29.7805 7.073 0.271
29.8009 7.229 0.274
29.8214 6.865 0.267
29.8418 6.656 0.263
29.8623 7.042 0.271
29.8828 7.438 0.278
29.9032 6.854 0.267
29.9237 7.104 0.272
29.9442 7.333 0.276
29.9646 7.146 0.273
29.9851 7.323 0.276
30.0055 7.156 0.273
30.0260 6.646 0.263
30.0465 7.000 0.270
30.0669 6.979 0.270
30.0874 7.490 0.279
30.1079 7.073 0.271
30.1283 7.260 0.275
30.1488 7.479 0.279
30.1692 7.365 0.277
30.1897 6.823 0.267
30.2102 7.104 0.272
30.2306 7.792 0.285
30.2511 7.083 0.272
30.2716 7.177 0.273
30.2920 7.021 0.270
30.3125 7.635 0.282
30.3329 7.115 0.272
30.3534 7.250 0.275
30.3739 7.198 0.274
30.3943 6.771 0.266
30.4148 6.781 0.266
30.4353 7.063 0.271
30.4557 6.604 0.262
30.4762 7.063 0.271
30.4967 7.000 0.270
30.5171 7.177 0.273
30.5376 6.688 0.264
30.5580 6.948 0.269
30.5785 7.500 0.280
30.5990 7.490 0.279
30.6194 6.708 0.264
30.6399 7.177 0.273
30.6604 7.260 0.275
30.6808 7.896 0.287
30.7013 7.500 0.280
30.7217 7.792 0.285
30.7422 7.823 0.285
30.7627 8.042 0.289
30.7831 8.542 0.298
30.8036 8.698 0.301
30.8241 9.156 0.309
30.8445 9.563 0.316
30.8650 10.146 0.325
30.8854 10.813 0.336
30.9059 13.021 0.368
30.9264 13.969 0.381
30.9468 18.427 0.438
30.9673 25.167 0.512
30.9878 34.917 0.603
31.0082 46.771 0.698
31.0287 49.250 0.716
31.0491 43.052 0.670
31.0696 40.271 0.648
31.0901 39.021 0.638
31.1105 33.448 0.590
31.1310 26.625 0.527
31.1515 20.521 0.462
31.1719 16.427 0.414
31.1924 13.458 0.374
31.2128 11.844 0.351
31.2333 10.542 0.331
31.2538 10.156 0.325
31.2742 9.719 0.318
31.2947 10.177 0.326
31.3152 9.281 0.311
31.3356 9.094 0.308
31.3561 9.115 0.308
31.3766 8.865 0.304
31.3970 8.865 0.304
31.4175 8.479 0.297
31.4379 8.427 0.296
31.4584 7.583 0.281
31.4789 7.552 0.280
31.4993 7.438 0.278
31.5198 7.073 0.271
31.5403 7.323 0.276
31.5607 7.063 0.271
31.5812 7.177 0.273
31.6016 7.250 0.275
31.6221 7.031 0.271
31.6426 7.458 0.279
31.6630 6.802 0.266
31.6835 7.156 0.273
31.7040 7.906 0.287
31.7244 6.813 0.266
31.7449 7.719 0.284
31.7653 7.656 0.282
31.7858 7.542 0.280
31.8063 7.760 0.284
31.8267 7.292 0.276
31.8472 8.052 0.290
31.8677 7.281 0.275
31.8881 7.625 0.282
31.9086 7.573 0.281
31.9290 7.469 0.279
31.9495 7.490 0.279
31.9700 8.510 0.298
31.9904 7.896 0.287
32.0109 8.063 0.290
32.0314 8.490 0.297
32.0518 8.625 0.300
32.0723 9.635 0.317
32.0927 9.979 0.322
32.1132 10.052 0.324
32.1337 10.500 0.331
32.1541 11.333 0.344
32.1746 11.188 0.341
32.1951 11.760 0.350
32.2155 12.771 0.365
32.2360 11.302 0.343
32.2565 10.125 0.325
32.2769 9.729 0.318
32.2974 9.542 0.315
32.3178 9.531 0.315
32.3383 9.063 0.307
32.3588 9.125 0.308
32.3792 8.719 0.301
32.3997 8.417 0.296
32.4202 9.333 0.312
32.4406 9.771 0.319
32.4611 9.813 0.320
32.4815 9.781 0.319
32.5020 10.615 0.333
32.5225 11.042 0.339
32.5429 12.854 0.366
32.5634 14.354 0.387
32.5839 16.375 0.413
32.6043 20.365 0.461
32.6248 22.021 0.479
32.6452 22.615 0.485
32.6657 20.604 0.463
32.6862 19.146 0.447
32.7066 18.156 0.435
32.7271 16.625 0.416
32.7476 13.792 0.379
32.7680 12.156 0.356
32.7885 11.354 0.344
32.8089 9.813 0.320
32.8294 9.573 0.316
32.8499 8.833 0.303
32.8703 8.302 0.294
32.8908 8.313 0.294
32.9113 8.281 0.294
32.9317 8.125 0.291
32.9522 8.354 0.295
32.9726 8.323 0.294
32.9931 7.802 0.285
33.0136 8.021 0.289
33.0340 7.115 0.272
33.0545 7.531 0.280
33.0750 7.146 0.273
33.0954 7.771 0.285
33.1159 6.885 0.268
33.1364 7.906 0.287
33.1568 8.052 0.290
33.1773 7.583 0.281
33.1977 6.667 0.264
33.2182 7.417 0.278
33.2387 7.271 0.275
33.2591 7.385 0.277
33.2796 7.021 0.270
33.3001 7.083 0.272
33.3205 7.479 0.279
33.3410 7.833 0.286
33.3614 6.990 0.270
33.3819 7.344 0.277
33.4024 7.229 0.274
33.4228 6.813 0.266
33.4433 7.583 0.281
33.4638 7.323 0.276
33.4842 7.167 0.273
33.5047 6.750 0.265
33.5251 7.260 0.275
33.5456 6.479 0.260
33.5661 7.073 0.271
33.5865 6.833 0.267
33.6070 6.594 0.262
33.6275 6.875 0.268
33.6479 7.156 0.273
33.6684 6.990 0.270
33.6888 6.917 0.268
33.7093 7.177 0.273
33.7298 7.167 0.273
33.7502 7.073 0.271
33.7707 6.635 0.263
33.7912 7.250 0.275
33.8116 6.510 0.260
33.8321 6.885 0.268
33.8526 6.760 0.265
33.8730 6.604 0.262
33.8935 6.948 0.269
33.9139 6.854 0.267
33.9344 6.760 0.265
33.9549 6.427 0.259
33.9753 6.396 0.258
33.9958 6.854 0.267
34.0163 6.896 0.268
34.0367 6.906 0.268
34.0572 6.469 0.260
34.0776 6.948 0.269
34.0981 6.708 0.264
34.1186 6.865 0.267
34.1390 6.990 0.270
34.1595 7.188 0.274
34.1800 6.531 0.261
34.2004 7.542 0.280
34.2209 8.021 0.289
34.2413 7.990 0.288
34.2618 7.406 0.278
34.2823 7.844 0.286
34.3027 8.125 0.291
34.3232 7.500 0.280
34.3437 7.260 0.275
34.3641 6.656 0.263
34.3846 7.073 0.271
34.4050 6.927 0.269
34.4255 6.677 0.264
34.4460 7.115 0.272
34.4664 6.885 0.268
34.4869 6.938 0.269
34.5074 6.458 0.259
34.5278 6.719 0.265
34.5483 6.656 0.263
34.5687 6.740 0.265
34.5892 6.875 0.268
34.6097 6.271 0.256
34.6301 6.281 0.256
34.6506 6.917 0.268
34.6711 6.510 0.260
34.6915 6.365 0.257
34.7120 6.875 0.268
34.7325 7.146 0.273
34.7529 6.896 0.268
34.7734 6.750 0.265
34.7938 6.625 0.263
34.8143 6.969 0.269
34.8348 6.625 0.263
34.8552 6.760 0.265
34.8757 7.417 0.278
34.8962 7.510 0.280
34.9166 8.073 0.290
34.9371 9.354 0.312
34.9575 9.646 0.317
34.9780 8.656 0.300
34.9985 7.958 0.288
35.0189 8.042 0.289
35.0394 7.896 0.287
35.0599 7.281 0.275
35.0803 7.281 0.275
35.1008 6.854 0.267
35.1212 6.906 0.268
35.1417 7.010 0.270
35.1622 6.688 0.264
35.1826 6.563 0.261
35.2031 6.750 0.265
35.2236 6.865 0.267
35.2440 7.104 0.272
35.2645 6.688 0.264
35.2849 6.938 0.269
35.3054 7.042 0.271
35.3259 7.198 0.274
35.3463 7.115 0.272
35.3668 7.104 0.272
35.3873 7.135 0.273
35.4077 6.740 0.265
35.4282 6.667 0.264
35.4486 7.458 0.279
35.4691 6.781 0.266
35.4896 7.625 0.282
35.5100 6.771 0.266
35.5305 7.760 0.284
35.5510 7.042 0.271
35.5714 7.469 0.279
35.5919 7.281 0.275
35.6124 7.490 0.279
35.6328 7.354 0.277
35.6533 6.938 0.269
35.6737 7.146 0.273
35.6942 7.438 0.278
35.7147 7.531 0.280
35.7351 7.333 0.276
35.7556 7.333 0.276
35.7761 7.740 0.284
35.7965 7.823 0.285
35.8170 7.792 0.285
35.8374 7.563 0.281
35.8579 8.302 0.294
35.8784 8.167 0.292
35.8988 8.094 0.290
35.9193 8.271 0.294
35.9398 8.510 0.298
35.9602 8.688 0.301
35.9807 8.990 0.306
36.0011 8.979 0.306
36.0216 8.990 0.306
36.0421 9.938 0.322
36.0625 9.969 0.322
36.0830 10.917 0.337
36.1035 11.198 0.342
36.1239 12.010 0.354
36.1444 12.156 0.356
36.1648 11.146 0.341
36.1853 11.448 0.345
36.2058 12.688 0.364
36.2262 11.396 0.345
36.2467 11.156 0.341
36.2672 11.531 0.347
36.2876 11.594 0.348
36.3081 11.396 0.345
36.3285 10.500 0.331
36.3490 10.750 0.335
36.3695 11.094 0.340
36.3899 12.083 0.355
36.4104 12.240 0.357
36.4309 11.854 0.351
36.4513 12.333 0.358
36.4718 12.781 0.365
36.4923 14.615 0.390
36.5127 14.604 0.390
36.5332 16.188 0.411
36.5536 20.438 0.461
36.5741 24.594 0.506
36.5946 29.885 0.558
36.6150 30.615 0.565
36.6355 27.042 0.531
36.6560 24.250 0.503
36.6764 24.177 0.502
36.6969 23.208 0.492
36.7173 21.021 0.468
36.7378 17.854 0.431
36.7583 16.583 0.416
36.7787 15.604 0.403
36.7992 13.927 0.381
36.8197 13.615 0.377
36.8401 13.677 0.377
36.8606 13.958 0.381
36.8810 13.479 0.375
36.9015 13.427 0.374
36.9220 14.156 0.384
36.9424 15.229 0.398
36.9629 15.458 0.401
36.9834 17.542 0.427
37.0038 19.635 0.452
37.0243 21.583 0.474
37.0447 27.688 0.537
37.0652 33.750 0.593
37.0857 37.219 0.623
37.1061 38.344 0.632
37.1266 34.229 0.597
37.1471 31.615 0.574
37.1675 29.823 0.557
37.1880 28.948 0.549
37.2084 26.031 0.521
37.2289 23.302 0.493
37.2494 19.365 0.449
37.2698 17.021 0.421
37.2903 15.094 0.397
37.3108 14.083 0.383
37.3312 13.000 0.368
37.3517 12.594 0.362
37.3722 12.240 0.357
37.3926 10.938 0.338
37.4131 11.083 0.340
37.4335 11.010 0.339
37.4540 11.271 0.343
37.4745 11.188 0.341
37.4949 11.000 0.339
37.5154 10.635 0.333
37.5359 9.969 0.322
37.5563 9.938 0.322
37.5768 10.281 0.327
37.5972 9.823 0.320
37.6177 10.219 0.326
37.6382 10.146 0.325
37.6586 10.156 0.325
37.6791 9.844 0.320
37.6996 10.073 0.324
37.7200 9.958 0.322
37.7405 9.333 0.312
37.7609 9.729 0.318
37.7814 9.542 0.315
37.8019 10.021 0.323
37.8223 9.875 0.321
37.8428 10.323 0.328
37.8633 10.063 0.324
37.8837 9.573 0.316
37.9042 10.188 0.326
37.9246 10.250 0.327
37.9451 11.063 0.339
37.9656 11.010 0.339
37.9860 11.781 0.350
38.0065 13.990 0.382
38.0270 15.729 0.405
38.0474 17.844 0.431
38.0679 17.052 0.421
38.0884 16.031 0.409
38.1088 15.115 0.397
38.1293 14.500 0.389
38.1497 14.750 0.392
38.1702 13.854 0.380
38.1907 13.156 0.370
38.2111 12.490 0.361
38.2316 11.646 0.348
38.2521 11.469 0.346
38.2725 10.979 0.338
38.2930 11.156 0.341
38.3134 11.240 0.342
38.3339 10.698 0.334
38.3544 11.083 0.340
38.3748 11.833 0.351
38.3953 12.510 0.361
38.4158 13.083 0.369
38.4362 15.063 0.396
38.4567 15.813 0.406
38.4771 16.396 0.413
38.4976 15.208 0.398
38.5181 14.135 0.384
38.5385 13.646 0.377
38.5590 14.531 0.389
38.5795 12.427 0.360
38.5999 12.948 0.367
38.6204 10.958 0.338
38.6408 10.552 0.332
38.6613 10.167 0.325
38.6818 10.083 0.324
38.7022 9.063 0.307
38.7227 9.073 0.307
38.7432 8.896 0.304
38.7636 9.177 0.309
38.7841 8.646 0.300
38.8045 9.063 0.307
38.8250 8.500 0.298
38.8455 8.125 0.291
38.8659 7.854 0.286
38.8864 8.344 0.295
38.9069 8.083 0.290
38.9273 7.865 0.286
38.9478 7.969 0.288
38.9683 8.604 0.299
38.9887 7.885 0.287
39.0092 8.844 0.304
39.0296 8.479 0.297
39.0501 8.396 0.296
39.0706 7.917 0.287
39.0910 8.760 0.302
39.1115 8.375 0.295
39.1320 9.344 0.312
39.1524 8.677 0.301
39.1729 8.042 0.289
39.1933 7.760 0.284
39.2138 8.240 0.293
39.2343 8.333 0.295
39.2547 8.292 0.294
39.2752 8.510 0.298
39.2957 8.677 0.301
39.3161 8.458 0.297
39.3366 8.135 0.291
39.3570 8.813 0.303
39.3775 7.875 0.286
39.3980 8.219 0.293
39.4184 8.792 0.303
39.4389 8.917 0.305
39.4594 9.010 0.306
39.4798 8.552 0.298
39.5003 9.010 0.306
39.5207 8.229 0.293
39.5412 9.156 0.309
39.5617 8.490 0.297
39.5821 8.625 0.300
39.6026 9.031 0.307
39.6231 8.635 0.300
39.6435 9.198 0.310
39.6640 9.115 0.308
39.6844 9.396 0.313
39.7049 8.813 0.303
39.7254 10.344 0.328
39.7458 10.104 0.324
39.7663 11.198 0.342
39.7868 11.667 0.349
39.8072 13.281 0.372
39.8277 12.521 0.361
39.8482 11.938 0.353
39.8686 10.760 0.335
39.8891 11.510 0.346
39.9095 10.875 0.337
39.9300 10.344 0.328
39.9505 9.833 0.320
39.9709 9.115 0.308
39.9914 8.938 0.305
40.0119 9.010 0.306
40.0323 8.229 0.293
40.0528 8.469 0.297
40.0732 8.542 0.298
40.0937 8.469 0.297
40.1142 8.479 0.297
40.1346 8.375 0.295
40.1551 8.354 0.295
40.1756 8.563 0.299
40.1960 8.677 0.301
40.2165 9.479 0.314
40.2369 9.667 0.317
40.2574 9.573 0.316
40.2779 11.188 0.341
40.2983 12.417 0.360
40.3188 13.135 0.370
40.3393 11.865 0.352
40.3597 11.771 0.350
40.3802 11.760 0.350
40.4006 11.698 0.349
40.4211 11.385 0.344
40.4416 9.823 0.320
40.4620 9.958 0.322
40.4825 9.344 0.312
40.5030 9.646 0.317
40.5234 9.604 0.316
40.5439 8.885 0.304
40.5643 8.948 0.305
40.5848 8.885 0.304
40.6053 8.521 0.298
40.6257 8.802 0.303
40.6462 8.354 0.295
40.6667 8.802 0.303
40.6871 8.354 0.295
40.7076 7.958 0.288
40.7281 8.927 0.305
40.7485 8.917 0.305
40.7690 9.677 0.317
40.7894 10.260 0.327
40.8099 9.385 0.313
40.8304 9.677 0.317
40.8508 8.604 0.299
40.8713 8.792 0.303
40.8918 9.219 0.310
40.9122 9.385 0.313
40.9327 8.260 0.293
40.9531 8.302 0.294
40.9736 8.354 0.295
40.9941 8.365 0.295
41.0145 8.646 0.300
41.0350 9.188 0.309
41.0555 8.938 0.305
41.0759 10.052 0.324
41.0964 11.010 0.339
41.1168 12.135 0.356
41.1373 13.969 0.381
41.1578 15.208 0.398
41.1782 14.188 0.384
41.1987 14.156 0.384
41.2192 13.240 0.371
41.2396 12.677 0.363
41.2601 12.771 0.365
41.2805 12.750 0.364
41.3010 10.927 0.337
41.3215 9.740 0.319
41.3419 9.885 0.321
41.3624 8.531 0.298
41.3829 8.958 0.305
41.4033 8.104 0.291
41.4238 7.458 0.279
41.4442 7.208 0.274
41.4647 7.438 0.278
41.4852 7.708 0.283
41.5056 7.646 0.282
41.5261 7.615 0.282
41.5466 7.333 0.276
41.5670 7.073 0.271
41.5875 7.802 0.285
41.6080 7.729 0.284
41.6284 6.823 0.267
41.6489 7.167 0.273
41.6693 7.156 0.273
41.6898 7.313 0.276
41.7103 7.354 0.277
41.7307 7.354 0.277
41.7512 7.063 0.271
41.7717 7.229 0.274
41.7921 7.469 0.279
41.8126 7.594 0.281
41.8330 7.469 0.279
41.8535 7.583 0.281
41.8740 8.073 0.290
41.8944 7.885 0.287
41.9149 7.625 0.282
41.9354 6.802 0.266
41.9558 7.625 0.282
41.9763 6.927 0.269
41.9967 7.604 0.281
42.0172 7.292 0.276
42.0377 7.260 0.275
42.0581 7.635 0.282
42.0786 6.604 0.262
42.0991 7.188 0.274
42.1195 7.135 0.273
42.1400 6.740 0.265
42.1604 6.479 0.260
42.1809 6.854 0.267
42.2014 7.760 0.284
42.2218 7.073 0.271
42.2423 6.625 0.263
42.2628 7.583 0.281
42.2832 7.323 0.276
42.3037 7.104 0.272
42.3242 7.125 0.272
42.3446 7.906 0.287
42.3651 7.052 0.271
42.3855 7.281 0.275
42.4060 7.563 0.281
42.4265 7.250 0.275
42.4469 7.417 0.278
42.4674 7.333 0.276
42.4879 8.115 0.291
42.5083 7.094 0.272
42.5288 7.281 0.275
42.5492 8.010 0.289
42.5697 7.469 0.279
42.5902 7.906 0.287
42.6106 7.938 0.288
42.6311 7.948 0.288
42.6516 7.573 0.281
42.6720 8.042 0.289
42.6925 8.000 0.289
42.7129 7.385 0.277
42.7334 8.271 0.294
42.7539 7.313 0.276
42.7743 7.604 0.281
42.7948 7.281 0.275
42.8153 7.448 0.279
42.8357 7.031 0.271
42.8562 7.094 0.272
42.8766 7.385 0.277
42.8971 7.344 0.277
42.9176 7.313 0.276
42.9380 7.208 0.274
42.9585 7.677 0.283
42.9790 7.313 0.276
42.9994 7.344 0.277
43.0199 7.260 0.275
43.0403 7.760 0.284
43.0608 7.750 0.284
43.0813 7.646 0.282
43.1017 7.531 0.280
43.1222 7.688 0.283
43.1427 7.958 0.288
43.1631 9.063 0.307
43.1836 8.990 0.306
43.2041 9.625 0.317
43.2245 9.813 0.320
43.2450 10.146 0.325
43.2654 9.625 0.317
43.2859 9.115 0.308
43.3064 9.427 0.313
43.3268 9.604 0.316
43.3473 9.333 0.312
43.3678 10.219 0.326
43.3882 10.260 0.327
43.4087 9.802 0.320
43.4291 9.854 0.320
43.4496 9.104 0.308
43.4701 9.510 0.315
43.4905 9.875 0.321
43.5110 11.281 0.343
43.5315 11.125 0.340
43.5519 11.615 0.348
43.5724 12.563 0.362
43.5928 15.438 0.401
43.6133 17.281 0.424
43.6338 19.063 0.446
43.6542 21.094 0.469
43.6747 21.229 0.470
43.6952 19.427 0.450
43.7156 19.031 0.445
43.7361 18.063 0.434
43.7565 17.188 0.423
43.7770 16.229 0.411
43.7975 15.750 0.405
43.8179 13.458 0.374
43.8384 12.917 0.367
43.8589 10.917 0.337
43.8793 10.969 0.338
43.8998 9.594 0.316
43.9202 9.354 0.312
43.9407 8.760 0.302
43.9612 8.198 0.292
43.9816 7.938 0.288
44.0021 8.417 0.296
44.0226 7.927 0.287
44.0430 7.479 0.279
44.0635 8.146 0.291
44.0840 7.406 0.278
44.1044 7.979 0.288
44.1249 7.344 0.277
44.1453 6.667 0.264
44.1658 7.427 0.278
44.1863 7.281 0.275
44.2067 7.719 0.284
44.2272 7.333 0.276
44.2477 7.271 0.275
44.2681 7.500 0.280
44.2886 7.760 0.284
44.3090 6.688 0.264
44.3295 7.458 0.279
44.3500 7.323 0.276
44.3704 7.021 0.270
44.3909 7.448 0.279
44.4114 7.365 0.277
44.4318 7.344 0.277
44.4523 7.698 0.283
44.4727 6.740 0.265
44.4932 7.021 0.270
44.5137 7.052 0.271
44.5341 7.229 0.274
44.5546 6.927 0.269
44.5751 6.917 0.268
44.5955 6.656 0.263
44.6160 6.938 0.269
44.6364 7.010 0.270
44.6569 7.073 0.271
44.6774 7.500 0.280
44.6978 7.323 0.276
44.7183 7.333 0.276
44.7388 7.458 0.279
44.7592 7.125 0.272
44.7797 7.615 0.282
44.8001 7.365 0.277
44.8206 7.417 0.278
44.8411 8.083 0.290
44.8615 7.469 0.279
44.8820 7.333 0.276
44.9025 7.854 0.286
44.9229 7.510 0.280
44.9434 7.333 0.276
44.9639 7.458 0.279
44.9843 7.188 0.274
45.0048 7.646 0.282
45.0252 7.802 0.285
45.0457 7.635 0.282
45.0662 8.031 0.289
45.0866 7.875 0.286
45.1071 8.052 0.290
45.1276 7.698 0.283
45.1480 8.031 0.289
45.1685 8.188 0.292
45.1889 8.938 0.305
45.2094 9.240 0.310
45.2299 10.198 0.326
45.2503 11.604 0.348
45.2708 11.510 0.346
45.2913 11.021 0.339
45.3117 10.250 0.327
45.3322 10.125 0.325
45.3526 9.583 0.316
45.3731 10.281 0.327
45.3936 9.531 0.315
45.4140 8.563 0.299
45.4345 8.552 0.298
45.4550 7.813 0.285
45.4754 7.625 0.282
45.4959 7.438 0.278
45.5163 7.219 0.274
45.5368 6.865 0.267
45.5573 6.906 0.268
45.5777 6.792 0.266
45.5982 7.198 0.274
45.6187 6.802 0.266
45.6391 7.083 0.272
45.6596 7.406 0.278
45.6800 6.771 0.266
45.7005 6.625 0.263
45.7210 6.719 0.265
45.7414 6.354 0.257
45.7619 7.063 0.271
45.7824 6.260 0.255
45.8028 7.094 0.272
45.8233 6.656 0.263
45.8438 6.677 0.264
45.8642 6.396 0.258
45.8847 6.323 0.257
45.9051 6.635 0.263
45.9256 6.906 0.268
45.9461 6.375 0.258
45.9665 6.021 0.250
45.9870 6.625 0.263
46.0075 6.510 0.260
46.0279 6.427 0.259
46.0484 6.500 0.260
46.0688 6.542 0.261
46.0893 6.365 0.257
46.1098 6.313 0.256
46.1302 6.240 0.255
46.1507 6.323 0.257
46.1712 6.594 0.262
46.1916 6.729 0.265
46.2121 6.510 0.260
46.2325 6.688 0.264
46.2530 6.260 0.255
46.2735 6.427 0.259
46.2939 6.823 0.267
46.3144 6.021 0.250
46.3349 6.542 0.261
46.3553 7.073 0.271
46.3758 6.667 0.264
46.3962 6.000 0.250
46.4167 5.979 0.250
46.4372 6.594 0.262
46.4576 6.083 0.252
46.4781 6.354 0.257
46.4986 5.979 0.250
46.5190 5.927 0.248
46.5395 7.281 0.275
46.5600 6.323 0.257
46.5804 6.073 0.252
46.6009 6.917 0.268
46.6213 6.708 0.264
46.6418 6.854 0.267
46.6623 6.385 0.258
46.6827 6.469 0.260
46.7032 6.854 0.267
46.7237 6.094 0.252
46.7441 6.531 0.261
46.7646 6.531 0.261
46.7850 6.365 0.257
46.8055 6.313 0.256
46.8260 6.094 0.252
46.8464 6.260 0.255
46.8669 6.104 0.252
46.8874 6.375 0.258
46.9078 6.198 0.254
46.9283 6.448 0.259
46.9487 6.563 0.261
46.9692 6.469 0.260
46.9897 6.490 0.260
47.0101 6.208 0.254
47.0306 6.750 0.265
47.0511 5.813 0.246
47.0715 6.323 0.257
47.0920 6.406 0.258
47.1124 6.354 0.257
47.1329 6.823 0.267
47.1534 6.385 0.258
47.1738 6.563 0.261
47.1943 6.333 0.257
47.2148 6.583 0.262
47.2352 6.177 0.254
47.2557 6.521 0.261
47.2761 6.531 0.261
47.2966 6.667 0.264
47.3171 6.656 0.263
47.3375 6.594 0.262
47.3580 6.750 0.265
47.3785 6.823 0.267
47.3989 7.094 0.272
47.4194 6.396 0.258
47.4399 7.063 0.271
47.4603 7.448 0.279
47.4808 7.219 0.274
47.5012 7.198 0.274
47.5217 7.167 0.273
47.5422 8.042 0.289
47.5626 7.896 0.287
47.5831 8.104 0.291
47.6036 9.083 0.308
47.6240 10.719 0.334
47.6445 10.469 0.330
47.6649 10.229 0.326
47.6854 9.635 0.317
47.7059 9.667 0.317
47.7263 9.417 0.313
47.7468 10.104 0.324
47.7673 9.510 0.315
47.7877 9.458 0.314
47.8082 8.719 0.301
47.8286 7.885 0.287
47.8491 8.031 0.289
47.8696 7.438 0.278
47.8900 7.781 0.285
47.9105 7.073 0.271
47.9310 6.979 0.270
47.9514 6.896 0.268
47.9719 7.219 0.274
47.9923 7.021 0.270
48.0128 6.677 0.264
48.0333 7.094 0.272
48.0537 6.333 0.257
48.0742 6.510 0.260
48.0947 6.427 0.259
48.1151 6.271 0.256
48.1356 6.625 0.263
48.1560 6.313 0.256
48.1765 6.833 0.267
48.1970 6.281 0.256
48.2174 6.198 0.254
48.2379 6.792 0.266
48.2584 6.875 0.268
48.2788 7.000 0.270
48.2993 7.427 0.278
48.3198 7.594 0.281
48.3402 7.521 0.280
48.3607 7.583 0.281
48.3811 6.813 0.266
48.4016 6.917 0.268
48.4221 7.177 0.273
48.4425 7.521 0.280
48.4630 7.667 0.283
48.4835 7.490 0.279
48.5039 6.844 0.267
48.5244 7.000 0.270
48.5448 6.885 0.268
48.5653 6.719 0.265
48.5858 6.417 0.259
48.6062 7.167 0.273
48.6267 6.531 0.261
48.6472 7.156 0.273
48.6676 6.813 0.266
48.6881 8.021 0.289
48.7085 8.208 0.292
48.7290 7.552 0.280
48.7495 7.896 0.287
48.7699 7.135 0.273
48.7904 6.990 0.270
48.8109 7.396 0.278
48.8313 6.771 0.266
48.8518 6.521 0.261
48.8722 6.771 0.266
48.8927 6.781 0.266
48.9132 6.667 0.264
48.9336 6.125 0.253
48.9541 6.448 0.259
48.9746 6.115 0.252
48.9950 6.229 0.255
49.0155 6.281 0.256
49.0359 6.271 0.256
49.0564 6.260 0.255
49.0769 6.198 0.254
49.0973 6.167 0.253
49.1178 6.188 0.254
49.1383 6.448 0.259
49.1587 5.917 0.248
49.1792 6.042 0.251
49.1997 5.760 0.245
49.2201 6.677 0.264
49.2406 6.552 0.261
49.2610 5.885 0.248
49.2815 5.833 0.247
49.3020 6.375 0.258
49.3224 6.146 0.253
49.3429 6.271 0.256
49.3634 6.177 0.254
49.3838 6.406 0.258
49.4043 6.375 0.258
49.4247 6.354 0.257
49.4452 6.333 0.257
49.4657 6.625 0.263
49.4861 6.906 0.268
49.5066 6.469 0.260
49.5271 6.677 0.264
49.5475 7.250 0.275
49.5680 6.927 0.269
49.5884 6.833 0.267
49.6089 6.844 0.267
49.6294 7.083 0.272
49.6498 7.281 0.275
49.6703 7.792 0.285
49.6908 8.000 0.289
49.7112 7.542 0.280
49.7317 8.240 0.293
49.7521 8.635 0.300
49.7726 9.760 0.319
49.7931 11.083 0.340
49.8135 11.740 0.350
49.8340 13.813 0.379
49.8545 14.958 0.395
49.8749 16.177 0.411
49.8954 15.625 0.403
49.9158 13.802 0.379
49.9363 13.667 0.377
49.9568 13.948 0.381
49.9772 12.521 0.361
49.9977 12.896 0.367
50.0182 12.438 0.360
50.0386 11.583 0.347
50.0591 11.000 0.339
50.0796 10.521 0.331
50.1000 9.781 0.319
50.1205 9.198 0.310
50.1409 9.771 0.319
50.1614 9.677 0.317
50.1819 10.094 0.324
50.2023 11.208 0.342
50.2228 9.958 0.322
50.2433 9.031 0.307
50.2637 8.719 0.301
50.2842 9.333 0.312
50.3046 9.375 0.313
50.3251 9.302 0.311
50.3456 8.385 0.296
50.3660 8.344 0.295
50.3865 7.688 0.283
50.4070 7.969 0.288
50.4274 7.156 0.273
50.4479 6.844 0.267
50.4683 6.729 0.265
50.4888 6.885 0.268
50.5093 6.969 0.269
50.5297 6.438 0.259
50.5502 6.542 0.261
50.5707 6.615 0.262
50.5911 6.656 0.263
50.6116 6.281 0.256
50.6320 6.396 0.258
50.6525 6.281 0.256
50.6730 6.448 0.259
50.6934 6.156 0.253
50.7139 6.531 0.261
50.7344 6.250 0.255
50.7548 6.396 0.258
50.7753 6.615 0.262
50.7958 6.250 0.255
50.8162 6.417 0.259
50.8367 6.042 0.251
50.8571 6.219 0.255
50.8776 6.552 0.261
50.8981 6.573 0.262
50.9185 6.396 0.258
50.9390 6.698 0.264
50.9595 6.698 0.264
50.9799 7.427 0.278
51.0004 7.792 0.285
51.0208 8.344 0.295
51.0413 7.583 0.281
51.0618 7.104 0.272
51.0822 6.729 0.265
51.1027 6.875 0.268
51.1232 6.844 0.267
51.1436 7.302 0.276
51.1641 7.135 0.273
51.1845 7.438 0.278
51.2050 7.104 0.272
51.2255 6.802 0.266
51.2459 6.479 0.260
51.2664 7.167 0.273
51.2869 6.677 0.264
51.3073 6.927 0.269
51.3278 7.177 0.273
51.3482 6.604 0.262
51.3687 6.875 0.268
51.3892 7.354 0.277
51.4096 6.760 0.265
51.4301 6.354 0.257
51.4506 6.573 0.262
51.4710 7.031 0.271
51.4915 7.073 0.271
51.5119 6.260 0.255
51.5324 7.010 0.270
51.5529 6.208 0.254
51.5733 6.417 0.259
51.5938 6.031 0.251
51.6143 6.969 0.269
51.6347 6.792 0.266
51.6552 6.938 0.269
51.6757 7.448 0.279
51.6961 7.010 0.270
51.7166 7.854 0.286
51.7370 7.833 0.286
51.7575 6.542 0.261
51.7780 6.938 0.269
51.7984 6.938 0.269
51.8189 7.115 0.272
51.8394 6.604 0.262
51.8598 6.792 0.266
51.8803 7.042 0.271
51.9007 6.500 0.260
51.9212 6.552 0.261
51.9417 6.188 0.254
51.9621 6.375 0.258
51.9826 5.990 0.250
52.0031 6.396 0.258
52.0235 5.948 0.249
52.0440 6.010 0.250
52.0644 5.813 0.246
52.0849 5.781 0.245
52.1054 5.719 0.244
52.1258 5.646 0.243
52.1463 6.042 0.251
52.1668 5.979 0.250
52.1872 5.479 0.239
52.2077 5.688 0.243
52.2281 5.708 0.244
52.2486 5.219 0.233
52.2691 5.604 0.242
52.2895 6.094 0.252
52.3100 5.760 0.245
52.3305 5.677 0.243
52.3509 5.615 0.242
52.3714 6.010 0.250
52.3918 5.635 0.242
52.4123 5.885 0.248
52.4328 6.063 0.251
52.4532 5.917 0.248
52.4737 5.802 0.246
52.4942 5.438 0.238
52.5146 5.885 0.248
52.5351 5.708 0.244
52.5556 6.083 0.252
52.5760 5.771 0.245
52.5965 5.323 0.235
52.6169 5.750 0.245
52.6374 5.417 0.238
52.6579 5.698 0.244
52.6783 5.479 0.239
52.6988 5.458 0.238
52.7193 5.521 0.240
52.7397 5.385 0.237
52.7602 5.604 0.242
52.7806 5.344 0.236
52.8011 5.875 0.247
52.8216 5.313 0.235
52.8420 5.250 0.234
52.8625 5.667 0.243
52.8830 5.406 0.237
52.9034 5.094 0.230
52.9239 5.406 0.237
52.9443 5.396 0.237
52.9648 5.219 0.233
52.9853 5.729 0.244
53.0057 5.896 0.248
53.0262 5.552 0.240
53.0467 5.729 0.244
53.0671 5.990 0.250
53.0876 5.531 0.240
53.1080 6.104 0.252
53.1285 5.969 0.249
53.1490 5.656 0.243
53.1694 5.552 0.240
53.1899 5.563 0.241
53.2104 6.219 0.255
53.2308 5.948 0.249
53.2513 5.594 0.241
53.2717 5.104 0.231
53.2922 5.292 0.235
53.3127 5.771 0.245
53.3331 5.990 0.250
53.3536 5.396 0.237
53.3741 5.427 0.238
53.3945 5.396 0.237
53.4150 5.573 0.241
53.4355 5.510 0.240
53.4559 5.594 0.241
53.4764 5.448 0.238
53.4968 5.313 0.235
53.5173 4.927 0.227
53.5378 5.906 0.248
53.5582 5.302 0.235
53.5787 4.979 0.228
53.5992 4.938 0.227
53.6196 5.240 0.234
53.6401 4.823 0.224
53.6605 5.302 0.235
53.6810 5.625 0.242
53.7015 5.698 0.244
53.7219 5.813 0.246
53.7424 5.344 0.236
53.7629 5.563 0.241
53.7833 5.146 0.232
53.8038 5.115 0.231
53.8242 5.146 0.232
53.8447 5.198 0.233
53.8652 5.302 0.235
53.8856 5.031 0.229
53.9061 5.323 0.235
53.9266 5.229 0.233
53.9470 5.125 0.231
53.9675 5.438 0.238
53.9879 5.479 0.239
54.0084 5.063 0.230
54.0289 5.302 0.235
54.0493 5.750 0.245
54.0698 5.708 0.244
54.0903 5.479 0.239
54.1107 5.708 0.244
54.1312 5.854 0.247
54.1516 5.948 0.249
54.1721 5.510 0.240
54.1926 5.802 0.246
54.2130 5.625 0.242
54.2335 5.729 0.244
54.2540 5.833 0.247
54.2744 5.740 0.245
54.2949 5.521 0.240
54.3154 6.333 0.257
54.3358 5.760 0.245
54.3563 5.438 0.238
54.3767 5.104 0.231
54.3972 5.646 0.243
54.4177 5.490 0.239
54.4381 5.479 0.239
54.4586 5.208 0.233
54.4791 5.167 0.232
54.4995 5.333 0.236
54.5200 5.594 0.241
54.5404 5.500 0.239
54.5609 5.271 0.234
54.5814 5.313 0.235
54.6018 5.531 0.240
54.6223 5.240 0.234
54.6428 5.188 0.232
54.6632 5.479 0.239
54.6837 5.375 0.237
54.7041 5.052 0.229
54.7246 5.323 0.235
54.7451 5.490 0.239
54.7655 5.010 0.228
54.7860 5.063 0.230
54.8065 5.073 0.230
54.8269 5.688 0.243
54.8474 5.229 0.233
54.8678 5.740 0.245
54.8883 5.844 0.247
54.9088 5.729 0.244
54.9292 5.677 0.243
54.9497 6.375 0.258
54.9702 6.760 0.265
54.9906 6.458 0.259
55.0111 6.365 0.257
55.0316 7.031 0.271
55.0520 7.510 0.280
55.0725 8.052 0.290
55.0929 9.396 0.313
55.1134 10.167 0.325
55.1339 12.104 0.355
55.1543 15.229 0.398
55.1748 15.542 0.402
55.1953 14.708 0.391
55.2157 14.375 0.387
55.2362 13.427 0.374
55.2566 12.490 0.361
55.2771 12.156 0.356
55.2976 11.802 0.351
55.3180 11.896 0.352
55.3385 11.677 0.349
55.3590 11.396 0.345
55.3794 9.635 0.317
55.3999 9.083 0.308
55.4203 8.396 0.296
55.4408 8.042 0.289
55.4613 7.219 0.274
55.4817 6.781 0.266
55.5022 6.813 0.266
55.5227 5.875 0.247
55.5431 6.531 0.261
55.5636 6.375 0.258
55.5840 5.583 0.241
55.6045 5.823 0.246
55.6250 6.063 0.251
55.6454 6.396 0.258
55.6659 5.708 0.244
55.6864 6.156 0.253
55.7068 5.521 0.240
55.7273 5.542 0.240
55.7477 5.813 0.246
55.7682 5.875 0.247
55.7887 6.063 0.251
55.8091 5.625 0.242
55.8296 7.031 0.271
55.8501 5.760 0.245
55.8705 6.906 0.268
55.8910 6.969 0.269
55.9115 6.729 0.265
55.9319 6.844 0.267
55.9524 6.635 0.263
55.9728 6.875 0.268
55.9933 6.542 0.261
56.0138 6.906 0.268
56.0342 7.510 0.280
56.0547 7.219 0.274
56.0752 7.667 0.283
56.0956 7.927 0.287
56.1161 8.167 0.292
56.1365 8.771 0.302
56.1570 10.010 0.323
56.1775 10.010 0.323
56.1979 11.250 0.342
56.2184 11.698 0.349
56.2389 11.323 0.343
56.2593 9.344 0.312
56.2798 8.646 0.300
56.3002 9.635 0.317
56.3207 9.344 0.312
56.3412 9.208 0.310
56.3616 9.594 0.316
56.3821 8.688 0.301
56.4026 7.781 0.285
56.4230 7.667 0.283
56.4435 7.156 0.273
56.4639 6.885 0.268
56.4844 6.458 0.259
56.5049 6.271 0.256
56.5253 5.917 0.248
56.5458 5.563 0.241
56.5663 5.729 0.244
56.5867 5.677 0.243
56.6072 5.292 0.235
56.6276 5.667 0.243
56.6481 5.802 0.246
56.6686 5.750 0.245
56.6890 5.885 0.248
56.7095 5.833 0.247
56.7300 5.563 0.241
56.7504 4.792 0.223
56.7709 5.354 0.236
56.7914 5.083 0.230
56.8118 5.063 0.230
56.8323 5.625 0.242
56.8527 5.375 0.237
56.8732 5.031 0.229
56.8937 5.240 0.234
56.9141 5.229 0.233
56.9346 5.042 0.229
56.9551 5.167 0.232
56.9755 5.083 0.230
56.9960 5.156 0.232
57.0164 4.865 0.225
57.0369 4.833 0.224
57.0574 4.708 0.221
57.0778 5.208 0.233
57.0983 4.896 0.226
57.1188 4.844 0.225
57.1392 5.031 0.229
57.1597 4.781 0.223
57.1801 5.031 0.229
57.2006 4.958 0.227
57.2211 4.656 0.220
57.2415 5.229 0.233
57.2620 4.844 0.225
57.2825 5.240 0.234
57.3029 4.885 0.226
57.3234 5.458 0.238
57.3438 5.156 0.232
57.3643 5.323 0.235
57.3848 5.365 0.236
57.4052 5.115 0.231
57.4257 4.802 0.224
57.4462 4.844 0.225
57.4666 5.000 0.228
57.4871 4.906 0.226
57.5075 5.125 0.231
57.5280 5.208 0.233
57.5485 5.167 0.232
57.5689 5.823 0.246
57.5894 4.938 0.227
57.6099 5.365 0.236
57.6303 5.406 0.237
57.6508 5.281 0.235
57.6713 5.469 0.239
57.6917 5.750 0.245
57.7122 5.667 0.243
57.7326 5.521 0.240
57.7531 5.979 0.250
57.7736 5.802 0.246
57.7940 5.896 0.248
57.8145 6.073 0.252
57.8350 6.250 0.255
57.8554 6.427 0.259
57.8759 7.240 0.275
57.8963 7.531 0.280
57.9168 7.469 0.279
57.9373 8.417 0.296
57.9577 8.385 0.296
57.9782 8.135 0.291
57.9987 8.188 0.292
58.0191 7.854 0.286
58.0396 7.698 0.283
58.0600 7.875 0.286
58.0805 7.552 0.280
58.1010 7.042 0.271
58.1214 7.531 0.280
58.1419 6.979 0.270
58.1624 7.000 0.270
58.1828 6.229 0.255
58.2033 6.396 0.258
58.2237 6.365 0.257
58.2442 5.542 0.240
58.2647 5.615 0.242
58.2851 5.688 0.243
58.3056 5.573 0.241
58.3261 5.198 0.233
58.3465 5.302 0.235
58.3670 5.396 0.237
58.3874 5.490 0.239
58.4079 5.573 0.241
58.4284 5.167 0.232
58.4488 5.292 0.235
58.4693 5.167 0.232
58.4898 5.250 0.234
58.5102 5.500 0.239
58.5307 5.115 0.231
58.5512 5.396 0.237
58.5716 5.146 0.232
58.5921 5.635 0.242
58.6125 5.688 0.243
58.6330 5.135 0.231
58.6535 5.750 0.245
58.6739 5.458 0.238
58.6944 5.344 0.236
58.7149 5.406 0.237
58.7353 5.396 0.237
58.7558 5.271 0.234
58.7762 5.573 0.241
58.7967 4.990 0.228
58.8172 5.510 0.240
58.8376 5.427 0.238
58.8581 5.188 0.232
58.8786 5.365 0.236
58.8990 5.229 0.233
58.9195 5.302 0.235
58.9399 5.521 0.240
58.9604 5.156 0.232
58.9809 5.625 0.242
59.0013 5.281 0.235
59.0218 5.385 0.237
59.0423 5.375 0.237
59.0627 5.719 0.244
59.0832 6.073 0.252
59.1036 6.115 0.252
59.1241 6.656 0.263
59.1446 6.677 0.264
59.1650 7.104 0.272
59.1855 6.927 0.269
59.2060 7.792 0.285
59.2264 7.688 0.283
59.2469 7.688 0.283
59.2674 7.521 0.280
59.2878 7.094 0.272
59.3083 6.802 0.266
59.3287 7.031 0.271
59.3492 6.646 0.263
59.3697 6.979 0.270
59.3901 7.365 0.277
59.4106 6.823 0.267
59.4311 6.448 0.259
59.4515 5.823 0.246
59.4720 5.833 0.247
59.4924 5.521 0.240
59.5129 5.417 0.238
59.5334 5.469 0.239
59.5538 5.531 0.240
59.5743 5.854 0.247
59.5948 5.854 0.247
59.6152 5.198 0.233
59.6357 5.250 0.234
59.6561 5.385 0.237
59.6766 5.083 0.230
59.6971 5.146 0.232
59.7175 5.250 0.234
59.7380 5.313 0.235
59.7585 5.385 0.237
59.7789 5.406 0.237
59.7994 5.635 0.242
59.8198 6.083 0.252
59.8403 6.396 0.258
59.8608 7.073 0.271
59.8812 7.542 0.280
59.9017 7.229 0.274
59.9222 7.833 0.286
59.9426 7.229 0.274
59.9631 6.583 0.262
59.9835 6.573 0.262
60.0040 6.281 0.256
60.0245 6.333 0.257
60.0449 6.240 0.255
60.0654 6.417 0.259
60.0859 6.552 0.261
60.1063 6.365 0.257
60.1268 6.427 0.259
60.1473 5.281 0.235
60.1677 5.323 0.235
60.1882 5.188 0.232
60.2086 4.635 0.220
60.2291 5.250 0.234
60.2496 5.156 0.232
60.2700 5.000 0.228
60.2905 4.896 0.226
60.3110 4.500 0.217
60.3314 4.677 0.221
60.3519 4.781 0.223
60.3723 4.458 0.216
60.3928 4.563 0.218
60.4133 5.104 0.231
60.4337 4.656 0.220
60.4542 4.708 0.221
60.4747 4.646 0.220
60.4951 4.583 0.219
60.5156 4.896 0.226
60.5360 4.865 0.225
60.5565 4.833 0.224
60.5770 4.594 0.219
60.5974 4.948 0.227
60.6179 4.875 0.225
60.6384 4.750 0.222
60.6588 4.458 0.216
60.6793 4.802 0.224
60.6997 4.292 0.211
60.7202 4.938 0.227
60.7407 4.625 0.219
60.7611 4.781 0.223
60.7816 4.625 0.219
60.8021 5.083 0.230
60.8225 4.427 0.215
60.8430 4.646 0.220
60.8634 4.719 0.222
60.8839 4.729 0.222
60.9044 5.000 0.228
60.9248 4.990 0.228
60.9453 4.729 0.222
60.9658 4.771 0.223
60.9862 5.031 0.229
61.0067 4.865 0.225
61.0272 4.875 0.225
61.0476 4.740 0.222
61.0681 4.844 0.225
61.0885 5.052 0.229
61.1090 4.406 0.214
61.1295 4.563 0.218
61.1499 5.135 0.231
61.1704 4.438 0.215
61.1909 4.896 0.226
61.2113 4.906 0.226
61.2318 4.604 0.219
61.2522 4.667 0.220
61.2727 4.646 0.220
61.2932 4.854 0.225
61.3136 4.625 0.219
61.3341 4.729 0.222
61.3546 4.885 0.226
61.3750 4.563 0.218
61.3955 4.719 0.222
61.4159 4.771 0.223
61.4364 4.458 0.216
61.4569 4.906 0.226
61.4773 4.333 0.212
61.4978 4.323 0.212
61.5183 4.688 0.221
61.5387 4.385 0.214
61.5592 4.615 0.219
61.5796 4.385 0.214
61.6001 4.552 0.218
61.6206 4.833 0.224
61.6410 4.604 0.219
61.6615 4.760 0.223
61.6820 4.490 0.216
61.7024 4.573 0.218
61.7229 4.677 0.221
61.7433 4.417 0.214
61.7638 4.573 0.218
61.7843 4.667 0.220
61.8047 4.375 0.213
61.8252 4.583 0.219
61.8457 4.156 0.208
61.8661 4.302 0.212
61.8866 4.302 0.212
61.9071 4.438 0.215
61.9275 4.375 0.213
61.9480 4.604 0.219
61.9684 4.646 0.220
61.9889 4.458 0.216
62.0094 4.896 0.226
62.0298 4.198 0.209
62.0503 5.115 0.231
62.0708 5.000 0.228
62.0912 4.969 0.228
62.1117 5.031 0.229
62.1321 5.198 0.233
62.1526 5.417 0.238
62.1731 5.625 0.242
62.1935 5.396 0.237
62.2140 5.104 0.231
62.2345 5.115 0.231
62.2549 5.250 0.234
62.2754 5.125 0.231
62.2958 5.302 0.235
62.3163 5.292 0.235
62.3368 5.302 0.235
62.3572 5.052 0.229
62.3777 5.208 0.233
62.3982 5.250 0.234
62.4186 4.698 0.221
62.4391 4.854 0.225
62.4595 4.667 0.220
62.4800 4.938 0.227
62.5005 4.281 0.211
62.5209 4.354 0.213
62.5414 4.458 0.216
62.5619 4.073 0.206
62.5823 4.635 0.220
62.6028 4.365 0.213
62.6232 4.240 0.210
62.6437 4.448 0.215
62.6642 4.438 0.215
62.6846 4.240 0.210
62.7051 4.260 0.211
62.7256 4.427 0.215
62.7460 4.531 0.217
62.7665 4.542 0.218
62.7870 4.521 0.217
62.8074 4.365 0.213
62.8279 4.521 0.217
62.8483 4.844 0.225
62.8688 4.573 0.218
62.8893 4.906 0.226
62.9097 4.635 0.220
62.9302 4.802 0.224
62.9507 4.615 0.219
62.9711 4.573 0.218
62.9916 4.531 0.217
63.0120 4.813 0.224
63.0325 4.104 0.207
63.0530 4.552 0.218
63.0734 4.500 0.217
63.0939 4.365 0.213
63.1144 4.469 0.216
63.1348 4.750 0.222
63.1553 4.677 0.221
63.1757 4.281 0.211
63.1962 4.646 0.220
63.2167 4.750 0.222
63.2371 4.990 0.228
63.2576 4.594 0.219
63.2781 4.792 0.223
63.2985 4.656 0.220
63.3190 4.500 0.217
63.3394 5.031 0.229
63.3599 4.542 0.218
63.3804 4.958 0.227
63.4008 4.573 0.218
63.4213 4.865 0.225
63.4418 5.229 0.233
63.4622 5.042 0.229
63.4827 4.698 0.221
63.5032 5.000 0.228
63.5236 4.948 0.227
63.5441 4.708 0.221
63.5645 4.427 0.215
63.5850 4.896 0.226
63.6055 5.240 0.234
63.6259 5.000 0.228
63.6464 5.031 0.229
63.6669 4.865 0.225
63.6873 4.740 0.222
63.7078 5.052 0.229
63.7282 4.219 0.210
63.7487 4.885 0.226
63.7692 5.167 0.232
63.7896 5.271 0.234
63.8101 5.250 0.234
63.8306 5.083 0.230
63.8510 5.083 0.230
63.8715 4.625 0.219
63.8919 4.833 0.224
63.9124 5.385 0.237
63.9329 4.646 0.220
63.9533 5.094 0.230
63.9738 5.125 0.231
63.9943 4.490 0.216
64.0147 5.000 0.228
64.0352 5.281 0.235
64.0556 5.688 0.243
64.0761 5.573 0.241
64.0966 5.427 0.238
64.1170 5.250 0.234
64.1375 5.406 0.237
64.1580 5.240 0.234
64.1784 4.917 0.226
64.1989 5.250 0.234
64.2193 5.677 0.243
64.2398 5.333 0.236
64.2603 4.969 0.228
64.2807 5.229 0.233
64.3012 5.354 0.236
64.3217 5.083 0.230
64.3421 5.323 0.235
64.3626 5.427 0.238
64.3831 5.229 0.233
64.4035 4.865 0.225
64.4240 5.469 0.239
64.4444 5.271 0.234
64.4649 5.385 0.237
64.4854 6.115 0.252
64.5058 6.031 0.251
64.5263 6.094 0.252
64.5468 5.740 0.245
64.5672 6.438 0.259
64.5877 7.052 0.271
64.6081 6.865 0.267
64.6286 7.833 0.286
64.6491 8.198 0.292
64.6695 7.698 0.283
64.6900 8.240 0.293
64.7105 7.010 0.270
64.7309 7.260 0.275
64.7514 6.760 0.265
64.7718 7.365 0.277
64.7923 6.625 0.263
64.8128 6.250 0.255
64.8332 6.917 0.268
64.8537 6.240 0.255
64.8742 6.417 0.259
64.8946 5.896 0.248
64.9151 5.656 0.243
64.9355 5.917 0.248
64.9560 5.677 0.243
64.9765 5.458 0.238
64.9969 4.865 0.225
65.0174 5.000 0.228
65.0379 5.302 0.235
65.0583 4.750 0.222
65.0788 5.031 0.229
65.0992 4.813 0.224
65.1197 4.969 0.228
65.1402 4.844 0.225
65.1606 4.833 0.224
65.1811 4.917 0.226
65.2016 4.844 0.225
65.2220 4.458 0.216
65.2425 4.969 0.228
65.2630 4.865 0.225
65.2834 4.802 0.224
65.3039 4.385 0.214
65.3243 4.510 0.217
65.3448 4.531 0.217
65.3653 4.792 0.223
65.3857 4.906 0.226
65.4062 5.260 0.234
65.4267 4.969 0.228
65.4471 4.979 0.228
65.4676 5.094 0.230
65.4880 5.125 0.231
65.5085 5.396 0.237
65.5290 5.302 0.235
65.5494 5.604 0.242
65.5699 5.823 0.246
65.5904 6.219 0.255
65.6108 5.760 0.245
65.6313 5.458 0.238
65.6517 5.333 0.236
65.6722 5.135 0.231
65.6927 5.177 0.232
65.7131 4.865 0.225
65.7336 5.229 0.233
65.7541 5.271 0.234
65.7745 5.125 0.231
65.7950 5.198 0.233
65.8154 5.094 0.230
65.8359 4.740 0.222
65.8564 4.865 0.225
65.8768 4.885 0.226
65.8973 4.844 0.225
65.9178 4.677 0.221
65.9382 4.354 0.213
65.9587 4.865 0.225
65.9791 4.198 0.209
65.9996 4.250 0.210
66.0201 4.083 0.206
66.0405 4.302 0.212
66.0610 4.438 0.215
66.0815 4.573 0.218
66.1019 4.479 0.216
66.1224 4.354 0.213
66.1429 4.208 0.209
66.1633 4.573 0.218
66.1838 4.240 0.210
66.2042 4.510 0.217
66.2247 4.094 0.207
66.2452 4.552 0.218
66.2656 4.521 0.217
66.2861 4.135 0.208
66.3066 3.906 0.202
66.3270 4.594 0.219
66.3475 4.073 0.206
66.3679 4.094 0.207
66.3884 4.333 0.212
66.4089 3.990 0.204
66.4293 4.167 0.208
66.4498 4.219 0.210
66.4703 4.448 0.215
66.4907 4.750 0.222
66.5112 4.313 0.212
66.5316 4.417 0.214
66.5521 4.229 0.210
66.5726 4.510 0.217
66.5930 4.354 0.213
66.6135 4.500 0.217
66.6340 4.208 0.209
66.6544 4.375 0.213
66.6749 4.531 0.217
66.6953 4.427 0.215
66.7158 4.479 0.216
66.7363 4.135 0.208
66.7567 4.115 0.207
66.7772 4.635 0.220
66.7977 4.271 0.211
66.8181 4.563 0.218
66.8386 4.750 0.222
66.8590 4.635 0.220
66.8795 4.458 0.216
66.9000 4.594 0.219
66.9204 4.667 0.220
66.9409 4.396 0.214
66.9614 4.344 0.213
66.9818 4.635 0.220
67.0023 4.917 0.226
67.0228 5.260 0.234
67.0432 4.979 0.228
67.0637 5.688 0.243
67.0841 5.615 0.242
67.1046 6.302 0.256
67.1251 6.313 0.256
67.1455 6.688 0.264
67.1660 6.948 0.269
67.1865 7.750 0.284
67.2069 7.865 0.286
67.2274 7.563 0.281
67.2478 7.198 0.274
67.2683 7.771 0.285
67.2888 7.031 0.271
67.3092 6.729 0.265
67.3297 6.594 0.262
67.3502 6.406 0.258
67.3706 6.198 0.254
67.3911 6.958 0.269
67.4115 6.854 0.267
67.4320 6.573 0.262
67.4525 5.719 0.244
67.4729 5.896 0.248
67.4934 5.438 0.238
67.5139 4.938 0.227
67.5343 5.177 0.232
67.5548 5.135 0.231
67.5752 5.396 0.237
67.5957 5.344 0.236
67.6162 4.906 0.226
67.6366 4.833 0.224
67.6571 4.594 0.219
67.6776 4.906 0.226
67.6980 4.719 0.222
67.7185 4.906 0.226
67.7389 4.896 0.226
67.7594 4.938 0.227
67.7799 4.823 0.224
67.8003 4.917 0.226
67.8208 5.083 0.230
67.8413 4.552 0.218
67.8617 4.313 0.212
67.8822 4.552 0.218
67.9027 4.719 0.222
67.9231 4.802 0.224
67.9436 4.677 0.221
67.9640 4.521 0.217
67.9845 4.729 0.222
68.0050 4.875 0.225
68.0254 4.792 0.223
68.0459 4.708 0.221
68.0664 4.375 0.213
68.0868 4.885 0.226
68.1073 4.531 0.217
68.1277 4.698 0.221
68.1482 4.615 0.219
68.1687 4.375 0.213
68.1891 4.875 0.225
68.2096 4.938 0.227
68.2301 4.917 0.226
68.2505 5.281 0.235
68.2710 5.448 0.238
68.2914 5.333 0.236
68.3119 5.313 0.235
68.3324 5.563 0.241
68.3528 6.198 0.254
68.3733 6.052 0.251
68.3938 5.313 0.235
68.4142 5.458 0.238
68.4347 5.292 0.235
68.4551 4.823 0.224
68.4756 5.448 0.238
68.4961 5.281 0.235
68.5165 5.167 0.232
68.5370 5.240 0.234
68.5575 5.573 0.241
68.5779 5.417 0.238
68.5984 4.813 0.224
68.6189 4.813 0.224
68.6393 4.229 0.210
68.6598 4.688 0.221
68.6802 4.427 0.215
68.7007 4.125 0.207
68.7212 4.323 0.212
68.7416 4.521 0.217
68.7621 3.979 0.204
68.7826 3.823 0.200
68.8030 4.271 0.211
68.8235 3.979 0.204
68.8439 3.990 0.204
68.8644 4.135 0.208
68.8849 4.104 0.207
68.9053 4.396 0.214
68.9258 4.896 0.226
68.9463 3.938 0.203
68.9667 3.979 0.204
68.9872 4.438 0.215
69.0076 4.792 0.223
69.0281 4.458 0.216
69.0486 4.854 0.225
69.0690 5.104 0.231
69.0895 5.198 0.233
69.1100 4.948 0.227
69.1304 5.198 0.233
69.1509 5.396 0.237
69.1713 4.792 0.223
69.1918 4.969 0.228
69.2123 5.375 0.237
69.2327 5.198 0.233
69.2532 5.573 0.241
69.2737 5.813 0.246
69.2941 5.781 0.245
69.3146 5.344 0.236
69.3350 4.604 0.219
69.3555 4.938 0.227
69.3760 4.719 0.222
69.3964 4.760 0.223
69.4169 4.656 0.220
69.4374 4.771 0.223
69.4578 5.000 0.228
69.4783 5.104 0.231
69.4988 4.365 0.213
69.5192 4.521 0.217
69.5397 3.760 0.198
69.5601 4.042 0.205
69.5806 4.281 0.211
69.6011 4.219 0.210
69.6215 3.781 0.198
69.6420 4.125 0.207
69.6625 4.240 0.210
69.6829 4.052 0.205
69.7034 4.010 0.204
69.7238 4.021 0.205
69.7443 4.292 0.211
69.7648 4.292 0.211
69.7852 3.781 0.198
69.8057 3.833 0.200
69.8262 3.948 0.203
69.8466 3.948 0.203
69.8671 3.854 0.200
69.8875 3.708 0.197
69.9080 4.073 0.206
69.9285 3.875 0.201
69.9489 3.792 0.199
69.9694 3.792 0.199
69.9899 3.917 0.202
70.0103 4.083 0.206
70.0308 3.865 0.201
70.0512 3.833 0.200
70.0717 4.125 0.207
70.0922 3.990 0.204
70.1126 3.948 0.203
70.1331 3.729 0.197
70.1536 3.750 0.198
70.1740 3.760 0.198
70.1945 3.990 0.204
70.2149 3.958 0.203
70.2354 4.135 0.208
70.2559 3.677 0.196
70.2763 4.156 0.208
70.2968 3.802 0.199
70.3173 4.146 0.208
70.3377 3.708 0.197
70.3582 4.135 0.208
70.3787 4.229 0.210
70.3991 3.938 0.203
70.4196 4.250 0.210
70.4400 3.698 0.196
70.4605 3.656 0.195
70.4810 4.000 0.204
70.5014 3.531 0.192
70.5219 3.927 0.202
70.5424 3.771 0.198
70.5628 3.906 0.202
70.5833 3.906 0.202
70.6037 3.646 0.195
70.6242 3.771 0.198
70.6447 3.635 0.195
70.6651 4.031 0.205
70.6856 3.781 0.198
70.7061 3.865 0.201
70.7265 4.083 0.206
70.7470 3.823 0.200
70.7674 4.188 0.209
70.7879 3.927 0.202
70.8084 3.573 0.193
70.8288 3.802 0.199
70.8493 4.198 0.209
70.8698 3.604 0.194
70.8902 3.625 0.194
70.9107 3.177 0.182
70.9311 3.854 0.200
70.9516 3.656 0.195
70.9721 3.917 0.202
70.9925 3.708 0.197
71.0130 3.823 0.200
71.0335 4.052 0.205
71.0539 3.479 0.190
71.0744 3.479 0.190
71.0948 3.833 0.200
71.1153 4.167 0.208
71.1358 3.938 0.203
71.1562 3.865 0.201
71.1767 4.250 0.210
71.1972 4.083 0.206
71.2176 3.719 0.197
71.2381 4.146 0.208
71.2586 3.948 0.203
71.2790 3.740 0.197
71.2995 3.844 0.200
71.3199 3.719 0.197
71.3404 3.927 0.202
71.3609 3.969 0.203
71.3813 3.948 0.203
71.4018 3.677 0.196
71.4223 3.740 0.197
71.4427 3.719 0.197
71.4632 3.313 0.186
71.4836 3.510 0.191
71.5041 4.104 0.207
71.5246 3.948 0.203
71.5450 3.781 0.198
71.5655 3.667 0.195
71.5860 3.823 0.200
71.6064 3.792 0.199
71.6269 3.677 0.196
71.6473 3.938 0.203
71.6678 3.760 0.198
71.6883 3.698 0.196
71.7087 3.729 0.197
71.7292 3.750 0.198
71.7497 3.333 0.186
71.7701 3.927 0.202
71.7906 3.552 0.192
71.8110 3.729 0.197
71.8315 3.688 0.196
71.8520 3.615 0.194
71.8724 3.646 0.195
71.8929 3.625 0.194
71.9134 3.615 0.194
71.9338 3.615 0.194
71.9543 3.875 0.201
71.9747 3.833 0.200
71.9952 3.729 0.197
72.0157 3.490 0.191
72.0361 3.490 0.191
72.0566 3.448 0.190
72.0771 3.396 0.188
72.0975 3.448 0.190
72.1180 3.490 0.191
72.1385 3.521 0.192
72.1589 3.458 0.190
72.1794 3.500 0.191
72.1998 3.708 0.197
72.2203 3.979 0.204
72.2408 4.052 0.205
72.2612 3.573 0.193
72.2817 3.594 0.193
72.3022 3.781 0.198
72.3226 3.531 0.192
72.3431 3.813 0.199
72.3635 3.990 0.204
72.3840 3.781 0.198
72.4045 3.729 0.197
72.4249 3.615 0.194
72.4454 3.729 0.197
72.4659 3.448 0.190
72.4863 3.729 0.197
72.5068 3.542 0.192
72.5272 3.604 0.194
72.5477 3.625 0.194
72.5682 3.625 0.194
72.5886 3.542 0.192
72.6091 3.760 0.198
72.6296 3.635 0.195
72.6500 3.708 0.197
72.6705 3.729 0.197
72.6909 3.833 0.200
72.7114 4.021 0.205
72.7319 3.406 0.188
72.7523 3.823 0.200
72.7728 3.865 0.201
72.7933 3.802 0.199
72.8137 4.156 0.208
72.8342 3.854 0.200
72.8547 3.958 0.203
72.8751 3.885 0.201
72.8956 3.792 0.199
72.9160 3.563 0.193
72.9365 4.042 0.205
72.9570 3.948 0.203
72.9774 3.771 0.198
72.9979 3.583 0.193
73.0184 3.250 0.184
73.0388 3.594 0.193
73.0593 3.969 0.203
73.0797 3.833 0.200
73.1002 3.792 0.199
73.1207 3.500 0.191
73.1411 3.448 0.190
73.1616 3.781 0.198
73.1821 3.594 0.193
73.2025 3.563 0.193
73.2230 3.531 0.192
73.2434 3.531 0.192
73.2639 3.792 0.199
73.2844 3.583 0.193
73.3048 3.427 0.189
73.3253 3.729 0.197
73.3458 3.438 0.189
73.3662 3.510 0.191
73.3867 3.750 0.198
73.4071 3.313 0.186
73.4276 3.302 0.185
73.4481 3.708 0.197
73.4685 3.458 0.190
73.4890 3.385 0.188
73.5095 3.104 0.180
73.5299 3.500 0.191
73.5504 3.615 0.194
73.5708 3.583 0.193
73.5913 3.667 0.195
73.6118 3.844 0.200
73.6322 3.427 0.189
73.6527 3.552 0.192
73.6732 3.323 0.186
73.6936 3.542 0.192
73.7141 3.417 0.189
73.7346 3.219 0.183
73.7550 3.500 0.191
73.7755 3.500 0.191
73.7959 3.313 0.186
73.8164 3.354 0.187
73.8369 3.563 0.193
73.8573 3.635 0.195
73.8778 3.188 0.182
73.8983 3.448 0.190
73.9187 3.490 0.191
73.9392 3.740 0.197
73.9596 3.958 0.203
73.9801 3.750 0.198
74.0006 3.479 0.190
74.0210 3.729 0.197
74.0415 3.542 0.192
74.0620 4.052 0.205
74.0824 3.708 0.197
74.1029 3.615 0.194
74.1233 3.677 0.196
74.1438 3.417 0.189
74.1643 3.396 0.188
74.1847 3.844 0.200
74.2052 3.396 0.188
74.2257 3.708 0.197
74.2461 3.792 0.199
74.2666 3.250 0.184
74.2870 3.771 0.198
74.3075 3.552 0.192
74.3280 3.313 0.186
74.3484 3.542 0.192
74.3689 3.521 0.192
74.3894 3.729 0.197
74.4098 3.333 0.186
74.4303 3.510 0.191
74.4507 3.500 0.191
74.4712 3.188 0.182
74.4917 3.688 0.196
74.5121 3.240 0.184
74.5326 3.625 0.194
74.5531 3.500 0.191
74.5735 3.104 0.180
74.5940 2.948 0.175
74.6145 3.208 0.183
74.6349 3.719 0.197
74.6554 3.604 0.194
74.6758 3.198 0.183
74.6963 3.531 0.192
74.7168 3.094 0.180
74.7372 3.490 0.191
74.7577 3.250 0.184
74.7782 2.906 0.174
74.7986 3.542 0.192
74.8191 3.542 0.192
74.8395 3.000 0.177
74.8600 3.260 0.184
74.8805 3.323 0.186
74.9009 3.156 0.181
74.9214 3.615 0.194
74.9419 3.042 0.178
74.9623 3.115 0.180
74.9828 3.521 0.192
75.0032 3.510 0.191
75.0237 3.656 0.195
75.0442 3.219 0.183
75.0646 3.542 0.192
75.0851 3.552 0.192
75.1056 3.656 0.195
75.1260 3.281 0.185
75.1465 2.969 0.176
75.1669 3.583 0.193
75.1874 3.510 0.191
75.2079 3.573 0.193
75.2283 3.406 0.188
75.2488 3.302 0.185
75.2693 3.750 0.198
75.2897 3.750 0.198
75.3102 3.125 0.180
75.3306 3.479 0.190
75.3511 3.552 0.192
75.3716 3.625 0.194
75.3920 3.167 0.182
75.4125 3.323 0.186
75.4330 3.344 0.187
75.4534 3.594 0.193
75.4739 3.490 0.191
75.4944 3.500 0.191
75.5148 3.406 0.188
75.5353 3.313 0.186
75.5557 3.625 0.194
75.5762 3.792 0.199
75.5967 3.698 0.196
75.6171 3.635 0.195
75.6376 3.646 0.195
75.6581 3.563 0.193
75.6785 4.021 0.205
75.6990 3.510 0.191
75.7194 3.917 0.202
75.7399 4.104 0.207
75.7604 4.594 0.219
75.7808 4.146 0.208
75.8013 4.802 0.224
75.8218 4.583 0.219
75.8422 4.635 0.220
75.8627 4.260 0.211
75.8831 4.708 0.221
75.9036 4.531 0.217
75.9241 4.646 0.220
75.9445 4.542 0.218
75.9650 4.396 0.214
75.9855 3.990 0.204
76.0059 3.865 0.201
76.0264 4.229 0.210
76.0468 4.333 0.212
76.0673 4.042 0.205
76.0878 4.021 0.205
76.1082 4.344 0.213
76.1287 4.365 0.213
76.1492 4.021 0.205
76.1696 4.000 0.204
76.1901 3.771 0.198
76.2105 3.490 0.191
76.2310 3.802 0.199
76.2515 4.021 0.205
76.2719 3.677 0.196
76.2924 3.885 0.201
76.3129 4.000 0.204
76.3333 3.656 0.195
76.3538 3.521 0.192
76.3743 3.479 0.190
76.3947 3.594 0.193
76.4152 3.688 0.196
76.4356 3.479 0.190
76.4561 3.542 0.192
76.4766 3.375 0.188
76.4970 3.458 0.190
76.5175 3.458 0.190
76.5380 3.552 0.192
76.5584 3.354 0.187
76.5789 3.354 0.187
76.5993 3.177 0.182
76.6198 3.771 0.198
76.6403 3.531 0.192
76.6607 3.219 0.183
76.6812 3.771 0.198
76.7017 3.583 0.193
76.7221 3.510 0.191
76.7426 3.469 0.190
76.7630 3.490 0.191
76.7835 3.458 0.190
76.8040 3.583 0.193
76.8244 3.469 0.190
76.8449 3.656 0.195
76.8654 3.156 0.181
76.8858 3.458 0.190
76.9063 3.469 0.190
76.9267 2.969 0.176
76.9472 3.333 0.186
76.9677 3.448 0.190
76.9881 3.635 0.195
77.0086 3.198 0.183
77.0291 3.417 0.189
77.0495 3.396 0.188
77.0700 3.229 0.183
77.0905 3.313 0.186
77.1109 3.063 0.179
77.1314 3.510 0.191
77.1518 3.542 0.192
77.1723 3.219 0.183
77.1928 3.490 0.191
77.2132 3.104 0.180
77.2337 3.719 0.197
77.2542 3.438 0.189
77.2746 3.510 0.191
77.2951 3.458 0.190
77.3155 3.594 0.193
77.3360 3.344 0.187
77.3565 3.344 0.187
77.3769 3.646 0.195
77.3974 3.458 0.190
77.4179 3.479 0.190
77.4383 3.885 0.201
77.4588 3.854 0.200
77.4792 3.813 0.199
77.4997 3.719 0.197
77.5202 3.917 0.202
77.5406 4.323 0.212
77.5611 3.990 0.204
77.5816 4.063 0.206
77.6020 4.125 0.207
77.6225 4.042 0.205
77.6429 3.844 0.200
77.6634 3.938 0.203
77.6839 4.260 0.211
77.7043 4.188 0.209
77.7248 4.219 0.210
77.7453 4.240 0.210
77.7657 3.896 0.201
77.7862 3.667 0.195
77.8066 4.229 0.210
77.8271 4.281 0.211
77.8476 4.281 0.211
77.8680 4.250 0.210
77.8885 3.979 0.204
77.9090 3.823 0.200
77.9294 3.813 0.199
77.9499 3.760 0.198
77.9704 3.885 0.201
77.9908 3.917 0.202
78.0113 3.521 0.192
78.0317 3.844 0.200
78.0522 3.646 0.195
78.0727 3.844 0.200
78.0931 3.635 0.195
78.1136 3.760 0.198
78.1341 3.583 0.193
78.1545 3.615 0.194
78.1750 3.365 0.187
78.1954 3.375 0.188
78.2159 3.740 0.197
78.2364 3.740 0.197
78.2568 3.542 0.192
78.2773 3.667 0.195
78.2978 3.594 0.193
78.3182 3.531 0.192
78.3387 3.573 0.193
78.3591 3.448 0.190
78.3796 3.604 0.194
78.4001 3.729 0.197
78.4205 3.573 0.193
78.4410 3.750 0.198
78.4615 3.844 0.200
78.4819 3.552 0.192
78.5024 3.438 0.189
78.5228 3.865 0.201
78.5433 3.667 0.195
78.5638 3.156 0.181
78.5842 3.740 0.197
78.6047 3.208 0.183
78.6252 3.698 0.196
78.6456 3.792 0.199
78.6661 3.781 0.198
78.6865 3.875 0.201
78.7070 3.542 0.192
78.7275 4.031 0.205
78.7479 3.635 0.195
78.7684 3.698 0.196
78.7889 3.417 0.189
78.8093 3.385 0.188
78.8298 3.646 0.195
78.8503 3.323 0.186
78.8707 3.281 0.185
78.8912 3.417 0.189
78.9116 3.677 0.196
78.9321 3.719 0.197
78.9526 3.875 0.201
78.9730 3.646 0.195
78.9935 3.667 0.195
79.0140 3.969 0.203
79.0344 3.760 0.198
79.0549 3.906 0.202
79.0753 3.760 0.198
79.0958 3.552 0.192
79.1163 4.010 0.204
79.1367 3.854 0.200
79.1572 3.656 0.195
79.1777 3.865 0.201
79.1981 3.521 0.192
79.2186 3.510 0.191
79.2390 3.365 0.187
79.2595 3.604 0.194
79.2800 3.708 0.197
79.3004 3.479 0.190
79.3209 3.260 0.184
79.3414 3.458 0.190
79.3618 3.438 0.189
79.3823 3.625 0.194
79.4027 3.406 0.188
79.4232 3.531 0.192
79.4437 3.771 0.198
79.4641 3.385 0.188
79.4846 3.500 0.191
79.5051 3.958 0.203
79.5255 3.823 0.200
79.5460 3.927 0.202
79.5664 4.000 0.204
79.5869 4.177 0.209
79.6074 4.167 0.208
79.6278 4.042 0.205
79.6483 4.063 0.206
79.6688 3.865 0.201
79.6892 4.052 0.205
79.7097 3.875 0.201
79.7302 3.906 0.202
79.7506 3.802 0.199
79.7711 3.823 0.200
79.7915 3.813 0.199
79.8120 3.646 0.195
79.8325 3.688 0.196
79.8529 3.615 0.194
79.8734 3.781 0.198
79.8939 3.594 0.193
79.9143 3.479 0.190
79.9348 3.615 0.194
79.9552 3.375 0.188
79.9757 3.427 0.189
79.9962 3.469 0.190
