'Id: "" Comment: "" Operator: "Lab Manager" Anode: "Cu" Scantype: "Locked Coupled" TimePerStep: "96" X: "0" Y: "0" Z: "0" 
5.0000 24.625 0.506
5.0205 22.802 0.487
5.0409 22.729 0.487
5.0614 23.292 0.493
5.0819 22.823 0.488
5.1023 23.396 0.494
5.1228 23.854 0.498
5.1432 23.302 0.493
5.1637 23.229 0.492
5.1842 23.573 0.496
5.2046 23.198 0.492
5.2251 22.552 0.485
5.2456 23.510 0.495
5.2660 22.750 0.487
5.2865 22.385 0.483
5.3069 22.552 0.485
5.3274 22.896 0.488
5.3479 22.417 0.483
5.3683 22.615 0.485
5.3888 22.938 0.489
5.4093 21.865 0.477
5.4297 22.385 0.483
5.4502 22.688 0.486
5.4706 22.281 0.482
5.4911 22.875 0.488
5.5116 22.938 0.489
5.5320 23.188 0.491
5.5525 22.771 0.487
5.5730 22.979 0.489
5.5934 22.813 0.487
5.6139 23.594 0.496
5.6343 23.448 0.494
5.6548 23.354 0.493
5.6753 23.448 0.494
5.6957 23.625 0.496
5.7162 24.146 0.502
5.7367 23.198 0.492
5.7571 23.927 0.499
5.7776 23.990 0.500
5.7980 24.260 0.503
5.8185 25.073 0.511
5.8390 23.677 0.497
5.8594 25.000 0.510
5.8799 25.625 0.517
5.9004 27.531 0.536
5.9208 27.760 0.538
5.9413 27.500 0.535
5.9618 29.542 0.555
5.9822 31.552 0.573
6.0027 33.365 0.590
6.0231 34.667 0.601
6.0436 35.958 0.612
6.0641 38.990 0.637
6.0845 41.573 0.658
6.1050 44.042 0.677
6.1255 48.135 0.708
6.1459 51.813 0.735
6.1664 54.740 0.755
6.1868 58.063 0.778
6.2073 62.010 0.804
6.2278 64.490 0.820
6.2482 62.677 0.808
6.2687 62.844 0.809
6.2892 57.990 0.777
6.3096 57.469 0.774
6.3301 52.740 0.741
6.3505 48.594 0.711
6.3710 46.771 0.698
6.3915 43.177 0.671
6.4119 39.146 0.639
6.4324 36.281 0.615
6.4529 34.750 0.602
6.4733 33.667 0.592
6.4938 32.229 0.579
6.5142 29.896 0.558
6.5347 29.833 0.557
6.5552 28.229 0.542
6.5756 26.958 0.530
6.5961 27.052 0.531
6.6166 26.521 0.526
6.6370 27.073 0.531
6.6575 25.854 0.519
6.6779 25.896 0.519
6.6984 25.698 0.517
6.7189 26.063 0.521
6.7393 24.729 0.508
6.7598 25.250 0.513
6.7803 23.969 0.500
6.8007 24.802 0.508
6.8212 24.292 0.503
6.8417 23.802 0.498
6.8621 24.417 0.504
6.8826 24.604 0.506
6.9030 25.490 0.515
6.9235 24.177 0.502
6.9440 25.823 0.519
6.9644 26.156 0.522
6.9849 26.521 0.526
7.0054 28.146 0.541
7.0258 30.385 0.563
7.0463 33.083 0.587
7.0667 39.031 0.638
7.0872 46.625 0.697
7.1077 54.167 0.751
7.1281 50.740 0.727
7.1486 43.885 0.676
7.1691 37.979 0.629
7.1895 33.500 0.591
7.2100 29.167 0.551
7.2304 27.542 0.536
7.2509 24.052 0.501
7.2714 24.031 0.500
7.2918 22.458 0.484
7.3123 23.521 0.495
7.3328 22.625 0.485
7.3532 22.344 0.482
7.3737 22.115 0.480
7.3941 22.885 0.488
7.4146 21.969 0.478
7.4351 20.865 0.466
7.4555 20.875 0.466
7.4760 21.510 0.473
7.4965 21.646 0.475
7.5169 20.740 0.465
7.5374 20.354 0.460
7.5579 21.479 0.473
7.5783 22.000 0.479
7.5988 20.333 0.460
7.6192 21.135 0.469
7.6397 21.219 0.470
7.6602 20.229 0.459
7.6806 20.146 0.458
7.7011 21.385 0.472
7.7216 20.938 0.467
7.7420 20.542 0.463
7.7625 21.208 0.470
7.7829 21.010 0.468
7.8034 20.125 0.458
7.8239 20.292 0.460
7.8443 20.625 0.464
7.8648 19.896 0.455
7.8853 20.583 0.463
7.9057 21.073 0.469
7.9262 20.594 0.463
7.9466 20.344 0.460
7.9671 20.625 0.464
7.9876 20.760 0.465
8.0080 20.229 0.459
8.0285 21.135 0.469
8.0490 20.031 0.457
8.0694 21.281 0.471
8.0899 21.146 0.469
8.1103 20.688 0.464
8.1308 20.073 0.457
8.1513 20.094 0.458
8.1717 21.677 0.475
8.1922 20.427 0.461
8.2127 22.354 0.483
8.2331 22.625 0.485
8.2536 22.313 0.482
8.2740 21.823 0.477
8.2945 22.219 0.481
8.3150 20.656 0.464
8.3354 21.219 0.470
8.3559 20.719 0.465
8.3764 20.438 0.461
8.3968 21.010 0.468
8.4173 20.271 0.460
8.4378 20.594 0.463
8.4582 20.729 0.465
8.4787 20.948 0.467
8.4991 19.740 0.453
8.5196 20.979 0.467
8.5401 20.448 0.462
8.5605 20.354 0.460
8.5810 20.542 0.463
8.6015 20.469 0.462
8.6219 21.417 0.472
8.6424 20.583 0.463
8.6628 20.625 0.464
8.6833 21.531 0.474
8.7038 21.458 0.473
8.7242 21.958 0.478
8.7447 21.875 0.477
8.7652 21.594 0.474
8.7856 23.135 0.491
8.8061 23.854 0.498
8.8265 24.615 0.506
8.8470 25.604 0.516
8.8675 26.771 0.528
8.8879 27.833 0.538
8.9084 29.125 0.551
8.9289 31.354 0.571
8.9493 33.125 0.587
8.9698 37.552 0.625
8.9902 42.583 0.666
9.0107 52.729 0.741
9.0312 67.552 0.839
9.0516 94.990 0.995
9.0721 129.479 1.161
9.0926 176.646 1.356
9.1130 210.563 1.481
9.1335 176.927 1.358
9.1539 104.760 1.045
9.1744 63.094 0.811
9.1949 46.375 0.695
9.2153 43.146 0.670
9.2358 46.292 0.694
9.2563 55.656 0.761
9.2767 69.760 0.852
9.2972 84.313 0.937
9.3177 89.875 0.968
9.3381 86.396 0.949
9.3586 72.458 0.869
9.3790 64.958 0.823
9.3995 56.823 0.769
9.4200 52.115 0.737
9.4404 51.229 0.731
9.4609 50.688 0.727
9.4814 49.823 0.720
9.5018 49.323 0.717
9.5223 51.510 0.733
9.5427 52.156 0.737
9.5632 52.313 0.738
9.5837 54.250 0.752
9.6041 55.802 0.762
9.6246 60.656 0.795
9.6451 61.156 0.798
9.6655 61.583 0.801
9.6860 65.313 0.825
9.7064 70.073 0.854
9.7269 71.125 0.861
9.7474 73.177 0.873
9.7678 79.208 0.908
9.7883 86.927 0.952
9.8088 97.885 1.010
9.8292 116.896 1.103
9.8497 156.885 1.278
9.8701 212.719 1.489
9.8906 277.375 1.700
9.9111 332.781 1.862
9.9315 287.719 1.731
9.9520 185.031 1.388
9.9725 102.875 1.035
9.9929 68.906 0.847
10.0134 56.813 0.769
10.0338 48.531 0.711
10.0543 42.781 0.668
10.0748 39.510 0.642
10.0952 37.073 0.621
10.1157 34.010 0.595
10.1362 33.250 0.589
10.1566 31.167 0.570
10.1771 29.115 0.551
10.1976 27.010 0.530
10.2180 26.531 0.526
10.2385 26.302 0.523
10.2589 25.552 0.516
10.2794 24.875 0.509
10.2999 24.063 0.501
10.3203 24.042 0.500
10.3408 23.604 0.496
10.3613 22.948 0.489
10.3817 23.635 0.496
10.4022 22.760 0.487
10.4226 22.510 0.484
10.4431 22.458 0.484
10.4636 22.229 0.481
10.4840 22.719 0.486
10.5045 21.760 0.476
10.5250 22.969 0.489
10.5454 21.656 0.475
10.5659 22.771 0.487
10.5863 22.583 0.485
10.6068 22.208 0.481
10.6273 21.354 0.472
10.6477 22.208 0.481
10.6682 20.833 0.466
10.6887 21.167 0.470
10.7091 20.708 0.464
10.7296 20.729 0.465
10.7500 20.333 0.460
10.7705 19.771 0.454
10.7910 20.479 0.462
10.8114 21.021 0.468
10.8319 19.458 0.450
10.8524 20.229 0.459
10.8728 20.146 0.458
10.8933 21.021 0.468
10.9137 20.906 0.467
10.9342 19.979 0.456
10.9547 20.344 0.460
10.9751 20.573 0.463
10.9956 19.583 0.452
11.0161 20.135 0.458
11.0365 19.490 0.451
11.0570 19.635 0.452
11.0775 18.698 0.441
11.0979 19.656 0.452
11.1184 18.854 0.443
11.1388 19.177 0.447
11.1593 17.885 0.432
11.1798 18.094 0.434
11.2002 18.208 0.436
11.2207 18.635 0.441
11.2412 18.094 0.434
11.2616 18.740 0.442
11.2821 17.302 0.425
11.3025 17.271 0.424
11.3230 17.656 0.429
11.3435 17.865 0.431
11.3639 17.396 0.426
11.3844 16.969 0.420
11.4049 17.625 0.428
11.4253 17.240 0.424
11.4458 17.448 0.426
11.4662 17.438 0.426
11.4867 17.969 0.433
11.5072 17.042 0.421
11.5276 16.948 0.420
11.5481 16.594 0.416
11.5686 17.042 0.421
11.5890 17.188 0.423
11.6095 16.760 0.418
11.6299 17.552 0.428
11.6504 16.938 0.420
11.6709 17.771 0.430
11.6913 17.635 0.429
11.7118 17.375 0.425
11.7323 17.469 0.427
11.7527 17.479 0.427
11.7732 17.063 0.422
11.7937 17.635 0.429
11.8141 17.656 0.429
11.8346 17.823 0.431
11.8550 17.375 0.425
11.8755 17.344 0.425
11.8960 17.365 0.425
11.9164 18.885 0.444
11.9369 18.052 0.434
11.9574 19.281 0.448
11.9778 18.865 0.443
11.9983 19.042 0.445
12.0187 20.438 0.461
12.0392 20.438 0.461
12.0597 20.510 0.462
12.0801 22.188 0.481
12.1006 23.615 0.496
12.1211 23.896 0.499
12.1415 25.896 0.519
12.1620 27.198 0.532
12.1824 29.781 0.557
12.2029 31.656 0.574
12.2234 35.177 0.605
12.2438 39.125 0.638
12.2643 43.729 0.675
12.2848 47.573 0.704
12.3052 50.188 0.723
12.3257 54.427 0.753
12.3461 56.354 0.766
12.3666 58.219 0.779
12.3871 56.240 0.765
12.4075 52.490 0.739
12.4280 49.344 0.717
12.4485 45.490 0.688
12.4689 44.208 0.679
12.4894 40.406 0.649
12.5098 38.771 0.636
12.5303 35.240 0.606
12.5508 33.542 0.591
12.5712 31.250 0.571
12.5917 28.302 0.543
12.6122 25.740 0.518
12.6326 25.781 0.518
12.6531 24.396 0.504
12.6736 22.885 0.488
12.6940 20.927 0.467
12.7145 20.646 0.464
12.7349 19.667 0.453
12.7554 19.490 0.451
12.7759 18.302 0.437
12.7963 17.948 0.432
12.8168 17.500 0.427
12.8373 16.885 0.419
12.8577 17.104 0.422
12.8782 16.802 0.418
12.8986 16.406 0.413
12.9191 15.917 0.407
12.9396 15.938 0.407
12.9600 16.375 0.413
12.9805 15.177 0.398
13.0010 15.010 0.395
13.0214 15.313 0.399
13.0419 14.167 0.384
13.0623 15.042 0.396
13.0828 13.479 0.375
13.1033 14.354 0.387
13.1237 14.125 0.384
13.1442 14.229 0.385
13.1647 14.510 0.389
13.1851 13.646 0.377
13.2056 13.719 0.378
13.2260 14.583 0.390
13.2465 14.052 0.383
13.2670 14.542 0.389
13.2874 13.958 0.381
13.3079 13.438 0.374
13.3284 13.479 0.375
13.3488 13.740 0.378
13.3693 13.094 0.369
13.3897 13.667 0.377
13.4102 14.375 0.387
13.4307 13.729 0.378
13.4511 13.438 0.374
13.4716 13.490 0.375
13.4921 13.531 0.375
13.5125 12.719 0.364
13.5330 13.083 0.369
13.5535 13.094 0.369
13.5739 12.719 0.364
13.5944 12.594 0.362
13.6148 12.833 0.366
13.6353 12.708 0.364
13.6558 12.865 0.366
13.6762 12.510 0.361
13.6967 12.604 0.362
13.7172 12.802 0.365
13.7376 12.594 0.362
13.7581 12.771 0.365
13.7785 12.385 0.359
13.7990 12.427 0.360
13.8195 13.313 0.372
13.8399 12.260 0.357
13.8604 12.219 0.357
13.8809 12.854 0.366
13.9013 13.146 0.370
13.9218 13.354 0.373
13.9422 12.656 0.363
13.9627 12.469 0.360
13.9832 12.656 0.363
14.0036 12.667 0.363
14.0241 12.531 0.361
14.0446 13.250 0.372
14.0650 12.906 0.367
14.0855 13.635 0.377
14.1059 13.802 0.379
14.1264 14.677 0.391
14.1469 14.813 0.393
14.1673 16.208 0.411
14.1878 16.833 0.419
14.2083 17.781 0.430
14.2287 17.708 0.429
14.2492 16.208 0.411
14.2696 14.906 0.394
14.2901 13.760 0.379
14.3106 13.146 0.370
14.3310 13.615 0.377
14.3515 12.896 0.367
14.3720 12.990 0.368
14.3924 12.063 0.354
14.4129 11.958 0.353
14.4334 12.208 0.357
14.4538 12.198 0.356
14.4743 11.229 0.342
14.4947 12.427 0.360
14.5152 11.604 0.348
14.5357 11.896 0.352
14.5561 11.917 0.352
14.5766 11.969 0.353
14.5971 11.344 0.344
14.6175 11.521 0.346
14.6380 11.594 0.348
14.6584 11.146 0.341
14.6789 10.490 0.331
14.6994 11.250 0.342
14.7198 10.938 0.338
14.7403 11.292 0.343
14.7608 11.115 0.340
14.7812 11.656 0.348
14.8017 10.938 0.338
14.8221 10.948 0.338
14.8426 11.271 0.343
14.8631 11.167 0.341
14.8835 10.969 0.338
14.9040 11.115 0.340
14.9245 11.302 0.343
14.9449 10.927 0.337
14.9654 10.948 0.338
14.9858 10.875 0.337
15.0063 10.552 0.332
15.0268 10.885 0.337
15.0472 10.813 0.336
15.0677 11.656 0.348
15.0882 10.688 0.334
15.1086 10.750 0.335
15.1291 10.885 0.337
15.1495 11.198 0.342
15.1700 11.802 0.351
15.1905 11.021 0.339
15.2109 11.260 0.342
15.2314 12.417 0.360
15.2519 11.885 0.352
15.2723 12.313 0.358
15.2928 12.031 0.354
15.3133 13.042 0.369
15.3337 13.323 0.373
15.3542 14.135 0.384
15.3746 14.823 0.393
15.3951 15.833 0.406
15.4156 14.958 0.395
15.4360 13.677 0.377
15.4565 13.615 0.377
15.4770 13.052 0.369
15.4974 12.281 0.358
15.5179 12.594 0.362
15.5383 12.885 0.366
15.5588 12.729 0.364
15.5793 12.906 0.367
15.5997 13.969 0.381
15.6202 13.813 0.379
15.6407 15.146 0.397
15.6611 16.531 0.415
15.6816 19.240 0.448
15.7020 24.563 0.506
15.7225 32.698 0.584
15.7430 49.188 0.716
15.7634 75.719 0.888
15.7839 93.521 0.987
15.8044 88.635 0.961
15.8248 66.885 0.835
15.8453 42.760 0.667
15.8657 25.354 0.514
15.8862 18.927 0.444
15.9067 15.010 0.395
15.9271 14.646 0.391
15.9476 13.594 0.376
15.9681 13.479 0.375
15.9885 13.781 0.379
16.0090 13.000 0.368
16.0295 12.323 0.358
16.0499 12.490 0.361
16.0704 12.115 0.355
16.0908 11.823 0.351
16.1113 12.365 0.359
16.1318 11.271 0.343
16.1522 11.646 0.348
16.1727 11.750 0.350
16.1932 11.490 0.346
16.2136 11.844 0.351
16.2341 11.563 0.347
16.2545 11.313 0.343
16.2750 11.885 0.352
16.2955 11.354 0.344
16.3159 12.563 0.362
16.3364 11.927 0.352
16.3569 11.583 0.347
16.3773 12.417 0.360
16.3978 13.052 0.369
16.4182 13.323 0.373
16.4387 12.938 0.367
16.4592 13.385 0.373
16.4796 13.771 0.379
16.5001 13.417 0.374
16.5206 14.302 0.386
16.5410 13.656 0.377
16.5615 14.552 0.389
16.5819 14.031 0.382
16.6024 13.448 0.374
16.6229 12.969 0.368
16.6433 12.365 0.359
16.6638 12.865 0.366
16.6843 12.635 0.363
16.7047 11.948 0.353
16.7252 11.958 0.353
16.7456 12.354 0.359
16.7661 11.979 0.353
16.7866 11.813 0.351
16.8070 11.771 0.350
16.8275 11.260 0.342
16.8480 10.906 0.337
16.8684 11.292 0.343
16.8889 10.969 0.338
16.9094 11.417 0.345
16.9298 11.823 0.351
16.9503 11.031 0.339
16.9707 11.156 0.341
16.9912 11.438 0.345
17.0117 11.250 0.342
17.0321 11.469 0.346
17.0526 11.625 0.348
17.0731 11.302 0.343
17.0935 11.552 0.347
17.1140 11.042 0.339
17.1344 11.219 0.342
17.1549 12.115 0.355
17.1754 10.823 0.336
17.1958 11.302 0.343
17.2163 11.917 0.352
17.2368 11.510 0.346
17.2572 11.865 0.352
17.2777 11.740 0.350
17.2981 12.198 0.356
17.3186 11.729 0.350
17.3391 12.083 0.355
17.3595 12.792 0.365
17.3800 12.104 0.355
17.4005 12.063 0.354
17.4209 12.583 0.362
17.4414 11.917 0.352
17.4618 12.677 0.363
17.4823 13.021 0.368
17.5028 12.260 0.357
17.5232 13.198 0.371
17.5437 12.979 0.368
17.5642 12.333 0.358
17.5846 12.740 0.364
17.6051 12.906 0.367
17.6255 12.833 0.366
17.6460 12.969 0.368
17.6665 13.167 0.370
17.6869 14.073 0.383
17.7074 13.677 0.377
17.7279 14.521 0.389
17.7483 15.698 0.404
17.7688 17.510 0.427
17.7893 20.708 0.464
17.8097 24.865 0.509
17.8302 27.427 0.535
17.8506 26.458 0.525
17.8711 23.854 0.498
17.8916 20.917 0.467
17.9120 18.188 0.435
17.9325 16.385 0.413
17.9530 15.135 0.397
17.9734 14.688 0.391
17.9939 15.094 0.397
18.0143 14.031 0.382
18.0348 15.271 0.399
18.0553 14.854 0.393
18.0757 14.823 0.393
18.0962 14.458 0.388
18.1167 14.792 0.393
18.1371 15.594 0.403
18.1576 16.125 0.410
18.1780 16.281 0.412
18.1985 16.635 0.416
18.2190 17.313 0.425
18.2394 19.156 0.447
18.2599 19.750 0.454
18.2804 18.083 0.434
18.3008 17.896 0.432
18.3213 17.302 0.425
18.3417 15.583 0.403
18.3622 15.448 0.401
18.3827 16.458 0.414
18.4031 16.344 0.413
18.4236 15.906 0.407
18.4441 16.792 0.418
18.4645 17.729 0.430
18.4850 16.271 0.412
18.5054 18.313 0.437
18.5259 18.563 0.440
18.5464 19.115 0.446
18.5668 22.146 0.480
18.5873 24.698 0.507
18.6078 27.583 0.536
18.6282 30.125 0.560
18.6487 30.333 0.562
18.6692 29.208 0.552
18.6896 28.885 0.549
18.7101 26.875 0.529
18.7305 24.792 0.508
18.7510 24.073 0.501
18.7715 24.396 0.504
18.7919 25.135 0.512
18.8124 25.573 0.516
18.8329 29.927 0.558
18.8533 34.458 0.599
18.8738 42.094 0.662
18.8942 48.229 0.709
18.9147 42.646 0.667
18.9352 36.719 0.618
18.9556 30.073 0.560
18.9761 24.531 0.506
18.9966 21.500 0.473
19.0170 19.667 0.453
19.0375 19.250 0.448
19.0579 18.177 0.435
19.0784 18.021 0.433
19.0989 17.667 0.429
19.1193 16.615 0.416
19.1398 17.042 0.421
19.1603 17.229 0.424
19.1807 16.229 0.411
19.2012 16.688 0.417
19.2216 17.969 0.433
19.2421 16.500 0.415
19.2626 15.979 0.408
19.2830 16.844 0.419
19.3035 16.760 0.418
19.3240 16.823 0.419
19.3444 17.531 0.427
19.3649 17.771 0.430
19.3853 17.146 0.423
19.4058 17.052 0.421
19.4263 17.021 0.421
19.4467 16.927 0.420
19.4672 17.854 0.431
19.4877 18.396 0.438
19.5081 18.010 0.433
19.5286 18.479 0.439
19.5491 19.021 0.445
19.5695 19.250 0.448
19.5900 20.031 0.457
19.6104 21.490 0.473
19.6309 20.875 0.466
19.6514 22.042 0.479
19.6718 22.083 0.480
19.6923 22.010 0.479
19.7128 23.823 0.498
19.7332 24.927 0.510
19.7537 27.656 0.537
19.7741 33.677 0.592
19.7946 43.625 0.674
19.8151 58.906 0.783
19.8355 82.031 0.924
19.8560 104.656 1.044
19.8765 96.396 1.002
19.8969 67.958 0.841
19.9174 58.417 0.780
19.9378 36.042 0.613
19.9583 23.906 0.499
19.9788 21.448 0.473
19.9992 19.396 0.449
20.0197 18.271 0.436
20.0402 17.281 0.424
20.0606 16.969 0.420
20.0811 16.708 0.417
20.1015 16.781 0.418
20.1220 16.375 0.413
20.1425 15.365 0.400
20.1629 15.729 0.405
20.1834 15.490 0.402
20.2039 15.344 0.400
20.2243 15.135 0.397
20.2448 15.656 0.404
20.2653 14.563 0.389
20.2857 14.083 0.383
20.3062 14.000 0.382
20.3266 14.813 0.393
20.3471 14.188 0.384
20.3676 14.927 0.394
20.3880 14.177 0.384
20.4085 13.865 0.380
20.4290 13.896 0.380
20.4494 14.563 0.389
20.4699 14.229 0.385
20.4903 14.073 0.383
20.5108 13.948 0.381
20.5313 12.990 0.368
20.5517 13.781 0.379
20.5722 13.958 0.381
20.5927 13.594 0.376
20.6131 13.146 0.370
20.6336 12.604 0.362
20.6540 12.604 0.362
20.6745 13.219 0.371
20.6950 12.250 0.357
20.7154 12.781 0.365
20.7359 12.542 0.361
20.7564 12.063 0.354
20.7768 12.177 0.356
20.7973 11.771 0.350
20.8177 12.563 0.362
20.8382 11.833 0.351
20.8587 11.646 0.348
20.8791 11.958 0.353
20.8996 11.302 0.343
20.9201 11.604 0.348
20.9405 11.896 0.352
20.9610 12.073 0.355
20.9814 11.115 0.340
21.0019 11.677 0.349
21.0224 11.771 0.350
21.0428 11.552 0.347
21.0633 10.927 0.337
21.0838 11.490 0.346
21.1042 11.792 0.350
21.1247 11.625 0.348
21.1452 12.177 0.356
21.1656 11.063 0.339
21.1861 11.240 0.342
21.2065 12.615 0.362
21.2270 11.896 0.352
21.2475 13.104 0.369
21.2679 13.531 0.375
21.2884 14.271 0.386
21.3089 15.521 0.402
21.3293 16.625 0.416
21.3498 17.427 0.426
21.3702 17.750 0.430
21.3907 16.583 0.416
21.4112 16.052 0.409
21.4316 16.396 0.413
21.4521 15.010 0.395
21.4726 13.375 0.373
21.4930 13.000 0.368
21.5135 12.302 0.358
21.5339 12.198 0.356
21.5544 12.469 0.360
21.5749 11.865 0.352
21.5953 11.354 0.344
21.6158 11.229 0.342
21.6363 10.688 0.334
21.6567 10.521 0.331
21.6772 10.271 0.327
21.6976 10.323 0.328
21.7181 10.198 0.326
21.7386 10.104 0.324
21.7590 9.542 0.315
21.7795 10.552 0.332
21.8000 10.260 0.327
21.8204 10.521 0.331
21.8409 10.427 0.330
21.8613 10.427 0.330
21.8818 10.208 0.326
21.9023 10.354 0.328
21.9227 10.219 0.326
21.9432 10.552 0.332
21.9637 10.573 0.332
21.9841 10.896 0.337
22.0046 11.448 0.345
22.0251 11.823 0.351
22.0455 12.604 0.362
22.0660 13.542 0.376
22.0864 14.833 0.393
22.1069 14.938 0.394
22.1274 15.260 0.399
22.1478 15.719 0.405
22.1683 14.781 0.392
22.1888 15.396 0.400
22.2092 14.271 0.386
22.2297 13.615 0.377
22.2501 13.177 0.370
22.2706 11.927 0.352
22.2911 11.708 0.349
22.3115 11.333 0.344
22.3320 10.865 0.336
22.3525 11.000 0.339
22.3729 10.656 0.333
22.3934 10.438 0.330
22.4138 10.250 0.327
22.4343 10.438 0.330
22.4548 10.594 0.332
22.4752 10.260 0.327
22.4957 10.771 0.335
22.5162 11.323 0.343
22.5366 10.906 0.337
22.5571 10.479 0.330
22.5775 11.063 0.339
22.5980 11.448 0.345
22.6185 11.104 0.340
22.6389 10.698 0.334
22.6594 11.365 0.344
22.6799 10.865 0.336
22.7003 11.844 0.351
22.7208 10.792 0.335
22.7412 12.042 0.354
22.7617 11.979 0.353
22.7822 12.427 0.360
22.8026 12.865 0.366
22.8231 14.458 0.388
22.8436 17.302 0.425
22.8640 23.063 0.490
22.8845 32.875 0.585
22.9050 44.792 0.683
22.9254 48.885 0.714
22.9459 42.823 0.668
22.9663 37.260 0.623
22.9868 33.010 0.586
23.0073 23.177 0.491
23.0277 16.958 0.420
23.0482 13.906 0.381
23.0687 12.802 0.365
23.0891 11.604 0.348
23.1096 11.104 0.340
23.1300 11.344 0.344
23.1505 10.510 0.331
23.1710 10.427 0.330
23.1914 10.094 0.324
23.2119 10.063 0.324
23.2324 9.729 0.318
23.2528 10.073 0.324
23.2733 9.646 0.317
23.2937 9.323 0.312
23.3142 9.948 0.322
23.3347 9.948 0.322
23.3551 9.906 0.321
23.3756 8.896 0.304
23.3961 9.479 0.314
23.4165 9.333 0.312
23.4370 9.698 0.318
23.4574 9.531 0.315
23.4779 9.302 0.311
23.4984 9.427 0.313
23.5188 8.917 0.305
23.5393 9.771 0.319
23.5598 9.594 0.316
23.5802 9.740 0.319
23.6007 10.063 0.324
23.6211 10.323 0.328
23.6416 11.698 0.349
23.6621 12.344 0.359
23.6825 14.188 0.384
23.7030 15.000 0.395
23.7235 14.521 0.389
23.7439 14.229 0.385
23.7644 12.458 0.360
23.7849 12.354 0.359
23.8053 10.573 0.332
23.8258 10.490 0.331
23.8462 10.177 0.326
23.8667 10.698 0.334
23.8872 10.208 0.326
23.9076 10.469 0.330
23.9281 11.104 0.340
23.9486 11.333 0.344
23.9690 12.406 0.359
23.9895 11.688 0.349
24.0099 11.885 0.352
24.0304 12.271 0.358
24.0509 11.510 0.346
24.0713 10.844 0.336
24.0918 11.292 0.343
24.1123 10.865 0.336
24.1327 10.281 0.327
24.1532 12.208 0.357
24.1736 12.594 0.362
24.1941 13.719 0.378
24.2146 13.979 0.382
24.2350 12.833 0.366
24.2555 12.323 0.358
24.2760 11.354 0.344
24.2964 11.177 0.341
24.3169 10.281 0.327
24.3373 10.083 0.324
24.3578 10.802 0.335
24.3783 10.177 0.326
24.3987 9.875 0.321
24.4192 9.917 0.321
24.4397 9.823 0.320
24.4601 10.729 0.334
24.4806 10.396 0.329
24.5011 9.958 0.322
24.5215 11.219 0.342
24.5420 11.771 0.350
24.5624 11.677 0.349
24.5829 11.396 0.345
24.6034 11.073 0.340
24.6238 12.813 0.365
24.6443 13.479 0.375
24.6648 15.469 0.401
24.6852 17.708 0.429
24.7057 19.042 0.445
24.7261 17.719 0.430
24.7466 16.656 0.417
24.7671 15.615 0.403
24.7875 14.490 0.389
24.8080 13.313 0.372
24.8285 13.479 0.375
24.8489 13.313 0.372
24.8694 12.958 0.367
24.8898 13.719 0.378
24.9103 13.375 0.373
24.9308 12.688 0.364
24.9512 14.021 0.382
24.9717 14.031 0.382
24.9922 13.708 0.378
25.0126 14.125 0.384
25.0331 13.583 0.376
25.0535 13.552 0.376
25.0740 13.906 0.381
25.0945 13.885 0.380
25.1149 12.708 0.364
25.1354 13.188 0.371
25.1559 12.188 0.356
25.1763 12.865 0.366
25.1968 11.396 0.345
25.2172 11.490 0.346
25.2377 11.573 0.347
25.2582 11.260 0.342
25.2786 10.729 0.334
25.2991 10.708 0.334
25.3196 10.729 0.334
25.3400 10.885 0.337
25.3605 11.052 0.339
25.3810 10.469 0.330
25.4014 10.823 0.336
25.4219 10.531 0.331
25.4423 10.479 0.330
25.4628 10.927 0.337
25.4833 11.531 0.347
25.5037 12.094 0.355
25.5242 13.375 0.373
25.5447 16.490 0.414
25.5651 21.250 0.470
25.5856 26.677 0.527
25.6060 29.354 0.553
25.6265 26.302 0.523
25.6470 23.354 0.493
25.6674 20.885 0.466
25.6879 18.875 0.443
25.7084 14.229 0.385
25.7288 12.500 0.361
25.7493 11.479 0.346
25.7697 11.167 0.341
25.7902 10.677 0.333
25.8107 10.604 0.332
25.8311 9.969 0.322
25.8516 9.531 0.315
25.8721 9.927 0.322
25.8925 9.188 0.309
25.9130 10.500 0.331
25.9334 9.042 0.307
25.9539 9.115 0.308
25.9744 9.438 0.314
25.9948 9.229 0.310
26.0153 9.021 0.307
26.0358 9.333 0.312
26.0562 9.490 0.314
26.0767 9.531 0.315
26.0971 9.542 0.315
26.1176 8.875 0.304
26.1381 9.573 0.316
26.1585 10.167 0.325
26.1790 9.542 0.315
26.1995 9.000 0.306
26.2199 8.917 0.305
26.2404 9.656 0.317
26.2609 9.375 0.313
26.2813 9.292 0.311
26.3018 9.260 0.311
26.3222 9.458 0.314
26.3427 9.385 0.313
26.3632 9.198 0.310
26.3836 8.854 0.304
26.4041 9.854 0.320
26.4246 10.094 0.324
26.4450 9.615 0.316
26.4655 9.490 0.314
26.4859 9.906 0.321
26.5064 8.646 0.300
26.5269 9.094 0.308
26.5473 9.802 0.320
26.5678 8.760 0.302
26.5883 8.938 0.305
26.6087 9.521 0.315
26.6292 9.552 0.315
26.6496 9.219 0.310
26.6701 9.583 0.316
26.6906 9.063 0.307
26.7110 9.802 0.320
26.7315 9.573 0.316
26.7520 9.229 0.310
26.7724 9.427 0.313
26.7929 9.479 0.314
26.8133 9.542 0.315
26.8338 9.094 0.308
26.8543 9.115 0.308
26.8747 9.771 0.319
26.8952 9.135 0.308
26.9157 9.729 0.318
26.9361 9.771 0.319
26.9566 9.625 0.317
26.9770 10.125 0.325
26.9975 9.458 0.314
27.0180 9.844 0.320
27.0384 10.167 0.325
27.0589 10.438 0.330
27.0794 9.656 0.317
27.0998 9.990 0.323
27.1203 10.135 0.325
27.1408 10.479 0.330
27.1612 10.844 0.336
27.1817 11.479 0.346
27.2021 12.385 0.359
27.2226 12.885 0.366
27.2431 14.156 0.384
27.2635 14.052 0.383
27.2840 14.052 0.383
27.3045 13.823 0.379
27.3249 14.135 0.384
27.3454 14.385 0.387
27.3658 13.385 0.373
27.3863 13.698 0.378
27.4068 14.458 0.388
27.4272 15.656 0.404
27.4477 17.583 0.428
27.4682 22.010 0.479
27.4886 24.802 0.508
27.5091 25.948 0.520
27.5295 21.031 0.468
27.5500 18.594 0.440
27.5705 18.646 0.441
27.5909 15.969 0.408
27.6114 13.125 0.370
27.6319 12.240 0.357
27.6523 11.542 0.347
27.6728 10.760 0.335
27.6932 10.333 0.328
27.7137 9.792 0.319
27.7342 10.594 0.332
27.7546 10.146 0.325
27.7751 9.938 0.322
27.7956 10.156 0.325
27.8160 10.219 0.326
27.8365 9.688 0.318
27.8569 9.490 0.314
27.8774 9.667 0.317
27.8979 10.063 0.324
27.9183 9.333 0.312
27.9388 9.688 0.318
27.9593 8.740 0.302
27.9797 9.385 0.313
28.0002 8.885 0.304
28.0207 9.240 0.310
28.0411 9.115 0.308
28.0616 9.198 0.310
28.0820 9.427 0.313
28.1025 9.438 0.314
28.1230 9.625 0.317
28.1434 8.948 0.305
28.1639 9.625 0.317
28.1844 9.323 0.312
28.2048 9.219 0.310
28.2253 9.135 0.308
28.2457 8.771 0.302
28.2662 8.979 0.306
28.2867 9.083 0.308
28.3071 8.917 0.305
28.3276 9.156 0.309
28.3481 9.240 0.310
28.3685 8.719 0.301
28.3890 8.542 0.298
28.4094 9.198 0.310
28.4299 9.052 0.307
28.4504 9.250 0.310
28.4708 8.740 0.302
28.4913 8.760 0.302
28.5118 9.375 0.313
28.5322 9.615 0.316
28.5527 9.115 0.308
28.5731 9.635 0.317
28.5936 9.771 0.319
28.6141 9.615 0.316
28.6345 9.521 0.315
28.6550 10.167 0.325
28.6755 9.667 0.317
28.6959 10.271 0.327
28.7164 10.688 0.334
28.7368 11.156 0.341
28.7573 10.635 0.333
28.7778 10.667 0.333
28.7982 10.813 0.336
28.8187 10.917 0.337
28.8392 10.323 0.328
28.8596 9.583 0.316
28.8801 9.510 0.315
28.9006 9.823 0.320
28.9210 9.958 0.322
28.9415 9.792 0.319
28.9619 9.750 0.319
28.9824 9.479 0.314
29.0029 9.563 0.316
29.0233 9.167 0.309
29.0438 9.385 0.313
29.0643 9.615 0.316
29.0847 9.656 0.317
29.1052 9.625 0.317
29.1256 9.063 0.307
29.1461 9.635 0.317
29.1666 10.073 0.324
29.1870 9.229 0.310
29.2075 9.573 0.316
29.2280 9.010 0.306
29.2484 8.563 0.299
29.2689 8.042 0.289
29.2893 9.563 0.316
29.3098 9.417 0.313
29.3303 9.094 0.308
29.3507 9.490 0.314
29.3712 9.135 0.308
29.3917 9.542 0.315
29.4121 9.531 0.315
29.4326 9.323 0.312
29.4530 8.813 0.303
29.4735 9.542 0.315
29.4940 9.031 0.307
29.5144 10.052 0.324
29.5349 9.844 0.320
29.5554 11.240 0.342
29.5758 12.188 0.356
29.5963 12.698 0.364
29.6168 12.719 0.364
29.6372 11.375 0.344
29.6577 11.000 0.339
29.6781 11.094 0.340
29.6986 11.021 0.339
29.7191 9.708 0.318
29.7395 9.323 0.312
29.7600 9.698 0.318
29.7805 9.073 0.307
29.8009 8.417 0.296
29.8214 9.052 0.307
29.8418 8.802 0.303
29.8623 8.802 0.303
29.8828 8.740 0.302
29.9032 7.990 0.288
29.9237 8.885 0.304
29.9442 8.542 0.298
29.9646 8.604 0.299
29.9851 7.927 0.287
30.0055 8.521 0.298
30.0260 8.896 0.304
30.0465 8.844 0.304
30.0669 8.698 0.301
30.0874 8.365 0.295
30.1079 8.958 0.305
30.1283 8.667 0.300
30.1488 8.792 0.303
30.1692 8.510 0.298
30.1897 9.021 0.307
30.2102 9.146 0.309
30.2306 8.500 0.298
30.2511 8.802 0.303
30.2716 8.469 0.297
30.2920 8.688 0.301
30.3125 8.198 0.292
30.3329 8.281 0.294
30.3534 8.708 0.301
30.3739 8.375 0.295
30.3943 9.208 0.310
30.4148 8.844 0.304
30.4353 8.958 0.305
30.4557 8.740 0.302
30.4762 9.479 0.314
30.4967 9.021 0.307
30.5171 9.938 0.322
30.5376 9.688 0.318
30.5580 9.469 0.314
30.5785 10.156 0.325
30.5990 10.615 0.333
30.6194 10.375 0.329
30.6399 10.125 0.325
30.6604 10.063 0.324
30.6808 10.167 0.325
30.7013 11.448 0.345
30.7217 10.344 0.328
30.7422 10.635 0.333
30.7627 10.510 0.331
30.7831 10.948 0.338
30.8036 11.156 0.341
30.8241 10.875 0.337
30.8445 11.229 0.342
30.8650 10.698 0.334
30.8854 10.646 0.333
30.9059 10.125 0.325
30.9264 10.260 0.327
30.9468 11.104 0.340
30.9673 11.646 0.348
30.9878 12.646 0.363
31.0082 13.510 0.375
31.0287 14.604 0.390
31.0491 14.979 0.395
31.0696 14.615 0.390
31.0901 13.583 0.376
31.1105 13.948 0.381
31.1310 13.292 0.372
31.1515 12.104 0.355
31.1719 11.979 0.353
31.1924 11.010 0.339
31.2128 11.594 0.348
31.2333 11.344 0.344
31.2538 10.688 0.334
31.2742 11.448 0.345
31.2947 11.354 0.344
31.3152 11.438 0.345
31.3356 11.000 0.339
31.3561 10.792 0.335
31.3766 11.396 0.345
31.3970 10.823 0.336
31.4175 11.188 0.341
31.4379 10.646 0.333
31.4584 10.719 0.334
31.4789 10.490 0.331
31.4993 10.385 0.329
31.5198 9.885 0.321
31.5403 9.167 0.309
31.5607 9.281 0.311
31.5812 9.344 0.312
31.6016 9.552 0.315
31.6221 8.677 0.301
31.6426 8.938 0.305
31.6630 9.448 0.314
31.6835 8.938 0.305
31.7040 8.979 0.306
31.7244 9.188 0.309
31.7449 9.188 0.309
31.7653 9.313 0.311
31.7858 9.896 0.321
31.8063 10.531 0.331
31.8267 11.281 0.343
31.8472 12.146 0.356
31.8677 11.823 0.351
31.8881 11.625 0.348
31.9086 11.479 0.346
31.9290 11.052 0.339
31.9495 11.083 0.340
31.9700 10.104 0.324
31.9904 10.010 0.323
32.0109 10.469 0.330
32.0314 10.427 0.330
32.0518 10.750 0.335
32.0723 11.375 0.344
32.0927 11.948 0.353
32.1132 13.156 0.370
32.1337 13.948 0.381
32.1541 14.792 0.393
32.1746 17.823 0.431
32.1951 22.500 0.484
32.2155 28.760 0.547
32.2360 32.656 0.583
32.2565 30.094 0.560
32.2769 25.458 0.515
32.2974 23.865 0.499
32.3178 23.354 0.493
32.3383 19.427 0.450
32.3588 16.094 0.409
32.3792 14.042 0.382
32.3997 11.865 0.352
32.4202 10.354 0.328
32.4406 10.458 0.330
32.4611 10.063 0.324
32.4815 9.375 0.313
32.5020 8.979 0.306
32.5225 9.052 0.307
32.5429 9.219 0.310
32.5634 9.667 0.317
32.5839 9.750 0.319
32.6043 9.688 0.318
32.6248 10.354 0.328
32.6452 10.500 0.331
32.6657 10.094 0.324
32.6862 10.135 0.325
32.7066 10.229 0.326
32.7271 9.917 0.321
32.7476 9.854 0.320
32.7680 9.906 0.321
32.7885 9.865 0.321
32.8089 9.740 0.319
32.8294 9.729 0.318
32.8499 9.552 0.315
32.8703 9.365 0.312
32.8908 10.531 0.331
32.9113 9.948 0.322
32.9317 10.490 0.331
32.9522 10.396 0.329
32.9726 11.010 0.339
32.9931 10.354 0.328
33.0136 10.323 0.328
33.0340 11.177 0.341
33.0545 11.208 0.342
33.0750 11.792 0.350
33.0954 11.250 0.342
33.1159 11.260 0.342
33.1364 13.208 0.371
33.1568 14.281 0.386
33.1773 14.990 0.395
33.1977 14.792 0.393
33.2182 14.354 0.387
33.2387 13.760 0.379
33.2591 14.083 0.383
33.2796 13.896 0.380
33.3001 13.854 0.380
33.3205 13.396 0.374
33.3410 13.219 0.371
33.3614 14.698 0.391
33.3819 15.365 0.400
33.4024 14.188 0.384
33.4228 14.031 0.382
33.4433 13.219 0.371
33.4638 12.990 0.368
33.4842 13.021 0.368
33.5047 11.448 0.345
33.5251 10.427 0.330
33.5456 11.281 0.343
33.5661 10.427 0.330
33.5865 9.635 0.317
33.6070 9.583 0.316
33.6275 9.375 0.313
33.6479 9.458 0.314
33.6684 9.000 0.306
33.6888 9.865 0.321
33.7093 9.917 0.321
33.7298 10.250 0.327
33.7502 10.594 0.332
33.7707 10.052 0.324
33.7912 9.510 0.315
33.8116 9.229 0.310
33.8321 9.823 0.320
33.8526 9.052 0.307
33.8730 9.406 0.313
33.8935 8.594 0.299
33.9139 8.823 0.303
33.9344 8.719 0.301
33.9549 8.458 0.297
33.9753 9.177 0.309
33.9958 9.229 0.310
34.0163 9.125 0.308
34.0367 8.865 0.304
34.0572 9.365 0.312
34.0776 8.969 0.306
34.0981 9.719 0.318
34.1186 9.781 0.319
34.1390 10.802 0.335
34.1595 10.865 0.336
34.1800 12.500 0.361
34.2004 14.594 0.390
34.2209 17.990 0.433
34.2413 20.000 0.456
34.2618 20.281 0.460
34.2823 17.448 0.426
34.3027 17.240 0.424
34.3232 16.740 0.418
34.3437 15.885 0.407
34.3641 13.740 0.378
34.3846 12.594 0.362
34.4050 11.365 0.344
34.4255 11.438 0.345
34.4460 10.333 0.328
34.4664 10.281 0.327
34.4869 10.281 0.327
34.5074 9.333 0.312
34.5278 9.688 0.318
34.5483 9.490 0.314
34.5687 10.000 0.323
34.5892 9.969 0.322
34.6097 9.573 0.316
34.6301 9.854 0.320
34.6506 10.146 0.325
34.6711 10.417 0.329
34.6915 9.552 0.315
34.7120 9.990 0.323
34.7325 10.365 0.329
34.7529 10.781 0.335
34.7734 11.438 0.345
34.7938 11.938 0.353
34.8143 11.917 0.352
34.8348 13.323 0.373
34.8552 13.563 0.376
34.8757 15.760 0.405
34.8962 18.000 0.433
34.9166 20.969 0.467
34.9371 28.104 0.541
34.9575 34.792 0.602
34.9780 38.469 0.633
34.9985 34.344 0.598
35.0189 30.052 0.560
35.0394 28.781 0.548
35.0599 28.313 0.543
35.0803 26.146 0.522
35.1008 21.458 0.473
35.1212 17.906 0.432
35.1417 16.385 0.413
35.1622 15.823 0.406
35.1826 13.969 0.381
35.2031 13.563 0.376
35.2236 13.292 0.372
35.2440 13.198 0.371
35.2645 12.604 0.362
35.2849 12.010 0.354
35.3054 11.781 0.350
35.3259 11.667 0.349
35.3463 11.229 0.342
35.3668 11.021 0.339
35.3873 10.604 0.332
35.4077 10.719 0.334
35.4282 10.625 0.333
35.4486 10.927 0.337
35.4691 10.438 0.330
35.4896 10.208 0.326
35.5100 11.125 0.340
35.5305 11.385 0.344
35.5510 10.865 0.336
35.5714 10.396 0.329
35.5919 10.833 0.336
35.6124 10.771 0.335
35.6328 10.146 0.325
35.6533 10.323 0.328
35.6737 9.854 0.320
35.6942 9.031 0.307
35.7147 9.573 0.316
35.7351 9.656 0.317
35.7556 9.531 0.315
35.7761 9.708 0.318
35.7965 9.094 0.308
35.8170 9.156 0.309
35.8374 9.813 0.320
35.8579 9.229 0.310
35.8784 9.354 0.312
35.8988 10.021 0.323
35.9193 10.000 0.323
35.9398 9.458 0.314
35.9602 10.615 0.333
35.9807 10.552 0.332
36.0011 11.063 0.339
36.0216 11.906 0.352
36.0421 12.156 0.356
36.0625 12.375 0.359
36.0830 13.021 0.368
36.1035 12.948 0.367
36.1239 12.781 0.365
36.1444 12.010 0.354
36.1648 12.625 0.363
36.1853 12.479 0.361
36.2058 12.104 0.355
36.2262 11.021 0.339
36.2467 11.271 0.343
36.2672 11.823 0.351
36.2876 10.979 0.338
36.3081 11.302 0.343
36.3285 11.135 0.341
36.3490 11.448 0.345
36.3695 10.875 0.337
36.3899 11.385 0.344
36.4104 11.750 0.350
36.4309 11.938 0.353
36.4513 11.604 0.348
36.4718 11.333 0.344
36.4923 11.958 0.353
36.5127 12.417 0.360
36.5332 12.229 0.357
36.5536 12.188 0.356
36.5741 12.854 0.366
36.5946 12.063 0.354
36.6150 12.188 0.356
36.6355 12.896 0.367
36.6560 12.125 0.355
36.6764 11.906 0.352
36.6969 11.958 0.353
36.7173 10.771 0.335
36.7378 10.406 0.329
36.7583 11.323 0.343
36.7787 11.135 0.341
36.7992 10.833 0.336
36.8197 10.854 0.336
36.8401 10.573 0.332
36.8606 10.333 0.328
36.8810 11.146 0.341
36.9015 10.802 0.335
36.9220 10.667 0.333
36.9424 11.333 0.344
36.9629 10.635 0.333
36.9834 11.219 0.342
37.0038 11.156 0.341
37.0243 10.865 0.336
37.0447 12.229 0.357
37.0652 12.385 0.359
37.0857 13.146 0.370
37.1061 12.802 0.365
37.1266 12.740 0.364
37.1471 12.927 0.367
37.1675 12.719 0.364
37.1880 12.969 0.368
37.2084 13.000 0.368
37.2289 13.625 0.377
37.2494 14.417 0.388
37.2698 15.667 0.404
37.2903 15.844 0.406
37.3108 14.938 0.394
37.3312 13.656 0.377
37.3517 14.177 0.384
37.3722 12.875 0.366
37.3926 12.125 0.355
37.4131 12.667 0.363
37.4335 11.365 0.344
37.4540 11.531 0.347
37.4745 11.000 0.339
37.4949 10.313 0.328
37.5154 10.177 0.326
37.5359 9.854 0.320
37.5563 10.719 0.334
37.5768 10.719 0.334
37.5972 10.823 0.336
37.6177 10.208 0.326
37.6382 10.385 0.329
37.6586 10.135 0.325
37.6791 10.688 0.334
37.6996 10.604 0.332
37.7200 10.896 0.337
37.7405 10.552 0.332
37.7609 10.083 0.324
37.7814 10.646 0.333
37.8019 10.510 0.331
37.8223 10.479 0.330
37.8428 10.760 0.335
37.8633 10.823 0.336
37.8837 11.063 0.339
37.9042 10.917 0.337
37.9246 11.750 0.350
37.9451 11.979 0.353
37.9656 11.990 0.353
37.9860 12.083 0.355
38.0065 12.844 0.366
38.0270 13.323 0.373
38.0474 12.833 0.366
38.0679 12.146 0.356
38.0884 12.146 0.356
38.1088 12.396 0.359
38.1293 12.469 0.360
38.1497 11.948 0.353
38.1702 12.000 0.354
38.1907 12.031 0.354
38.2111 11.729 0.350
38.2316 12.500 0.361
38.2521 12.604 0.362
38.2725 12.750 0.364
38.2930 13.323 0.373
38.3134 12.333 0.358
38.3339 12.583 0.362
38.3544 12.021 0.354
38.3748 11.896 0.352
38.3953 11.938 0.353
38.4158 11.594 0.348
38.4362 12.417 0.360
38.4567 11.375 0.344
38.4771 12.104 0.355
38.4976 11.250 0.342
38.5181 10.604 0.332
38.5385 11.427 0.345
38.5590 11.260 0.342
38.5795 10.260 0.327
38.5999 10.417 0.329
38.6204 9.969 0.322
38.6408 10.083 0.324
38.6613 9.583 0.316
38.6818 9.854 0.320
38.7022 10.042 0.323
38.7227 9.375 0.313
38.7432 10.104 0.324
38.7636 9.167 0.309
38.7841 9.042 0.307
38.8045 9.563 0.316
38.8250 8.792 0.303
38.8455 8.635 0.300
38.8659 9.125 0.308
38.8864 9.229 0.310
38.9069 9.802 0.320
38.9273 8.688 0.301
38.9478 9.042 0.307
38.9683 8.885 0.304
38.9887 9.052 0.307
39.0092 9.021 0.307
39.0296 9.073 0.307
39.0501 8.865 0.304
39.0706 8.938 0.305
39.0910 9.302 0.311
39.1115 9.208 0.310
39.1320 9.135 0.308
39.1524 9.521 0.315
39.1729 9.365 0.312
39.1933 10.063 0.324
39.2138 9.552 0.315
39.2343 9.844 0.320
39.2547 9.854 0.320
39.2752 9.990 0.323
39.2957 9.656 0.317
39.3161 9.542 0.315
39.3366 9.531 0.315
39.3570 9.563 0.316
39.3775 9.688 0.318
39.3980 9.979 0.322
39.4184 9.438 0.314
39.4389 10.271 0.327
39.4594 9.854 0.320
39.4798 9.563 0.316
39.5003 10.438 0.330
39.5207 10.156 0.325
39.5412 10.021 0.323
39.5617 10.719 0.334
39.5821 11.333 0.344
39.6026 11.625 0.348
39.6231 11.125 0.340
39.6435 11.281 0.343
39.6640 11.500 0.346
39.6844 11.625 0.348
39.7049 11.500 0.346
39.7254 11.667 0.349
39.7458 12.229 0.357
39.7663 11.573 0.347
39.7868 11.115 0.340
39.8072 11.500 0.346
39.8277 12.125 0.355
39.8482 11.854 0.351
39.8686 11.000 0.339
39.8891 11.646 0.348
39.9095 11.438 0.345
39.9300 10.896 0.337
39.9505 11.802 0.351
39.9709 10.604 0.332
39.9914 10.771 0.335
40.0119 10.771 0.335
40.0323 10.969 0.338
40.0528 10.510 0.331
40.0732 9.875 0.321
40.0937 10.208 0.326
40.1142 10.510 0.331
40.1346 10.698 0.334
40.1551 9.875 0.321
40.1756 10.042 0.323
40.1960 10.250 0.327
40.2165 10.042 0.323
40.2369 10.385 0.329
40.2574 11.313 0.343
40.2779 11.188 0.341
40.2983 12.448 0.360
40.3188 13.302 0.372
40.3393 12.646 0.363
40.3597 13.552 0.376
40.3802 14.615 0.390
40.4006 14.177 0.384
40.4211 13.500 0.375
40.4416 11.573 0.347
40.4620 11.448 0.345
40.4825 11.281 0.343
40.5030 11.177 0.341
40.5234 10.875 0.337
40.5439 10.854 0.336
40.5643 10.531 0.331
40.5848 10.677 0.333
40.6053 10.167 0.325
40.6257 10.792 0.335
40.6462 10.677 0.333
40.6667 11.500 0.346
40.6871 12.177 0.356
40.7076 13.521 0.375
40.7281 14.396 0.387
40.7485 16.354 0.413
40.7690 19.635 0.452
40.7894 25.146 0.512
40.8099 28.240 0.542
40.8304 29.073 0.550
40.8508 25.740 0.518
40.8713 22.792 0.487
40.8918 20.750 0.465
40.9122 20.667 0.464
40.9327 19.906 0.455
40.9531 17.198 0.423
40.9736 14.979 0.395
40.9941 13.375 0.373
41.0145 12.135 0.356
41.0350 12.135 0.356
41.0555 10.729 0.334
41.0759 11.448 0.345
41.0964 10.948 0.338
41.1168 10.938 0.338
41.1373 11.063 0.339
41.1578 11.063 0.339
41.1782 11.281 0.343
41.1987 11.500 0.346
41.2192 12.031 0.354
41.2396 12.229 0.357
41.2601 13.188 0.371
41.2805 14.240 0.385
41.3010 13.427 0.374
41.3215 12.958 0.367
41.3419 12.896 0.367
41.3624 12.125 0.355
41.3829 11.781 0.350
41.4033 12.135 0.356
41.4238 11.990 0.353
41.4442 11.250 0.342
41.4647 11.260 0.342
41.4852 10.760 0.335
41.5056 10.677 0.333
41.5261 10.417 0.329
41.5466 10.260 0.327
41.5670 10.333 0.328
41.5875 11.167 0.341
41.6080 11.688 0.349
41.6284 11.719 0.349
41.6489 11.635 0.348
41.6693 11.573 0.347
41.6898 11.427 0.345
41.7103 11.771 0.350
41.7307 11.490 0.346
41.7512 12.146 0.356
41.7717 12.635 0.363
41.7921 11.958 0.353
41.8126 12.313 0.358
41.8330 13.677 0.377
41.8535 14.969 0.395
41.8740 18.135 0.435
41.8944 18.313 0.437
41.9149 19.479 0.450
41.9354 18.063 0.434
41.9558 15.917 0.407
41.9763 15.000 0.395
41.9967 15.094 0.397
42.0172 14.604 0.390
42.0377 13.167 0.370
42.0581 11.844 0.351
42.0786 11.000 0.339
42.0991 10.833 0.336
42.1195 9.708 0.318
42.1400 9.156 0.309
42.1604 9.115 0.308
42.1809 8.583 0.299
42.2014 8.750 0.302
42.2218 8.198 0.292
42.2423 8.583 0.299
42.2628 9.271 0.311
42.2832 8.292 0.294
42.3037 8.771 0.302
42.3242 9.094 0.308
42.3446 9.479 0.314
42.3651 9.646 0.317
42.3855 10.115 0.325
42.4060 9.500 0.315
42.4265 10.573 0.332
42.4469 9.531 0.315
42.4674 9.719 0.318
42.4879 9.729 0.318
42.5083 10.094 0.324
42.5288 11.094 0.340
42.5492 11.490 0.346
42.5697 11.021 0.339
42.5902 11.031 0.339
42.6106 10.344 0.328
42.6311 10.875 0.337
42.6516 11.458 0.345
42.6720 11.406 0.345
42.6925 10.990 0.338
42.7129 11.927 0.352
42.7334 10.854 0.336
42.7539 11.604 0.348
42.7743 11.281 0.343
42.7948 12.073 0.355
42.8153 11.146 0.341
42.8357 11.073 0.340
42.8562 11.219 0.342
42.8766 10.271 0.327
42.8971 10.229 0.326
42.9176 10.781 0.335
42.9380 10.198 0.326
42.9585 9.844 0.320
42.9790 9.563 0.316
42.9994 9.479 0.314
43.0199 9.760 0.319
43.0403 9.781 0.319
43.0608 8.948 0.305
43.0813 9.021 0.307
43.1017 8.708 0.301
43.1222 9.052 0.307
43.1427 8.458 0.297
43.1631 8.542 0.298
43.1836 9.406 0.313
43.2041 7.990 0.288
43.2245 8.198 0.292
43.2450 8.094 0.290
43.2654 8.521 0.298
43.2859 8.896 0.304
43.3064 8.385 0.296
43.3268 8.677 0.301
43.3473 8.875 0.304
43.3678 8.927 0.305
43.3882 9.698 0.318
43.4087 9.844 0.320
43.4291 8.698 0.301
43.4496 9.385 0.313
43.4701 9.427 0.313
43.4905 9.365 0.312
43.5110 9.740 0.319
43.5315 9.792 0.319
43.5519 9.302 0.311
43.5724 9.448 0.314
43.5928 10.115 0.325
43.6133 9.969 0.322
43.6338 10.385 0.329
43.6542 10.813 0.336
43.6747 10.979 0.338
43.6952 10.271 0.327
43.7156 11.000 0.339
43.7361 10.906 0.337
43.7565 11.073 0.340
43.7770 11.240 0.342
43.7975 11.708 0.349
43.8179 11.156 0.341
43.8384 11.479 0.346
43.8589 11.635 0.348
43.8793 12.073 0.355
43.8998 12.594 0.362
43.9202 11.917 0.352
43.9407 11.552 0.347
43.9612 11.073 0.340
43.9816 10.656 0.333
44.0021 11.052 0.339
44.0226 10.073 0.324
44.0430 9.208 0.310
44.0635 9.375 0.313
44.0840 9.531 0.315
44.1044 8.948 0.305
44.1249 8.385 0.296
44.1453 8.708 0.301
44.1658 8.833 0.303
44.1863 8.531 0.298
44.2067 8.021 0.289
44.2272 8.521 0.298
44.2477 8.438 0.296
44.2681 8.313 0.294
44.2886 8.688 0.301
44.3090 8.333 0.295
44.3295 8.375 0.295
44.3500 8.417 0.296
44.3704 8.417 0.296
44.3909 8.250 0.293
44.4114 8.010 0.289
44.4318 8.365 0.295
44.4523 8.542 0.298
44.4727 8.906 0.305
44.4932 8.406 0.296
44.5137 9.063 0.307
44.5341 8.698 0.301
44.5546 8.083 0.290
44.5751 8.010 0.289
44.5955 8.073 0.290
44.6160 8.531 0.298
44.6364 8.688 0.301
44.6569 8.146 0.291
44.6774 8.229 0.293
44.6978 8.677 0.301
44.7183 9.073 0.307
44.7388 9.094 0.308
44.7592 8.594 0.299
44.7797 7.906 0.287
44.8001 8.406 0.296
44.8206 7.938 0.288
44.8411 8.448 0.297
44.8615 8.417 0.296
44.8820 9.073 0.307
44.9025 8.677 0.301
44.9229 8.531 0.298
44.9434 8.490 0.297
44.9639 9.083 0.308
44.9843 8.740 0.302
45.0048 8.594 0.299
45.0252 8.427 0.296
45.0457 8.583 0.299
45.0662 8.729 0.302
45.0866 8.458 0.297
45.1071 8.219 0.293
45.1276 8.219 0.293
45.1480 8.833 0.303
45.1685 9.021 0.307
45.1889 8.521 0.298
45.2094 9.260 0.311
45.2299 8.938 0.305
45.2503 9.229 0.310
45.2708 9.083 0.308
45.2913 8.667 0.300
45.3117 8.729 0.302
45.3322 8.927 0.305
45.3526 8.563 0.299
45.3731 8.021 0.289
45.3936 9.063 0.307
45.4140 8.760 0.302
45.4345 8.313 0.294
45.4550 8.198 0.292
45.4754 8.500 0.298
45.4959 7.948 0.288
45.5163 8.229 0.293
45.5368 8.479 0.297
45.5573 8.073 0.290
45.5777 8.260 0.293
45.5982 8.719 0.301
45.6187 8.313 0.294
45.6391 8.792 0.303
45.6596 8.135 0.291
45.6800 7.823 0.285
45.7005 8.031 0.289
45.7210 8.177 0.292
45.7414 8.385 0.296
45.7619 8.854 0.304
45.7824 8.469 0.297
45.8028 9.083 0.308
45.8233 8.719 0.301
45.8438 8.990 0.306
45.8642 8.448 0.297
45.8847 9.292 0.311
45.9051 9.042 0.307
45.9256 9.052 0.307
45.9461 9.188 0.309
45.9665 9.208 0.310
45.9870 9.219 0.310
46.0075 8.698 0.301
46.0279 8.771 0.302
46.0484 8.646 0.300
46.0688 9.156 0.309
46.0893 9.083 0.308
46.1098 8.667 0.300
46.1302 8.625 0.300
46.1507 8.656 0.300
46.1712 8.323 0.294
46.1916 8.396 0.296
46.2121 8.615 0.300
46.2325 8.771 0.302
46.2530 7.906 0.287
46.2735 8.917 0.305
46.2939 8.458 0.297
46.3144 8.135 0.291
46.3349 8.115 0.291
46.3553 9.021 0.307
46.3758 7.927 0.287
46.3962 8.958 0.305
46.4167 8.458 0.297
46.4372 8.375 0.295
46.4576 9.302 0.311
46.4781 9.146 0.309
46.4986 9.292 0.311
46.5190 8.833 0.303
46.5395 9.927 0.322
46.5600 10.604 0.332
46.5804 11.125 0.340
46.6009 12.990 0.368
46.6213 14.063 0.383
46.6418 14.531 0.389
46.6623 14.719 0.392
46.6827 14.604 0.390
46.7032 13.552 0.376
46.7237 12.208 0.357
46.7441 13.208 0.371
46.7646 12.396 0.359
46.7850 12.729 0.364
46.8055 11.760 0.350
46.8260 10.594 0.332
46.8464 10.604 0.332
46.8669 9.031 0.307
46.8874 9.646 0.317
46.9078 9.438 0.314
46.9283 8.469 0.297
46.9487 8.365 0.295
46.9692 8.208 0.292
46.9897 8.750 0.302
47.0101 8.521 0.298
47.0306 8.729 0.302
47.0511 8.688 0.301
47.0715 8.448 0.297
47.0920 8.281 0.294
47.1124 8.375 0.295
47.1329 8.927 0.305
47.1534 8.406 0.296
47.1738 8.146 0.291
47.1943 8.500 0.298
47.2148 8.313 0.294
47.2352 8.698 0.301
47.2557 8.313 0.294
47.2761 8.344 0.295
47.2966 8.260 0.293
47.3171 7.938 0.288
47.3375 7.469 0.279
47.3580 7.563 0.281
47.3785 7.854 0.286
47.3989 8.542 0.298
47.4194 7.625 0.282
47.4399 7.490 0.279
47.4603 7.833 0.286
47.4808 7.583 0.281
47.5012 8.000 0.289
47.5217 8.000 0.289
47.5422 7.802 0.285
47.5626 7.615 0.282
47.5831 7.969 0.288
47.6036 8.552 0.298
47.6240 8.583 0.299
47.6445 7.833 0.286
47.6649 8.208 0.292
47.6854 8.688 0.301
47.7059 8.208 0.292
47.7263 8.740 0.302
47.7468 8.969 0.306
47.7673 8.625 0.300
47.7877 8.125 0.291
47.8082 7.927 0.287
47.8286 7.531 0.280
47.8491 7.698 0.283
47.8696 7.646 0.282
47.8900 7.479 0.279
47.9105 7.542 0.280
47.9310 7.615 0.282
47.9514 7.656 0.282
47.9719 7.313 0.276
47.9923 7.292 0.276
48.0128 7.958 0.288
48.0333 7.323 0.276
48.0537 8.146 0.291
48.0742 7.073 0.271
48.0947 7.479 0.279
48.1151 6.906 0.268
48.1356 7.417 0.278
48.1560 7.354 0.277
48.1765 7.323 0.276
48.1970 7.417 0.278
48.2174 7.594 0.281
48.2379 7.333 0.276
48.2584 7.073 0.271
48.2788 7.073 0.271
48.2993 7.792 0.285
48.3198 7.281 0.275
48.3402 7.135 0.273
48.3607 6.990 0.270
48.3811 7.854 0.286
48.4016 7.385 0.277
48.4221 7.615 0.282
48.4425 7.125 0.272
48.4630 7.750 0.284
48.4835 7.229 0.274
48.5039 7.333 0.276
48.5244 7.635 0.282
48.5448 7.625 0.282
48.5653 7.510 0.280
48.5858 7.406 0.278
48.6062 8.094 0.290
48.6267 7.219 0.274
48.6472 7.094 0.272
48.6676 7.219 0.274
48.6881 7.156 0.273
48.7085 6.927 0.269
48.7290 7.208 0.274
48.7495 7.250 0.275
48.7699 6.813 0.266
48.7904 7.104 0.272
48.8109 6.823 0.267
48.8313 6.969 0.269
48.8518 6.750 0.265
48.8722 6.698 0.264
48.8927 6.698 0.264
48.9132 6.469 0.260
48.9336 7.188 0.274
48.9541 7.344 0.277
48.9746 7.271 0.275
48.9950 7.490 0.279
49.0155 7.156 0.273
49.0359 8.115 0.291
49.0564 8.719 0.301
49.0769 9.313 0.311
49.0973 10.219 0.326
49.1178 10.365 0.329
49.1383 9.021 0.307
49.1587 8.729 0.302
49.1792 8.875 0.304
49.1997 9.063 0.307
49.2201 9.094 0.308
49.2406 8.927 0.305
49.2610 9.448 0.314
49.2815 8.625 0.300
49.3020 9.010 0.306
49.3224 9.073 0.307
49.3429 9.354 0.312
49.3634 9.677 0.317
49.3838 9.729 0.318
49.4043 9.094 0.308
49.4247 8.760 0.302
49.4452 8.990 0.306
49.4657 8.760 0.302
49.4861 9.375 0.313
49.5066 8.927 0.305
49.5271 8.875 0.304
49.5475 8.896 0.304
49.5680 8.490 0.297
49.5884 8.250 0.293
49.6089 8.844 0.304
49.6294 8.573 0.299
49.6498 8.750 0.302
49.6703 8.604 0.299
49.6908 8.885 0.304
49.7112 8.552 0.298
49.7317 7.885 0.287
49.7521 9.354 0.312
49.7726 9.521 0.315
49.7931 9.510 0.315
49.8135 9.646 0.317
49.8340 9.969 0.322
49.8545 9.188 0.309
49.8749 8.760 0.302
49.8954 9.052 0.307
49.9158 8.896 0.304
49.9363 8.063 0.290
49.9568 8.875 0.304
49.9772 9.063 0.307
49.9977 8.385 0.296
50.0182 8.219 0.293
50.0386 7.198 0.274
50.0591 7.823 0.285
50.0796 8.115 0.291
50.1000 7.448 0.279
50.1205 8.115 0.291
50.1409 6.979 0.270
50.1614 7.635 0.282
50.1819 7.844 0.286
50.2023 7.438 0.278
50.2228 7.375 0.277
50.2433 7.781 0.285
50.2637 7.771 0.285
50.2842 8.865 0.304
50.3046 9.219 0.310
50.3251 8.865 0.304
50.3456 8.823 0.303
50.3660 7.833 0.286
50.3865 8.479 0.297
50.4070 8.354 0.295
50.4274 7.521 0.280
50.4479 7.906 0.287
50.4683 7.708 0.283
50.4888 7.635 0.282
50.5093 8.240 0.293
50.5297 7.792 0.285
50.5502 7.594 0.281
50.5707 7.750 0.284
50.5911 8.010 0.289
50.6116 7.969 0.288
50.6320 8.208 0.292
50.6525 8.094 0.290
50.6730 7.375 0.277
50.6934 8.167 0.292
50.7139 8.146 0.291
50.7344 7.604 0.281
50.7548 7.760 0.284
50.7753 7.167 0.273
50.7958 7.094 0.272
50.8162 7.448 0.279
50.8367 7.719 0.284
50.8571 7.625 0.282
50.8776 7.573 0.281
50.8981 7.281 0.275
50.9185 8.448 0.297
50.9390 7.958 0.288
50.9595 8.729 0.302
50.9799 9.104 0.308
51.0004 10.115 0.325
51.0208 9.948 0.322
51.0413 9.167 0.309
51.0618 9.073 0.307
51.0822 8.698 0.301
51.1027 9.271 0.311
51.1232 8.521 0.298
51.1436 8.167 0.292
51.1641 8.271 0.294
51.1845 9.073 0.307
51.2050 7.823 0.285
51.2255 7.521 0.280
51.2459 7.865 0.286
51.2664 8.031 0.289
51.2869 7.323 0.276
51.3073 7.469 0.279
51.3278 7.719 0.284
51.3482 7.604 0.281
51.3687 7.292 0.276
51.3892 7.510 0.280
51.4096 7.542 0.280
51.4301 7.438 0.278
51.4506 7.500 0.280
51.4710 7.896 0.287
51.4915 7.448 0.279
51.5119 7.010 0.270
51.5324 7.542 0.280
51.5529 7.333 0.276
51.5733 7.927 0.287
51.5938 7.927 0.287
51.6143 8.552 0.298
51.6347 8.031 0.289
51.6552 8.615 0.300
51.6757 8.656 0.300
51.6961 8.594 0.299
51.7166 8.250 0.293
51.7370 8.333 0.295
51.7575 8.219 0.293
51.7780 8.250 0.293
51.7984 7.771 0.285
51.8189 7.833 0.286
51.8394 7.083 0.272
51.8598 7.448 0.279
51.8803 8.135 0.291
51.9007 8.792 0.303
51.9212 8.313 0.294
51.9417 8.469 0.297
51.9621 8.365 0.295
51.9826 7.927 0.287
52.0031 8.271 0.294
52.0235 8.094 0.290
52.0440 7.792 0.285
52.0644 7.729 0.284
52.0849 8.292 0.294
52.1054 7.875 0.286
52.1258 7.625 0.282
52.1463 7.344 0.277
52.1668 7.156 0.273
52.1872 7.031 0.271
52.2077 7.510 0.280
52.2281 7.083 0.272
52.2486 6.969 0.269
52.2691 7.000 0.270
52.2895 7.469 0.279
52.3100 7.115 0.272
52.3305 7.229 0.274
52.3509 7.125 0.272
52.3714 6.854 0.267
52.3918 7.406 0.278
52.4123 7.042 0.271
52.4328 7.094 0.272
52.4532 7.271 0.275
52.4737 6.281 0.256
52.4942 6.760 0.265
52.5146 6.177 0.254
52.5351 6.469 0.260
52.5556 6.542 0.261
52.5760 6.052 0.251
52.5965 6.531 0.261
52.6169 7.010 0.270
52.6374 6.635 0.263
52.6579 6.573 0.262
52.6783 5.833 0.247
52.6988 6.031 0.251
52.7193 6.260 0.255
52.7397 6.260 0.255
52.7602 6.365 0.257
52.7806 6.104 0.252
52.8011 6.104 0.252
52.8216 5.708 0.244
52.8420 6.385 0.258
52.8625 6.448 0.259
52.8830 6.667 0.264
52.9034 6.781 0.266
52.9239 7.021 0.270
52.9443 6.833 0.267
52.9648 6.802 0.266
52.9853 6.823 0.267
53.0057 7.083 0.272
53.0262 7.510 0.280
53.0467 7.208 0.274
53.0671 7.281 0.275
53.0876 6.948 0.269
53.1080 7.000 0.270
53.1285 6.792 0.266
53.1490 7.125 0.272
53.1694 7.000 0.270
53.1899 7.052 0.271
53.2104 7.042 0.271
53.2308 6.583 0.262
53.2513 6.552 0.261
53.2717 6.635 0.263
53.2922 6.323 0.257
53.3127 6.406 0.258
53.3331 5.708 0.244
53.3536 6.469 0.260
53.3741 6.385 0.258
53.3945 6.729 0.265
53.4150 6.656 0.263
53.4355 6.698 0.264
53.4559 6.792 0.266
53.4764 6.406 0.258
53.4968 7.031 0.271
53.5173 6.635 0.263
53.5378 6.896 0.268
53.5582 6.990 0.270
53.5787 6.802 0.266
53.5992 6.385 0.258
53.6196 6.885 0.268
53.6401 6.979 0.270
53.6605 7.479 0.279
53.6810 7.740 0.284
53.7015 8.542 0.298
53.7219 8.823 0.303
53.7424 8.188 0.292
53.7629 8.479 0.297
53.7833 7.656 0.282
53.8038 7.833 0.286
53.8242 7.740 0.284
53.8447 7.229 0.274
53.8652 7.021 0.270
53.8856 7.854 0.286
53.9061 7.198 0.274
53.9266 6.927 0.269
53.9470 7.000 0.270
53.9675 6.854 0.267
53.9879 6.521 0.261
54.0084 6.625 0.263
54.0289 6.344 0.257
54.0493 6.250 0.255
54.0698 6.667 0.264
54.0903 5.906 0.248
54.1107 6.802 0.266
54.1312 6.656 0.263
54.1516 6.750 0.265
54.1721 6.052 0.251
54.1926 6.052 0.251
54.2130 6.354 0.257
54.2335 6.583 0.262
54.2540 6.229 0.255
54.2744 6.188 0.254
54.2949 6.167 0.253
54.3154 6.063 0.251
54.3358 6.427 0.259
54.3563 6.188 0.254
54.3767 6.302 0.256
54.3972 6.510 0.260
54.4177 6.083 0.252
54.4381 6.125 0.253
54.4586 6.708 0.264
54.4791 6.625 0.263
54.4995 6.750 0.265
54.5200 7.573 0.281
54.5404 6.917 0.268
54.5609 7.906 0.287
54.5814 7.885 0.287
54.6018 7.802 0.285
54.6223 7.208 0.274
54.6428 7.542 0.280
54.6632 7.240 0.275
54.6837 7.260 0.275
54.7041 7.052 0.271
54.7246 7.792 0.285
54.7451 7.083 0.272
54.7655 7.125 0.272
54.7860 6.833 0.267
54.8065 6.490 0.260
54.8269 6.281 0.256
54.8474 6.490 0.260
54.8678 6.844 0.267
54.8883 6.646 0.263
54.9088 6.167 0.253
54.9292 6.000 0.250
54.9497 6.990 0.270
54.9702 7.198 0.274
54.9906 7.292 0.276
55.0111 7.552 0.280
55.0316 7.594 0.281
55.0520 8.698 0.301
55.0725 10.021 0.323
55.0929 10.250 0.327
55.1134 11.635 0.348
55.1339 11.896 0.352
55.1543 11.260 0.342
55.1748 11.271 0.343
55.1953 10.813 0.336
55.2157 11.677 0.349
55.2362 11.208 0.342
55.2566 10.823 0.336
55.2771 10.021 0.323
55.2976 10.177 0.326
55.3180 9.563 0.316
55.3385 9.021 0.307
55.3590 8.552 0.298
55.3794 8.167 0.292
55.3999 7.510 0.280
55.4203 8.281 0.294
55.4408 7.385 0.277
55.4613 7.208 0.274
55.4817 6.823 0.267
55.5022 6.563 0.261
55.5227 6.677 0.264
55.5431 6.635 0.263
55.5636 6.563 0.261
55.5840 6.938 0.269
55.6045 6.490 0.260
55.6250 7.042 0.271
55.6454 6.750 0.265
55.6659 6.688 0.264
55.6864 6.750 0.265
55.7068 6.802 0.266
55.7273 6.771 0.266
55.7477 7.115 0.272
55.7682 7.646 0.282
55.7887 6.948 0.269
55.8091 7.198 0.274
55.8296 6.448 0.259
55.8501 6.906 0.268
55.8705 6.938 0.269
55.8910 6.781 0.266
55.9115 6.802 0.266
55.9319 7.042 0.271
55.9524 6.125 0.253
55.9728 6.698 0.264
55.9933 6.917 0.268
56.0138 6.313 0.256
56.0342 6.208 0.254
56.0547 6.625 0.263
56.0752 6.781 0.266
56.0956 6.854 0.267
56.1161 6.500 0.260
56.1365 6.927 0.269
56.1570 6.927 0.269
56.1775 7.010 0.270
56.1979 7.156 0.273
56.2184 7.281 0.275
56.2389 7.490 0.279
56.2593 6.698 0.264
56.2798 7.240 0.275
56.3002 7.229 0.274
56.3207 6.729 0.265
56.3412 7.156 0.273
56.3616 6.906 0.268
56.3821 6.875 0.268
56.4026 6.844 0.267
56.4230 6.510 0.260
56.4435 6.958 0.269
56.4639 7.083 0.272
56.4844 6.396 0.258
56.5049 6.740 0.265
56.5253 7.021 0.270
56.5458 6.656 0.263
56.5663 7.188 0.274
56.5867 7.010 0.270
56.6072 7.365 0.277
56.6276 7.583 0.281
56.6481 7.948 0.288
56.6686 8.563 0.299
56.6890 9.302 0.311
56.7095 9.813 0.320
56.7300 9.552 0.315
56.7504 9.323 0.312
56.7709 8.948 0.305
56.7914 8.365 0.295
56.8118 8.365 0.295
56.8323 7.604 0.281
56.8527 8.104 0.291
56.8732 7.823 0.285
56.8937 7.448 0.279
56.9141 7.875 0.286
56.9346 6.781 0.266
56.9551 7.021 0.270
56.9755 6.740 0.265
56.9960 6.323 0.257
57.0164 6.438 0.259
57.0369 6.094 0.252
57.0574 6.531 0.261
57.0778 6.510 0.260
57.0983 6.635 0.263
57.1188 6.469 0.260
57.1392 6.167 0.253
57.1597 6.469 0.260
57.1801 6.219 0.255
57.2006 6.677 0.264
57.2211 6.469 0.260
57.2415 6.740 0.265
57.2620 6.604 0.262
57.2825 7.156 0.273
57.3029 6.313 0.256
57.3234 7.271 0.275
57.3438 7.500 0.280
57.3643 6.990 0.270
57.3848 7.458 0.279
57.4052 7.302 0.276
57.4257 7.438 0.278
57.4462 7.448 0.279
57.4666 7.448 0.279
57.4871 7.500 0.280
57.5075 7.698 0.283
57.5280 7.760 0.284
57.5485 7.823 0.285
57.5689 7.938 0.288
57.5894 8.063 0.290
57.6099 7.677 0.283
57.6303 7.469 0.279
57.6508 7.802 0.285
57.6713 7.333 0.276
57.6917 6.896 0.268
57.7122 7.500 0.280
57.7326 7.323 0.276
57.7531 6.646 0.263
57.7736 6.677 0.264
57.7940 6.479 0.260
57.8145 7.042 0.271
57.8350 6.156 0.253
57.8554 6.896 0.268
57.8759 6.698 0.264
57.8963 6.531 0.261
57.9168 6.635 0.263
57.9373 6.167 0.253
57.9577 6.490 0.260
57.9782 6.198 0.254
57.9987 6.229 0.255
58.0191 6.646 0.263
58.0396 6.333 0.257
58.0600 6.542 0.261
58.0805 6.146 0.253
58.1010 6.333 0.257
58.1214 5.906 0.248
58.1419 6.094 0.252
58.1624 6.417 0.259
58.1828 6.333 0.257
58.2033 6.479 0.260
58.2237 6.708 0.264
58.2442 7.250 0.275
58.2647 6.708 0.264
58.2851 7.125 0.272
58.3056 6.604 0.262
58.3261 6.719 0.265
58.3465 6.396 0.258
58.3670 6.146 0.253
58.3874 6.479 0.260
58.4079 7.094 0.272
58.4284 7.167 0.273
58.4488 6.688 0.264
58.4693 7.292 0.276
58.4898 7.438 0.278
58.5102 7.698 0.283
58.5307 7.854 0.286
58.5512 8.010 0.289
58.5716 7.531 0.280
58.5921 7.479 0.279
58.6125 7.125 0.272
58.6330 6.958 0.269
58.6535 7.083 0.272
58.6739 7.281 0.275
58.6944 6.740 0.265
58.7149 7.188 0.274
58.7353 6.885 0.268
58.7558 6.333 0.257
58.7762 6.198 0.254
58.7967 6.177 0.254
58.8172 6.344 0.257
58.8376 6.208 0.254
58.8581 5.844 0.247
58.8786 6.063 0.251
58.8990 6.042 0.251
58.9195 6.406 0.258
58.9399 6.073 0.252
58.9604 5.844 0.247
58.9809 5.958 0.249
59.0013 5.969 0.249
59.0218 6.219 0.255
59.0423 5.917 0.248
59.0627 5.990 0.250
59.0832 5.625 0.242
59.1036 6.083 0.252
59.1241 6.021 0.250
59.1446 5.906 0.248
59.1650 5.792 0.246
59.1855 6.260 0.255
59.2060 6.167 0.253
59.2264 6.438 0.259
59.2469 5.271 0.234
59.2674 5.906 0.248
59.2878 5.990 0.250
59.3083 6.021 0.250
59.3287 6.240 0.255
59.3492 6.146 0.253
59.3697 5.542 0.240
59.3901 5.917 0.248
59.4106 6.302 0.256
59.4311 6.021 0.250
59.4515 6.073 0.252
59.4720 5.417 0.238
59.4924 5.760 0.245
59.5129 5.917 0.248
59.5334 6.417 0.259
59.5538 5.573 0.241
59.5743 5.885 0.248
59.5948 4.958 0.227
59.6152 5.729 0.244
59.6357 5.990 0.250
59.6561 5.542 0.240
59.6766 5.646 0.243
59.6971 5.500 0.239
59.7175 5.500 0.239
59.7380 5.531 0.240
59.7585 5.906 0.248
59.7789 5.500 0.239
59.7994 5.458 0.238
59.8198 5.635 0.242
59.8403 5.552 0.240
59.8608 5.917 0.248
59.8812 6.042 0.251
59.9017 5.656 0.243
59.9222 5.865 0.247
59.9426 5.896 0.248
59.9631 6.510 0.260
59.9835 5.635 0.242
60.0040 5.510 0.240
60.0245 5.740 0.245
60.0449 6.083 0.252
60.0654 5.375 0.237
60.0859 5.552 0.240
60.1063 5.542 0.240
60.1268 5.990 0.250
60.1473 5.865 0.247
60.1677 5.698 0.244
60.1882 5.135 0.231
60.2086 5.521 0.240
60.2291 5.250 0.234
60.2496 5.354 0.236
60.2700 5.698 0.244
60.2905 5.938 0.249
60.3110 5.531 0.240
60.3314 5.438 0.238
60.3519 5.375 0.237
60.3723 5.271 0.234
60.3928 5.750 0.245
60.4133 5.646 0.243
60.4337 6.010 0.250
60.4542 4.948 0.227
60.4747 5.365 0.236
60.4951 5.260 0.234
60.5156 5.521 0.240
60.5360 5.688 0.243
60.5565 5.385 0.237
60.5770 5.427 0.238
60.5974 5.750 0.245
60.6179 5.750 0.245
60.6384 5.427 0.238
60.6588 5.292 0.235
60.6793 5.552 0.240
60.6997 5.354 0.236
60.7202 5.375 0.237
60.7407 5.604 0.242
60.7611 5.719 0.244
60.7816 5.646 0.243
60.8021 5.500 0.239
60.8225 5.646 0.243
60.8430 5.323 0.235
60.8634 5.458 0.238
60.8839 5.771 0.245
60.9044 5.625 0.242
60.9248 5.396 0.237
60.9453 5.750 0.245
60.9658 6.188 0.254
60.9862 6.344 0.257
61.0067 5.865 0.247
61.0272 5.521 0.240
61.0476 5.479 0.239
61.0681 6.427 0.259
61.0885 5.792 0.246
61.1090 5.708 0.244
61.1295 5.365 0.236
61.1499 5.813 0.246
61.1704 5.135 0.231
61.1909 5.406 0.237
61.2113 5.969 0.249
61.2318 5.365 0.236
61.2522 5.448 0.238
61.2727 5.875 0.247
61.2932 5.823 0.246
61.3136 5.854 0.247
61.3341 6.198 0.254
61.3546 6.333 0.257
61.3750 6.646 0.263
61.3955 6.792 0.266
61.4159 6.813 0.266
61.4364 6.521 0.261
61.4569 6.156 0.253
61.4773 6.188 0.254
61.4978 5.927 0.248
61.5183 6.031 0.251
61.5387 5.594 0.241
61.5592 5.677 0.243
61.5796 5.729 0.244
61.6001 6.083 0.252
61.6206 5.396 0.237
61.6410 5.531 0.240
61.6615 5.760 0.245
61.6820 5.635 0.242
61.7024 5.104 0.231
61.7229 5.573 0.241
61.7433 5.281 0.235
61.7638 5.000 0.228
61.7843 5.365 0.236
61.8047 5.156 0.232
61.8252 4.802 0.224
61.8457 5.219 0.233
61.8661 5.375 0.237
61.8866 5.542 0.240
61.9071 5.552 0.240
61.9275 5.250 0.234
61.9480 5.667 0.243
61.9684 5.469 0.239
61.9889 5.667 0.243
62.0094 5.677 0.243
62.0298 5.667 0.243
62.0503 5.281 0.235
62.0708 5.146 0.232
62.0912 5.740 0.245
62.1117 6.042 0.251
62.1321 6.052 0.251
62.1526 6.135 0.253
62.1731 5.781 0.245
62.1935 5.927 0.248
62.2140 5.979 0.250
62.2345 5.740 0.245
62.2549 5.708 0.244
62.2754 5.865 0.247
62.2958 5.104 0.231
62.3163 6.135 0.253
62.3368 5.052 0.229
62.3572 5.448 0.238
62.3777 5.573 0.241
62.3982 5.458 0.238
62.4186 5.760 0.245
62.4391 5.635 0.242
62.4595 5.469 0.239
62.4800 5.052 0.229
62.5005 5.333 0.236
62.5209 5.698 0.244
62.5414 5.427 0.238
62.5619 5.500 0.239
62.5823 5.667 0.243
62.6028 5.510 0.240
62.6232 5.333 0.236
62.6437 5.281 0.235
62.6642 5.260 0.234
62.6846 5.260 0.234
62.7051 5.490 0.239
62.7256 5.510 0.240
62.7460 5.510 0.240
62.7665 5.281 0.235
62.7870 5.240 0.234
62.8074 4.958 0.227
62.8279 5.229 0.233
62.8483 5.292 0.235
62.8688 5.250 0.234
62.8893 5.094 0.230
62.9097 5.010 0.228
62.9302 5.438 0.238
62.9507 5.146 0.232
62.9711 5.250 0.234
62.9916 5.365 0.236
63.0120 5.865 0.247
63.0325 5.438 0.238
63.0530 5.563 0.241
63.0734 5.208 0.233
63.0939 5.573 0.241
63.1144 5.396 0.237
63.1348 5.448 0.238
63.1553 5.188 0.232
63.1757 5.313 0.235
63.1962 6.052 0.251
63.2167 6.010 0.250
63.2371 5.521 0.240
63.2576 5.875 0.247
63.2781 5.240 0.234
63.2985 6.146 0.253
63.3190 5.458 0.238
63.3394 5.750 0.245
63.3599 5.344 0.236
63.3804 5.948 0.249
63.4008 5.781 0.245
63.4213 5.969 0.249
63.4418 6.042 0.251
63.4622 5.865 0.247
63.4827 5.740 0.245
63.5032 5.792 0.246
63.5236 5.490 0.239
63.5441 5.875 0.247
63.5645 6.198 0.254
63.5850 6.146 0.253
63.6055 5.969 0.249
63.6259 5.875 0.247
63.6464 6.271 0.256
63.6669 6.229 0.255
63.6873 5.823 0.246
63.7078 5.781 0.245
63.7282 5.813 0.246
63.7487 5.167 0.232
63.7692 5.479 0.239
63.7896 5.448 0.238
63.8101 5.438 0.238
63.8306 5.458 0.238
63.8510 5.677 0.243
63.8715 5.635 0.242
63.8919 5.760 0.245
63.9124 5.500 0.239
63.9329 5.719 0.244
63.9533 5.500 0.239
63.9738 5.406 0.237
63.9943 5.719 0.244
64.0147 5.573 0.241
64.0352 5.365 0.236
64.0556 5.104 0.231
64.0761 5.385 0.237
64.0966 5.396 0.237
64.1170 5.104 0.231
64.1375 4.854 0.225
64.1580 5.385 0.237
64.1784 4.938 0.227
64.1989 5.219 0.233
64.2193 4.771 0.223
64.2398 5.021 0.229
64.2603 5.260 0.234
64.2807 5.219 0.233
64.3012 5.625 0.242
64.3217 5.021 0.229
64.3421 5.021 0.229
64.3626 5.240 0.234
64.3831 5.240 0.234
64.4035 5.333 0.236
64.4240 5.448 0.238
64.4444 5.188 0.232
64.4649 5.417 0.238
64.4854 5.208 0.233
64.5058 5.542 0.240
64.5263 5.063 0.230
64.5468 5.354 0.236
64.5672 6.083 0.252
64.5877 5.479 0.239
64.6081 5.563 0.241
64.6286 5.146 0.232
64.6491 5.583 0.241
64.6695 5.281 0.235
64.6900 5.656 0.243
64.7105 5.354 0.236
64.7309 5.667 0.243
64.7514 5.104 0.231
64.7718 5.604 0.242
64.7923 5.573 0.241
64.8128 5.438 0.238
64.8332 5.302 0.235
64.8537 5.448 0.238
64.8742 5.198 0.233
64.8946 5.021 0.229
64.9151 5.167 0.232
64.9355 5.500 0.239
64.9560 5.125 0.231
64.9765 5.219 0.233
64.9969 5.458 0.238
65.0174 5.479 0.239
65.0379 4.823 0.224
65.0583 5.271 0.234
65.0788 5.458 0.238
65.0992 5.302 0.235
65.1197 5.260 0.234
65.1402 5.365 0.236
65.1606 5.104 0.231
65.1811 5.469 0.239
65.2016 4.563 0.218
65.2220 5.281 0.235
65.2425 4.969 0.228
65.2630 5.125 0.231
65.2834 5.188 0.232
65.3039 5.521 0.240
65.3243 5.010 0.228
65.3448 5.000 0.228
65.3653 5.438 0.238
65.3857 5.469 0.239
65.4062 5.115 0.231
65.4267 5.385 0.237
65.4471 5.125 0.231
65.4676 5.375 0.237
65.4880 4.958 0.227
65.5085 4.750 0.222
65.5290 5.177 0.232
65.5494 5.198 0.233
65.5699 4.677 0.221
65.5904 4.208 0.209
65.6108 5.323 0.235
65.6313 5.021 0.229
65.6517 4.677 0.221
65.6722 4.542 0.218
65.6927 5.167 0.232
65.7131 5.292 0.235
65.7336 5.115 0.231
65.7541 5.219 0.233
65.7745 5.281 0.235
65.7950 5.073 0.230
65.8154 4.906 0.226
65.8359 4.854 0.225
65.8564 5.344 0.236
65.8768 4.990 0.228
65.8973 4.906 0.226
65.9178 5.115 0.231
65.9382 5.698 0.244
65.9587 5.677 0.243
65.9791 5.240 0.234
65.9996 5.010 0.228
66.0201 5.073 0.230
66.0405 5.021 0.229
66.0610 4.969 0.228
66.0815 5.083 0.230
66.1019 4.958 0.227
66.1224 5.698 0.244
66.1429 5.042 0.229
66.1633 5.219 0.233
66.1838 5.406 0.237
66.2042 4.938 0.227
66.2247 5.292 0.235
66.2452 5.313 0.235
66.2656 5.302 0.235
66.2861 5.156 0.232
66.3066 5.229 0.233
66.3270 5.323 0.235
66.3475 5.302 0.235
66.3679 5.208 0.233
66.3884 4.885 0.226
66.4089 5.125 0.231
66.4293 4.865 0.225
66.4498 5.375 0.237
66.4703 4.875 0.225
66.4907 5.104 0.231
66.5112 5.208 0.233
66.5316 5.219 0.233
66.5521 5.219 0.233
66.5726 5.552 0.240
66.5930 5.427 0.238
66.6135 5.250 0.234
66.6340 4.990 0.228
66.6544 5.177 0.232
66.6749 4.896 0.226
66.6953 5.188 0.232
66.7158 5.281 0.235
66.7363 5.240 0.234
66.7567 5.333 0.236
66.7772 4.854 0.225
66.7977 5.042 0.229
66.8181 5.229 0.233
66.8386 5.125 0.231
66.8590 5.531 0.240
66.8795 5.094 0.230
66.9000 5.135 0.231
66.9204 5.135 0.231
66.9409 5.552 0.240
66.9614 5.260 0.234
66.9818 5.510 0.240
67.0023 5.635 0.242
67.0228 5.615 0.242
67.0432 5.323 0.235
67.0637 5.313 0.235
67.0841 5.458 0.238
67.1046 5.729 0.244
67.1251 5.979 0.250
67.1455 5.938 0.249
67.1660 5.750 0.245
67.1865 5.625 0.242
67.2069 5.479 0.239
67.2274 5.302 0.235
67.2478 5.604 0.242
67.2683 5.625 0.242
67.2888 5.813 0.246
67.3092 5.688 0.243
67.3297 5.896 0.248
67.3502 5.625 0.242
67.3706 5.604 0.242
67.3911 5.708 0.244
67.4115 5.167 0.232
67.4320 5.750 0.245
67.4525 6.125 0.253
67.4729 5.406 0.237
67.4934 5.146 0.232
67.5139 6.083 0.252
67.5343 5.667 0.243
67.5548 5.802 0.246
67.5752 5.938 0.249
67.5957 5.521 0.240
67.6162 5.333 0.236
67.6366 5.563 0.241
67.6571 5.229 0.233
67.6776 5.417 0.238
67.6980 5.542 0.240
67.7185 5.469 0.239
67.7389 5.563 0.241
67.7594 5.385 0.237
67.7799 5.521 0.240
67.8003 5.146 0.232
67.8208 5.031 0.229
67.8413 5.156 0.232
67.8617 4.906 0.226
67.8822 5.385 0.237
67.9027 4.625 0.219
67.9231 5.250 0.234
67.9436 4.844 0.225
67.9640 5.104 0.231
67.9845 4.896 0.226
68.0050 4.906 0.226
68.0254 5.427 0.238
68.0459 5.000 0.228
68.0664 4.740 0.222
68.0868 4.719 0.222
68.1073 5.188 0.232
68.1277 4.979 0.228
68.1482 4.313 0.212
68.1687 4.365 0.213
68.1891 5.063 0.230
68.2096 4.802 0.224
68.2301 4.958 0.227
68.2505 4.333 0.212
68.2710 4.917 0.226
68.2914 4.698 0.221
68.3119 4.729 0.222
68.3324 4.958 0.227
68.3528 4.958 0.227
68.3733 4.896 0.226
68.3938 4.854 0.225
68.4142 4.927 0.227
68.4347 4.542 0.218
68.4551 5.229 0.233
68.4756 4.844 0.225
68.4961 4.531 0.217
68.5165 4.969 0.228
68.5370 4.521 0.217
68.5575 4.927 0.227
68.5779 4.708 0.221
68.5984 4.490 0.216
68.6189 4.979 0.228
68.6393 5.042 0.229
68.6598 4.760 0.223
68.6802 5.260 0.234
68.7007 4.458 0.216
68.7212 4.958 0.227
68.7416 4.396 0.214
68.7621 4.396 0.214
68.7826 4.948 0.227
68.8030 4.844 0.225
68.8235 4.646 0.220
68.8439 5.115 0.231
68.8644 4.948 0.227
68.8849 5.250 0.234
68.9053 4.458 0.216
68.9258 4.719 0.222
68.9463 5.417 0.238
68.9667 4.896 0.226
68.9872 4.688 0.221
69.0076 5.094 0.230
69.0281 5.635 0.242
69.0486 5.167 0.232
69.0690 5.042 0.229
69.0895 5.219 0.233
69.1100 5.240 0.234
69.1304 5.125 0.231
69.1509 5.208 0.233
69.1713 5.292 0.235
69.1918 4.979 0.228
69.2123 4.854 0.225
69.2327 5.156 0.232
69.2532 5.052 0.229
69.2737 5.198 0.233
69.2941 4.917 0.226
69.3146 5.260 0.234
69.3350 4.885 0.226
69.3555 4.656 0.220
69.3760 4.958 0.227
69.3964 4.771 0.223
69.4169 4.719 0.222
69.4374 4.573 0.218
69.4578 4.917 0.226
69.4783 5.010 0.228
69.4988 4.740 0.222
69.5192 4.719 0.222
69.5397 4.635 0.220
69.5601 4.510 0.217
69.5806 4.854 0.225
69.6011 4.760 0.223
69.6215 4.792 0.223
69.6420 4.573 0.218
69.6625 4.594 0.219
69.6829 4.417 0.214
69.7034 4.583 0.219
69.7238 4.417 0.214
69.7443 4.667 0.220
69.7648 4.802 0.224
69.7852 4.792 0.223
69.8057 4.656 0.220
69.8262 4.927 0.227
69.8466 4.813 0.224
69.8671 4.490 0.216
69.8875 4.896 0.226
69.9080 4.906 0.226
69.9285 4.844 0.225
69.9489 4.510 0.217
69.9694 5.063 0.230
69.9899 4.729 0.222
70.0103 4.917 0.226
70.0308 4.917 0.226
70.0512 4.583 0.219
70.0717 4.771 0.223
70.0922 5.010 0.228
70.1126 5.000 0.228
70.1331 4.927 0.227
70.1536 5.063 0.230
70.1740 5.167 0.232
70.1945 5.365 0.236
70.2149 4.646 0.220
70.2354 4.781 0.223
70.2559 5.000 0.228
70.2763 4.781 0.223
70.2968 5.115 0.231
70.3173 4.406 0.214
70.3377 4.875 0.225
70.3582 4.646 0.220
70.3787 4.740 0.222
70.3991 5.229 0.233
70.4196 4.417 0.214
70.4400 4.906 0.226
70.4605 5.229 0.233
70.4810 4.813 0.224
70.5014 4.688 0.221
70.5219 4.552 0.218
70.5424 4.500 0.217
70.5628 4.490 0.216
70.5833 4.427 0.215
70.6037 4.490 0.216
70.6242 4.740 0.222
70.6447 4.490 0.216
70.6651 4.948 0.227
70.6856 4.510 0.217
70.7061 4.729 0.222
70.7265 4.792 0.223
70.7470 4.281 0.211
70.7674 4.615 0.219
70.7879 4.385 0.214
70.8084 4.521 0.217
70.8288 4.969 0.228
70.8493 4.698 0.221
70.8698 5.052 0.229
70.8902 4.563 0.218
70.9107 4.417 0.214
70.9311 4.854 0.225
70.9516 4.781 0.223
70.9721 4.531 0.217
70.9925 4.688 0.221
71.0130 4.615 0.219
71.0335 4.146 0.208
71.0539 4.604 0.219
71.0744 4.042 0.205
71.0948 4.521 0.217
71.1153 4.521 0.217
71.1358 4.302 0.212
71.1562 4.208 0.209
71.1767 4.500 0.217
71.1972 4.292 0.211
71.2176 4.104 0.207
71.2381 4.563 0.218
71.2586 4.260 0.211
71.2790 4.198 0.209
71.2995 4.625 0.219
71.3199 4.406 0.214
71.3404 4.500 0.217
71.3609 4.021 0.205
71.3813 4.104 0.207
71.4018 4.115 0.207
71.4223 4.406 0.214
71.4427 4.427 0.215
71.4632 4.406 0.214
71.4836 4.604 0.219
71.5041 4.563 0.218
71.5246 4.406 0.214
71.5450 4.583 0.219
71.5655 4.854 0.225
71.5860 4.281 0.211
71.6064 4.635 0.220
71.6269 4.313 0.212
71.6473 4.542 0.218
71.6678 4.271 0.211
71.6883 4.313 0.212
71.7087 4.125 0.207
71.7292 4.531 0.217
71.7497 4.323 0.212
71.7701 4.313 0.212
71.7906 4.490 0.216
71.8110 4.573 0.218
71.8315 3.844 0.200
71.8520 4.302 0.212
71.8724 4.469 0.216
71.8929 3.823 0.200
71.9134 4.094 0.207
71.9338 4.677 0.221
71.9543 4.375 0.213
71.9747 4.802 0.224
71.9952 4.323 0.212
72.0157 4.146 0.208
72.0361 4.177 0.209
72.0566 4.708 0.221
72.0771 4.510 0.217
72.0975 4.688 0.221
72.1180 4.760 0.223
72.1385 5.323 0.235
72.1589 4.938 0.227
72.1794 5.042 0.229
72.1998 4.479 0.216
72.2203 4.604 0.219
72.2408 4.604 0.219
72.2612 4.688 0.221
72.2817 4.917 0.226
72.3022 4.615 0.219
72.3226 5.073 0.230
72.3431 4.771 0.223
72.3635 4.677 0.221
72.3840 4.740 0.222
72.4045 4.354 0.213
72.4249 4.781 0.223
72.4454 4.396 0.214
72.4659 3.938 0.203
72.4863 4.240 0.210
72.5068 4.115 0.207
72.5272 4.042 0.205
72.5477 4.625 0.219
72.5682 4.167 0.208
72.5886 4.479 0.216
72.6091 4.500 0.217
72.6296 4.385 0.214
72.6500 4.271 0.211
72.6705 4.167 0.208
72.6909 4.125 0.207
72.7114 4.229 0.210
72.7319 4.042 0.205
72.7523 3.958 0.203
72.7728 4.313 0.212
72.7933 4.448 0.215
72.8137 4.083 0.206
72.8342 4.042 0.205
72.8547 4.156 0.208
72.8751 4.021 0.205
72.8956 4.042 0.205
72.9160 4.323 0.212
72.9365 4.406 0.214
72.9570 3.750 0.198
72.9774 4.073 0.206
72.9979 4.333 0.212
73.0184 4.156 0.208
73.0388 4.313 0.212
73.0593 4.167 0.208
73.0797 4.052 0.205
73.1002 4.344 0.213
73.1207 4.323 0.212
73.1411 4.250 0.210
73.1616 4.396 0.214
73.1821 4.063 0.206
73.2025 4.146 0.208
73.2230 3.958 0.203
73.2434 3.927 0.202
73.2639 4.302 0.212
73.2844 4.469 0.216
73.3048 4.115 0.207
73.3253 3.948 0.203
73.3458 4.313 0.212
73.3662 4.375 0.213
73.3867 4.281 0.211
73.4071 3.927 0.202
73.4276 4.417 0.214
73.4481 4.083 0.206
73.4685 3.792 0.199
73.4890 4.135 0.208
73.5095 4.010 0.204
73.5299 3.990 0.204
73.5504 4.198 0.209
73.5708 4.010 0.204
73.5913 4.250 0.210
73.6118 3.958 0.203
73.6322 4.104 0.207
73.6527 4.177 0.209
73.6732 3.563 0.193
73.6936 4.260 0.211
73.7141 3.885 0.201
73.7346 4.573 0.218
73.7550 4.115 0.207
73.7755 3.958 0.203
73.7959 4.667 0.220
73.8164 4.125 0.207
73.8369 4.479 0.216
73.8573 4.583 0.219
73.8778 3.990 0.204
73.8983 4.313 0.212
73.9187 4.573 0.218
73.9392 4.167 0.208
73.9596 4.188 0.209
73.9801 4.594 0.219
74.0006 4.656 0.220
74.0210 4.813 0.224
74.0415 4.219 0.210
74.0620 4.500 0.217
74.0824 4.313 0.212
74.1029 4.021 0.205
74.1233 4.344 0.213
74.1438 4.448 0.215
74.1643 4.083 0.206
74.1847 4.510 0.217
74.2052 4.000 0.204
74.2257 4.427 0.215
74.2461 4.490 0.216
74.2666 4.094 0.207
74.2870 4.354 0.213
74.3075 4.229 0.210
74.3280 4.198 0.209
74.3484 4.083 0.206
74.3689 4.000 0.204
74.3894 3.906 0.202
74.4098 4.021 0.205
74.4303 4.323 0.212
74.4507 4.000 0.204
74.4712 3.667 0.195
74.4917 3.813 0.199
74.5121 3.833 0.200
74.5326 3.896 0.201
74.5531 3.750 0.198
74.5735 3.677 0.196
74.5940 3.958 0.203
74.6145 3.594 0.193
74.6349 3.938 0.203
74.6554 3.802 0.199
74.6758 3.896 0.201
74.6963 3.844 0.200
74.7168 4.000 0.204
74.7372 3.990 0.204
74.7577 3.948 0.203
74.7782 3.708 0.197
74.7986 3.990 0.204
74.8191 3.719 0.197
74.8395 4.229 0.210
74.8600 3.740 0.197
74.8805 4.010 0.204
74.9009 3.510 0.191
74.9214 4.031 0.205
74.9419 4.271 0.211
74.9623 3.990 0.204
74.9828 4.500 0.217
75.0032 4.333 0.212
75.0237 4.042 0.205
75.0442 4.094 0.207
75.0646 4.188 0.209
75.0851 3.896 0.201
75.1056 4.490 0.216
75.1260 3.802 0.199
75.1465 4.229 0.210
75.1669 4.281 0.211
75.1874 3.906 0.202
75.2079 4.094 0.207
75.2283 4.208 0.209
75.2488 4.406 0.214
75.2693 4.063 0.206
75.2897 4.104 0.207
75.3102 3.969 0.203
75.3306 4.125 0.207
75.3511 4.167 0.208
75.3716 3.896 0.201
75.3920 3.938 0.203
75.4125 4.198 0.209
75.4330 4.125 0.207
75.4534 3.792 0.199
75.4739 4.219 0.210
75.4944 3.948 0.203
75.5148 3.948 0.203
75.5353 4.104 0.207
75.5557 4.208 0.209
75.5762 4.333 0.212
75.5967 4.146 0.208
75.6171 3.771 0.198
75.6376 4.031 0.205
75.6581 4.250 0.210
75.6785 4.281 0.211
75.6990 3.958 0.203
75.7194 4.198 0.209
75.7399 4.604 0.219
75.7604 3.990 0.204
75.7808 4.469 0.216
75.8013 4.552 0.218
75.8218 4.490 0.216
75.8422 4.521 0.217
75.8627 4.917 0.226
75.8831 4.615 0.219
75.9036 4.438 0.215
75.9241 4.927 0.227
75.9445 4.542 0.218
75.9650 4.229 0.210
75.9855 4.385 0.214
76.0059 4.542 0.218
76.0264 4.510 0.217
76.0468 4.813 0.224
76.0673 3.990 0.204
76.0878 4.333 0.212
76.1082 4.219 0.210
76.1287 4.542 0.218
76.1492 3.865 0.201
76.1696 4.365 0.213
76.1901 4.125 0.207
76.2105 4.281 0.211
76.2310 4.292 0.211
76.2515 4.000 0.204
76.2719 3.979 0.204
76.2924 3.990 0.204
76.3129 3.979 0.204
76.3333 4.448 0.215
76.3538 4.000 0.204
76.3743 4.229 0.210
76.3947 4.438 0.215
76.4152 3.896 0.201
76.4356 3.833 0.200
76.4561 4.052 0.205
76.4766 4.271 0.211
76.4970 4.063 0.206
76.5175 4.146 0.208
76.5380 4.063 0.206
76.5584 3.917 0.202
76.5789 4.156 0.208
76.5993 3.813 0.199
76.6198 3.708 0.197
76.6403 4.031 0.205
76.6607 3.708 0.197
76.6812 3.677 0.196
76.7017 4.052 0.205
76.7221 3.927 0.202
76.7426 3.958 0.203
76.7630 4.354 0.213
76.7835 3.875 0.201
76.8040 4.146 0.208
76.8244 3.813 0.199
76.8449 4.021 0.205
76.8654 3.958 0.203
76.8858 3.781 0.198
76.9063 3.604 0.194
76.9267 3.948 0.203
76.9472 3.844 0.200
76.9677 3.719 0.197
76.9881 3.906 0.202
77.0086 3.938 0.203
77.0291 3.781 0.198
77.0495 3.938 0.203
77.0700 3.823 0.200
77.0905 3.917 0.202
77.1109 3.917 0.202
77.1314 3.792 0.199
77.1518 4.156 0.208
77.1723 3.917 0.202
77.1928 4.042 0.205
77.2132 4.156 0.208
77.2337 3.823 0.200
77.2542 3.979 0.204
77.2746 3.969 0.203
77.2951 4.031 0.205
77.3155 4.125 0.207
77.3360 3.677 0.196
77.3565 3.667 0.195
77.3769 3.844 0.200
77.3974 4.333 0.212
77.4179 4.094 0.207
77.4383 3.844 0.200
77.4588 4.063 0.206
77.4792 4.188 0.209
77.4997 3.885 0.201
77.5202 3.813 0.199
77.5406 4.021 0.205
77.5611 4.146 0.208
77.5816 3.875 0.201
77.6020 3.781 0.198
77.6225 3.865 0.201
77.6429 4.198 0.209
77.6634 3.948 0.203
77.6839 3.865 0.201
77.7043 4.010 0.204
77.7248 4.313 0.212
77.7453 4.229 0.210
77.7657 4.146 0.208
77.7862 4.417 0.214
77.8066 4.417 0.214
77.8271 4.333 0.212
77.8476 4.635 0.220
77.8680 4.104 0.207
77.8885 4.229 0.210
77.9090 4.260 0.211
77.9294 4.000 0.204
77.9499 3.990 0.204
77.9704 4.000 0.204
77.9908 4.333 0.212
78.0113 4.313 0.212
78.0317 4.156 0.208
78.0522 4.115 0.207
78.0727 4.260 0.211
78.0931 3.917 0.202
78.1136 4.250 0.210
78.1341 4.260 0.211
78.1545 4.188 0.209
78.1750 3.781 0.198
78.1954 3.885 0.201
78.2159 3.927 0.202
78.2364 4.042 0.205
78.2568 3.802 0.199
78.2773 3.938 0.203
78.2978 3.844 0.200
78.3182 4.104 0.207
78.3387 3.813 0.199
78.3591 4.042 0.205
78.3796 4.417 0.214
78.4001 3.958 0.203
78.4205 4.198 0.209
78.4410 4.323 0.212
78.4615 4.375 0.213
78.4819 4.000 0.204
78.5024 3.906 0.202
78.5228 3.938 0.203
78.5433 4.031 0.205
78.5638 4.198 0.209
78.5842 3.927 0.202
78.6047 4.354 0.213
78.6252 3.958 0.203
78.6456 3.865 0.201
78.6661 3.865 0.201
78.6865 4.375 0.213
78.7070 3.844 0.200
78.7275 4.094 0.207
78.7479 4.146 0.208
78.7684 4.135 0.208
78.7889 3.813 0.199
78.8093 3.844 0.200
78.8298 4.323 0.212
78.8503 4.083 0.206
78.8707 4.021 0.205
78.8912 4.302 0.212
78.9116 3.531 0.192
78.9321 3.969 0.203
78.9526 3.813 0.199
78.9730 3.844 0.200
78.9935 4.281 0.211
79.0140 4.135 0.208
79.0344 4.292 0.211
79.0549 3.760 0.198
79.0753 3.990 0.204
79.0958 4.021 0.205
79.1163 3.750 0.198
79.1367 3.990 0.204
79.1572 3.760 0.198
79.1777 3.958 0.203
79.1981 4.104 0.207
79.2186 4.010 0.204
79.2390 3.563 0.193
79.2595 3.563 0.193
79.2800 3.729 0.197
79.3004 3.719 0.197
79.3209 4.146 0.208
79.3414 4.219 0.210
79.3618 4.000 0.204
79.3823 3.833 0.200
79.4027 4.208 0.209
79.4232 4.500 0.217
79.4437 3.875 0.201
79.4641 4.125 0.207
79.4846 3.906 0.202
79.5051 4.146 0.208
79.5255 3.583 0.193
79.5460 4.042 0.205
79.5664 4.219 0.210
79.5869 4.021 0.205
79.6074 3.917 0.202
79.6278 4.000 0.204
79.6483 4.031 0.205
79.6688 4.240 0.210
79.6892 4.302 0.212
79.7097 3.875 0.201
79.7302 4.375 0.213
79.7506 4.417 0.214
79.7711 4.104 0.207
79.7915 3.708 0.197
79.8120 3.990 0.204
79.8325 4.021 0.205
79.8529 3.979 0.204
79.8734 3.875 0.201
79.8939 4.167 0.208
79.9143 4.052 0.205
79.9348 3.719 0.197
79.9552 3.854 0.200
79.9757 4.208 0.209
79.9962 3.854 0.200
