'Id: "" Comment: "" Operator: "Lab Manager" Anode: "Cu" Scantype: "Locked Coupled" TimePerStep: "96" X: "0" Y: "0" Z: "0" 
5.0000 22.208 0.481
5.0205 23.000 0.489
5.0409 22.219 0.481
5.0614 22.490 0.484
5.0819 21.990 0.479
5.1023 20.604 0.463
5.1228 22.042 0.479
5.1432 22.344 0.482
5.1637 21.844 0.477
5.1842 22.281 0.482
5.2046 21.813 0.477
5.2251 21.854 0.477
5.2456 21.323 0.471
5.2660 22.198 0.481
5.2865 22.396 0.483
5.3069 22.177 0.481
5.3274 21.656 0.475
5.3479 22.167 0.481
5.3683 20.438 0.461
5.3888 21.656 0.475
5.4093 21.000 0.468
5.4297 20.250 0.459
5.4502 21.938 0.478
5.4706 21.323 0.471
5.4911 21.875 0.477
5.5116 21.667 0.475
5.5320 21.729 0.476
5.5525 22.104 0.480
5.5730 21.135 0.469
5.5934 21.875 0.477
5.6139 22.604 0.485
5.6343 22.417 0.483
5.6548 21.927 0.478
5.6753 22.375 0.483
5.6957 22.094 0.480
5.7162 22.917 0.489
5.7367 24.010 0.500
5.7571 23.396 0.494
5.7776 23.885 0.499
5.7980 23.844 0.498
5.8185 24.573 0.506
5.8390 25.688 0.517
5.8594 25.677 0.517
5.8799 26.146 0.522
5.9004 26.719 0.528
5.9208 27.958 0.540
5.9413 28.406 0.544
5.9618 29.438 0.554
5.9822 31.219 0.570
6.0027 31.771 0.575
6.0231 33.563 0.591
6.0436 35.000 0.604
6.0641 35.760 0.610
6.0845 39.219 0.639
6.1050 39.542 0.642
6.1255 42.719 0.667
6.1459 44.698 0.682
6.1664 47.667 0.705
6.1868 49.125 0.715
6.2073 50.948 0.728
6.2278 54.844 0.756
6.2482 56.313 0.766
6.2687 55.229 0.758
6.2892 55.479 0.760
6.3096 53.031 0.743
6.3301 51.646 0.733
6.3505 49.125 0.715
6.3710 44.906 0.684
6.3915 43.938 0.677
6.4119 42.250 0.663
6.4324 39.865 0.644
6.4529 39.010 0.637
6.4733 35.885 0.611
6.4938 34.542 0.600
6.5142 32.792 0.584
6.5347 32.677 0.583
6.5552 29.740 0.557
6.5756 29.292 0.552
6.5961 28.625 0.546
6.6166 28.063 0.541
6.6370 27.063 0.531
6.6575 26.677 0.527
6.6779 25.167 0.512
6.6984 25.302 0.513
6.7189 23.542 0.495
6.7393 24.417 0.504
6.7598 24.146 0.502
6.7803 23.708 0.497
6.8007 22.823 0.488
6.8212 22.625 0.485
6.8417 22.573 0.485
6.8621 23.510 0.495
6.8826 22.688 0.486
6.9030 23.021 0.490
6.9235 22.885 0.488
6.9440 22.594 0.485
6.9644 23.115 0.491
6.9849 24.865 0.509
7.0054 24.792 0.508
7.0258 25.135 0.512
7.0463 28.010 0.540
7.0667 31.438 0.572
7.0872 33.958 0.595
7.1077 40.104 0.646
7.1281 41.729 0.659
7.1486 35.417 0.607
7.1691 28.719 0.547
7.1895 25.656 0.517
7.2100 22.302 0.482
7.2304 21.792 0.476
7.2509 21.292 0.471
7.2714 21.406 0.472
7.2918 21.260 0.471
7.3123 20.417 0.461
7.3328 20.094 0.458
7.3532 19.698 0.453
7.3737 21.094 0.469
7.3941 20.083 0.457
7.4146 20.865 0.466
7.4351 19.698 0.453
7.4555 20.104 0.458
7.4760 19.646 0.452
7.4965 20.146 0.458
7.5169 19.771 0.454
7.5374 20.479 0.462
7.5579 19.979 0.456
7.5783 20.594 0.463
7.5988 19.771 0.454
7.6192 20.063 0.457
7.6397 19.115 0.446
7.6602 19.219 0.447
7.6806 19.260 0.448
7.7011 19.313 0.449
7.7216 19.302 0.448
7.7420 19.365 0.449
7.7625 19.448 0.450
7.7829 19.083 0.446
7.8034 18.427 0.438
7.8239 18.865 0.443
7.8443 19.771 0.454
7.8648 19.250 0.448
7.8853 19.615 0.452
7.9057 19.594 0.452
7.9262 19.188 0.447
7.9466 19.958 0.456
7.9671 18.906 0.444
7.9876 19.667 0.453
8.0080 19.615 0.452
8.0285 18.990 0.445
8.0490 18.771 0.442
8.0694 19.677 0.453
8.0899 19.625 0.452
8.1103 19.125 0.446
8.1308 19.021 0.445
8.1513 19.531 0.451
8.1717 19.375 0.449
8.1922 20.542 0.463
8.2127 19.969 0.456
8.2331 20.354 0.460
8.2536 20.375 0.461
8.2740 20.708 0.464
8.2945 20.208 0.459
8.3150 19.625 0.452
8.3354 19.188 0.447
8.3559 19.115 0.446
8.3764 19.833 0.455
8.3968 19.385 0.449
8.4173 19.146 0.447
8.4378 19.000 0.445
8.4582 19.188 0.447
8.4787 19.521 0.451
8.4991 19.615 0.452
8.5196 18.979 0.445
8.5401 18.583 0.440
8.5605 18.844 0.443
8.5810 18.979 0.445
8.6015 18.656 0.441
8.6219 19.115 0.446
8.6424 18.615 0.440
8.6628 18.844 0.443
8.6833 19.208 0.447
8.7038 19.365 0.449
8.7242 19.948 0.456
8.7447 20.167 0.458
8.7652 19.490 0.451
8.7856 21.823 0.477
8.8061 22.177 0.481
8.8265 23.042 0.490
8.8470 24.115 0.501
8.8675 24.594 0.506
8.8879 25.531 0.516
8.9084 27.635 0.537
8.9289 29.354 0.553
8.9493 31.615 0.574
8.9698 36.063 0.613
8.9902 42.438 0.665
9.0107 52.927 0.743
9.0312 72.146 0.867
9.0516 99.250 1.017
9.0721 138.927 1.203
9.0926 191.260 1.411
9.1130 236.917 1.571
9.1335 207.635 1.471
9.1539 119.281 1.115
9.1744 56.083 0.764
9.1949 35.781 0.611
9.2153 30.844 0.567
9.2358 29.771 0.557
9.2563 30.417 0.563
9.2767 33.865 0.594
9.2972 35.750 0.610
9.3177 38.833 0.636
9.3381 37.365 0.624
9.3586 33.740 0.593
9.3790 31.208 0.570
9.3995 27.740 0.538
9.4200 26.813 0.528
9.4404 26.521 0.526
9.4609 25.573 0.516
9.4814 25.896 0.519
9.5018 26.198 0.522
9.5223 26.615 0.527
9.5427 27.219 0.532
9.5632 26.771 0.528
9.5837 27.438 0.535
9.6041 26.948 0.530
9.6246 28.573 0.546
9.6451 29.167 0.551
9.6655 29.521 0.555
9.6860 31.542 0.573
9.7064 32.406 0.581
9.7269 33.260 0.589
9.7474 35.917 0.612
9.7678 38.625 0.634
9.7883 41.635 0.659
9.8088 47.625 0.704
9.8292 55.427 0.760
9.8497 73.115 0.873
9.8701 96.385 1.002
9.8906 122.042 1.128
9.9111 130.542 1.166
9.9315 102.323 1.032
9.9520 65.010 0.823
9.9725 44.635 0.682
9.9929 38.448 0.633
10.0134 35.760 0.610
10.0338 32.208 0.579
10.0543 28.271 0.543
10.0748 26.208 0.522
10.0952 24.479 0.505
10.1157 24.042 0.500
10.1362 22.938 0.489
10.1566 21.302 0.471
10.1771 21.313 0.471
10.1976 20.448 0.462
10.2180 20.521 0.462
10.2385 19.750 0.454
10.2589 19.781 0.454
10.2794 19.583 0.452
10.2999 18.813 0.443
10.3203 19.104 0.446
10.3408 18.927 0.444
10.3613 19.000 0.445
10.3817 19.313 0.449
10.4022 19.281 0.448
10.4226 18.594 0.440
10.4431 18.125 0.435
10.4636 18.760 0.442
10.4840 18.083 0.434
10.5045 17.354 0.425
10.5250 18.229 0.436
10.5454 18.281 0.436
10.5659 17.719 0.430
10.5863 17.875 0.432
10.6068 17.333 0.425
10.6273 17.719 0.430
10.6477 17.250 0.424
10.6682 18.052 0.434
10.6887 18.031 0.433
10.7091 17.208 0.423
10.7296 17.333 0.425
10.7500 17.563 0.428
10.7705 17.323 0.425
10.7910 16.917 0.420
10.8114 16.479 0.414
10.8319 17.573 0.428
10.8524 16.875 0.419
10.8728 17.177 0.423
10.8933 16.615 0.416
10.9137 16.781 0.418
10.9342 16.458 0.414
10.9547 15.708 0.405
10.9751 16.844 0.419
10.9956 15.896 0.407
11.0161 16.042 0.409
11.0365 16.177 0.411
11.0570 15.844 0.406
11.0775 15.865 0.407
11.0979 16.385 0.413
11.1184 16.625 0.416
11.1388 15.354 0.400
11.1593 16.156 0.410
11.1798 15.698 0.404
11.2002 16.677 0.417
11.2207 16.042 0.409
11.2412 15.104 0.397
11.2616 15.750 0.405
11.2821 15.177 0.398
11.3025 15.615 0.403
11.3230 15.594 0.403
11.3435 15.708 0.405
11.3639 15.854 0.406
11.3844 15.406 0.401
11.4049 15.635 0.404
11.4253 15.292 0.399
11.4458 15.833 0.406
11.4662 16.063 0.409
11.4867 15.042 0.396
11.5072 15.521 0.402
11.5276 16.135 0.410
11.5481 16.448 0.414
11.5686 16.146 0.410
11.5890 16.406 0.413
11.6095 16.250 0.411
11.6299 15.635 0.404
11.6504 16.563 0.415
11.6709 14.927 0.394
11.6913 15.979 0.408
11.7118 16.354 0.413
11.7323 16.354 0.413
11.7527 16.365 0.413
11.7732 16.063 0.409
11.7937 15.792 0.406
11.8141 16.552 0.415
11.8346 15.792 0.406
11.8550 16.260 0.412
11.8755 17.083 0.422
11.8960 17.177 0.423
11.9164 17.302 0.425
11.9369 17.510 0.427
11.9574 18.313 0.437
11.9778 18.323 0.437
11.9983 19.271 0.448
12.0187 18.979 0.445
12.0392 20.094 0.458
12.0597 20.229 0.459
12.0801 22.240 0.481
12.1006 22.417 0.483
12.1211 23.260 0.492
12.1415 24.448 0.505
12.1620 26.333 0.524
12.1824 27.208 0.532
12.2029 29.885 0.558
12.2234 32.927 0.586
12.2438 34.667 0.601
12.2643 36.771 0.619
12.2848 39.667 0.643
12.3052 40.583 0.650
12.3257 42.583 0.666
12.3461 42.271 0.664
12.3666 43.656 0.674
12.3871 41.896 0.661
12.4075 39.135 0.638
12.4280 37.146 0.622
12.4485 34.854 0.603
12.4689 33.531 0.591
12.4894 32.458 0.581
12.5098 31.729 0.575
12.5303 30.500 0.564
12.5508 29.031 0.550
12.5712 26.760 0.528
12.5917 25.563 0.516
12.6122 24.323 0.503
12.6326 24.458 0.505
12.6531 23.156 0.491
12.6736 22.167 0.481
12.6940 20.854 0.466
12.7145 20.458 0.462
12.7349 19.323 0.449
12.7554 19.302 0.448
12.7759 19.094 0.446
12.7963 18.281 0.436
12.8168 17.510 0.427
12.8373 17.260 0.424
12.8577 16.438 0.414
12.8782 15.875 0.407
12.8986 15.281 0.399
12.9191 15.750 0.405
12.9396 15.031 0.396
12.9600 15.760 0.405
12.9805 15.125 0.397
13.0010 14.500 0.389
13.0214 14.396 0.387
13.0419 14.573 0.390
13.0623 14.354 0.387
13.0828 14.573 0.390
13.1033 14.021 0.382
13.1237 14.802 0.393
13.1442 14.104 0.383
13.1647 13.771 0.379
13.1851 14.333 0.386
13.2056 14.115 0.383
13.2260 13.813 0.379
13.2465 13.229 0.371
13.2670 13.729 0.378
13.2874 13.052 0.369
13.3079 13.729 0.378
13.3284 13.396 0.374
13.3488 12.719 0.364
13.3693 13.469 0.375
13.3897 12.969 0.368
13.4102 12.021 0.354
13.4307 12.427 0.360
13.4511 12.167 0.356
13.4716 12.448 0.360
13.4921 12.906 0.367
13.5125 12.406 0.359
13.5330 12.448 0.360
13.5535 12.479 0.361
13.5739 12.958 0.367
13.5944 12.458 0.360
13.6148 12.500 0.361
13.6353 12.792 0.365
13.6558 11.677 0.349
13.6762 11.906 0.352
13.6967 11.969 0.353
13.7172 12.354 0.359
13.7376 12.219 0.357
13.7581 12.604 0.362
13.7785 11.990 0.353
13.7990 12.177 0.356
13.8195 12.354 0.359
13.8399 12.219 0.357
13.8604 11.875 0.352
13.8809 12.292 0.358
13.9013 11.406 0.345
13.9218 11.833 0.351
13.9422 11.698 0.349
13.9627 11.115 0.340
13.9832 11.813 0.351
14.0036 11.875 0.352
14.0241 12.167 0.356
14.0446 12.167 0.356
14.0650 11.979 0.353
14.0855 11.896 0.352
14.1059 11.948 0.353
14.1264 11.948 0.353
14.1469 12.365 0.359
14.1673 12.875 0.366
14.1878 13.865 0.380
14.2083 14.240 0.385
14.2287 14.979 0.395
14.2492 14.854 0.393
14.2696 13.750 0.378
14.2901 13.031 0.368
14.3106 12.458 0.360
14.3310 11.677 0.349
14.3515 12.385 0.359
14.3720 11.938 0.353
14.3924 11.958 0.353
14.4129 11.344 0.344
14.4334 11.510 0.346
14.4538 11.323 0.343
14.4743 11.427 0.345
14.4947 11.292 0.343
14.5152 11.083 0.340
14.5357 11.125 0.340
14.5561 11.396 0.345
14.5766 10.844 0.336
14.5971 10.865 0.336
14.6175 10.771 0.335
14.6380 11.125 0.340
14.6584 11.875 0.352
14.6789 11.177 0.341
14.6994 11.208 0.342
14.7198 10.990 0.338
14.7403 11.146 0.341
14.7608 10.135 0.325
14.7812 10.427 0.330
14.8017 10.813 0.336
14.8221 10.406 0.329
14.8426 10.927 0.337
14.8631 11.146 0.341
14.8835 10.688 0.334
14.9040 10.792 0.335
14.9245 10.427 0.330
14.9449 11.073 0.340
14.9654 10.646 0.333
14.9858 11.135 0.341
15.0063 10.813 0.336
15.0268 11.635 0.348
15.0472 10.750 0.335
15.0677 10.406 0.329
15.0882 10.563 0.332
15.1086 10.594 0.332
15.1291 10.521 0.331
15.1495 10.823 0.336
15.1700 10.938 0.338
15.1905 10.385 0.329
15.2109 11.167 0.341
15.2314 11.635 0.348
15.2519 11.885 0.352
15.2723 11.427 0.345
15.2928 12.031 0.354
15.3133 12.250 0.357
15.3337 13.198 0.371
15.3542 12.990 0.368
15.3746 14.302 0.386
15.3951 14.198 0.385
15.4156 14.125 0.384
15.4360 13.271 0.372
15.4565 12.615 0.362
15.4770 12.135 0.356
15.4974 11.917 0.352
15.5179 12.656 0.363
15.5383 12.677 0.363
15.5588 13.010 0.368
15.5793 12.990 0.368
15.5997 12.688 0.364
15.6202 13.000 0.368
15.6407 14.208 0.385
15.6611 15.177 0.398
15.6816 18.021 0.433
15.7020 23.406 0.494
15.7225 29.979 0.559
15.7430 46.417 0.695
15.7634 68.792 0.847
15.7839 91.125 0.974
15.8044 90.083 0.969
15.8248 67.729 0.840
15.8453 46.458 0.696
15.8657 27.240 0.533
15.8862 18.625 0.440
15.9067 16.135 0.410
15.9271 13.521 0.375
15.9476 13.052 0.369
15.9681 13.177 0.370
15.9885 12.771 0.365
16.0090 12.271 0.358
16.0295 12.052 0.354
16.0499 12.094 0.355
16.0704 11.802 0.351
16.0908 11.323 0.343
16.1113 11.417 0.345
16.1318 11.219 0.342
16.1522 11.573 0.347
16.1727 11.021 0.339
16.1932 11.438 0.345
16.2136 11.781 0.350
16.2341 12.000 0.354
16.2545 11.635 0.348
16.2750 11.438 0.345
16.2955 11.188 0.341
16.3159 11.427 0.345
16.3364 11.688 0.349
16.3569 11.938 0.353
16.3773 11.302 0.343
16.3978 11.917 0.352
16.4182 12.104 0.355
16.4387 11.292 0.343
16.4592 11.938 0.353
16.4796 11.740 0.350
16.5001 12.385 0.359
16.5206 12.063 0.354
16.5410 13.531 0.375
16.5615 12.469 0.360
16.5819 12.583 0.362
16.6024 12.469 0.360
16.6229 12.625 0.363
16.6433 12.677 0.363
16.6638 11.990 0.353
16.6843 12.448 0.360
16.7047 11.396 0.345
16.7252 11.823 0.351
16.7456 11.854 0.351
16.7661 11.719 0.349
16.7866 11.938 0.353
16.8070 11.146 0.341
16.8275 11.146 0.341
16.8480 11.260 0.342
16.8684 11.552 0.347
16.8889 11.354 0.344
16.9094 11.406 0.345
16.9298 11.177 0.341
16.9503 11.729 0.350
16.9707 11.260 0.342
16.9912 11.427 0.345
17.0117 11.490 0.346
17.0321 11.385 0.344
17.0526 11.292 0.343
17.0731 11.302 0.343
17.0935 10.417 0.329
17.1140 10.563 0.332
17.1344 11.604 0.348
17.1549 11.938 0.353
17.1754 11.021 0.339
17.1958 11.344 0.344
17.2163 11.250 0.342
17.2368 11.000 0.339
17.2572 10.865 0.336
17.2777 11.073 0.340
17.2981 11.302 0.343
17.3186 11.292 0.343
17.3391 11.698 0.349
17.3595 11.344 0.344
17.3800 12.177 0.356
17.4005 11.552 0.347
17.4209 12.042 0.354
17.4414 11.854 0.351
17.4618 11.385 0.344
17.4823 11.552 0.347
17.5028 11.771 0.350
17.5232 11.781 0.350
17.5437 11.531 0.347
17.5642 11.552 0.347
17.5846 12.302 0.358
17.6051 11.958 0.353
17.6255 12.448 0.360
17.6460 13.010 0.368
17.6665 13.219 0.371
17.6869 13.000 0.368
17.7074 13.260 0.372
17.7279 13.271 0.372
17.7483 14.240 0.385
17.7688 15.917 0.407
17.7893 19.469 0.450
17.8097 22.740 0.487
17.8302 25.083 0.511
17.8506 25.229 0.513
17.8711 22.094 0.480
17.8916 20.031 0.457
17.9120 17.000 0.421
17.9325 15.375 0.400
17.9530 14.938 0.394
17.9734 13.333 0.373
17.9939 13.385 0.373
18.0143 13.958 0.381
18.0348 13.740 0.378
18.0553 12.719 0.364
18.0757 13.521 0.375
18.0962 13.240 0.371
18.1167 12.698 0.364
18.1371 13.667 0.377
18.1576 14.135 0.384
18.1780 14.427 0.388
18.1985 14.479 0.388
18.2190 16.438 0.414
18.2394 18.240 0.436
18.2599 18.510 0.439
18.2804 17.271 0.424
18.3008 15.781 0.405
18.3213 14.510 0.389
18.3417 14.667 0.391
18.3622 14.083 0.383
18.3827 13.698 0.378
18.4031 13.521 0.375
18.4236 13.771 0.379
18.4441 13.917 0.381
18.4645 13.823 0.379
18.4850 14.323 0.386
18.5054 13.760 0.379
18.5259 14.313 0.386
18.5464 14.813 0.393
18.5668 15.844 0.406
18.5873 17.063 0.422
18.6078 17.958 0.433
18.6282 18.698 0.441
18.6487 18.260 0.436
18.6692 18.677 0.441
18.6896 18.219 0.436
18.7101 17.927 0.432
18.7305 17.854 0.431
18.7510 18.844 0.443
18.7715 18.198 0.435
18.7919 19.188 0.447
18.8124 19.865 0.455
18.8329 22.177 0.481
18.8533 26.938 0.530
18.8738 32.896 0.585
18.8942 38.792 0.636
18.9147 38.125 0.630
18.9352 32.792 0.584
18.9556 26.823 0.529
18.9761 21.406 0.472
18.9966 17.844 0.431
19.0170 15.740 0.405
19.0375 14.958 0.395
19.0579 14.438 0.388
19.0784 14.760 0.392
19.0989 14.250 0.385
19.1193 14.271 0.386
19.1398 13.906 0.381
19.1603 13.198 0.371
19.1807 12.677 0.363
19.2012 12.854 0.366
19.2216 12.552 0.362
19.2421 13.344 0.373
19.2626 12.302 0.358
19.2830 13.292 0.372
19.3035 12.865 0.366
19.3240 12.625 0.363
19.3444 13.042 0.369
19.3649 12.333 0.358
19.3853 12.177 0.356
19.4058 12.542 0.361
19.4263 12.865 0.366
19.4467 12.698 0.364
19.4672 12.938 0.367
19.4877 12.969 0.368
19.5081 12.438 0.360
19.5286 13.885 0.380
19.5491 13.396 0.374
19.5695 13.479 0.375
19.5900 13.646 0.377
19.6104 14.313 0.386
19.6309 14.104 0.383
19.6514 14.313 0.386
19.6718 14.708 0.391
19.6923 15.771 0.405
19.7128 16.271 0.412
19.7332 17.229 0.424
19.7537 18.927 0.444
19.7741 20.292 0.460
19.7946 24.135 0.501
19.8151 29.427 0.554
19.8355 33.094 0.587
19.8560 32.708 0.584
19.8765 29.042 0.550
19.8969 24.885 0.509
19.9174 21.385 0.472
19.9378 16.604 0.416
19.9583 15.854 0.406
19.9788 14.594 0.390
19.9992 13.719 0.378
20.0197 14.417 0.388
20.0402 13.115 0.370
20.0606 13.000 0.368
20.0811 12.802 0.365
20.1015 12.844 0.366
20.1220 13.167 0.370
20.1425 12.354 0.359
20.1629 12.240 0.357
20.1834 12.771 0.365
20.2039 12.771 0.365
20.2243 12.052 0.354
20.2448 12.396 0.359
20.2653 12.552 0.362
20.2857 12.500 0.361
20.3062 12.417 0.360
20.3266 12.792 0.365
20.3471 12.948 0.367
20.3676 12.615 0.362
20.3880 13.063 0.369
20.4085 12.917 0.367
20.4290 12.063 0.354
20.4494 12.333 0.358
20.4699 12.948 0.367
20.4903 12.177 0.356
20.5108 11.948 0.353
20.5313 12.344 0.359
20.5517 12.156 0.356
20.5722 12.208 0.357
20.5927 12.354 0.359
20.6131 12.021 0.354
20.6336 12.729 0.364
20.6540 11.115 0.340
20.6745 11.938 0.353
20.6950 12.302 0.358
20.7154 11.115 0.340
20.7359 11.813 0.351
20.7564 11.313 0.343
20.7768 10.563 0.332
20.7973 11.042 0.339
20.8177 10.521 0.331
20.8382 10.510 0.331
20.8587 11.260 0.342
20.8791 10.323 0.328
20.8996 10.333 0.328
20.9201 9.500 0.315
20.9405 10.615 0.333
20.9610 10.073 0.324
20.9814 10.875 0.337
21.0019 10.646 0.333
21.0224 10.875 0.337
21.0428 9.750 0.319
21.0633 10.125 0.325
21.0838 10.667 0.333
21.1042 9.990 0.323
21.1247 10.760 0.335
21.1452 10.510 0.331
21.1656 10.052 0.324
21.1861 9.948 0.322
21.2065 10.073 0.324
21.2270 10.313 0.328
21.2475 10.458 0.330
21.2679 10.771 0.335
21.2884 10.104 0.324
21.3089 11.083 0.340
21.3293 11.781 0.350
21.3498 13.052 0.369
21.3702 13.865 0.380
21.3907 13.771 0.379
21.4112 13.760 0.379
21.4316 13.688 0.378
21.4521 12.594 0.362
21.4726 11.917 0.352
21.4930 11.354 0.344
21.5135 11.146 0.341
21.5339 10.115 0.325
21.5544 10.385 0.329
21.5749 10.313 0.328
21.5953 9.615 0.316
21.6158 10.083 0.324
21.6363 9.760 0.319
21.6567 10.260 0.327
21.6772 10.021 0.323
21.6976 10.125 0.325
21.7181 10.146 0.325
21.7386 9.427 0.313
21.7590 9.333 0.312
21.7795 9.708 0.318
21.8000 10.177 0.326
21.8204 9.823 0.320
21.8409 9.958 0.322
21.8613 9.844 0.320
21.8818 9.385 0.313
21.9023 9.542 0.315
21.9227 9.760 0.319
21.9432 9.427 0.313
21.9637 10.073 0.324
21.9841 9.750 0.319
22.0046 10.479 0.330
22.0251 10.729 0.334
22.0455 11.510 0.346
22.0660 11.833 0.351
22.0864 13.146 0.370
22.1069 13.677 0.377
22.1274 13.594 0.376
22.1478 12.458 0.360
22.1683 12.813 0.365
22.1888 11.531 0.347
22.2092 10.833 0.336
22.2297 11.094 0.340
22.2501 11.427 0.345
22.2706 10.333 0.328
22.2911 10.667 0.333
22.3115 9.865 0.321
22.3320 10.010 0.323
22.3525 10.198 0.326
22.3729 9.458 0.314
22.3934 9.708 0.318
22.4138 9.708 0.318
22.4343 9.271 0.311
22.4548 9.625 0.317
22.4752 9.500 0.315
22.4957 9.313 0.311
22.5162 9.646 0.317
22.5366 9.760 0.319
22.5571 10.396 0.329
22.5775 10.313 0.328
22.5980 10.052 0.324
22.6185 10.115 0.325
22.6389 10.677 0.333
22.6594 10.948 0.338
22.6799 10.604 0.332
22.7003 10.188 0.326
22.7208 11.302 0.343
22.7412 10.885 0.337
22.7617 11.635 0.348
22.7822 11.375 0.344
22.8026 12.375 0.359
22.8231 14.427 0.388
22.8436 15.479 0.402
22.8640 19.469 0.450
22.8845 26.844 0.529
22.9050 37.896 0.628
22.9254 45.188 0.686
22.9459 40.646 0.651
22.9663 35.333 0.607
22.9868 31.042 0.569
23.0073 23.604 0.496
23.0277 16.365 0.413
23.0482 13.469 0.375
23.0687 12.240 0.357
23.0891 11.073 0.340
23.1096 10.677 0.333
23.1300 10.708 0.334
23.1505 9.656 0.317
23.1710 10.104 0.324
23.1914 10.521 0.331
23.2119 9.521 0.315
23.2324 9.271 0.311
23.2528 10.146 0.325
23.2733 8.760 0.302
23.2937 9.052 0.307
23.3142 9.406 0.313
23.3347 9.552 0.315
23.3551 9.021 0.307
23.3756 9.396 0.313
23.3961 9.323 0.312
23.4165 9.563 0.316
23.4370 9.031 0.307
23.4574 8.896 0.304
23.4779 9.031 0.307
23.4984 9.552 0.315
23.5188 9.698 0.318
23.5393 9.208 0.310
23.5598 8.677 0.301
23.5802 9.521 0.315
23.6007 9.521 0.315
23.6211 10.146 0.325
23.6416 10.365 0.329
23.6621 11.010 0.339
23.6825 13.823 0.379
23.7030 14.844 0.393
23.7235 13.719 0.378
23.7439 13.573 0.376
23.7644 12.531 0.361
23.7849 11.635 0.348
23.8053 10.510 0.331
23.8258 10.552 0.332
23.8462 9.906 0.321
23.8667 8.906 0.305
23.8872 10.146 0.325
23.9076 9.708 0.318
23.9281 10.104 0.324
23.9486 10.219 0.326
23.9690 10.156 0.325
23.9895 10.510 0.331
24.0099 10.719 0.334
24.0304 10.552 0.332
24.0509 10.917 0.337
24.0713 10.156 0.325
24.0918 10.271 0.327
24.1123 10.396 0.329
24.1327 10.667 0.333
24.1532 11.333 0.344
24.1736 11.729 0.350
24.1941 12.469 0.360
24.2146 13.135 0.370
24.2350 12.646 0.363
24.2555 12.198 0.356
24.2760 11.510 0.346
24.2964 10.990 0.338
24.3169 9.740 0.319
24.3373 10.396 0.329
24.3578 9.781 0.319
24.3783 9.958 0.322
24.3987 9.531 0.315
24.4192 10.188 0.326
24.4397 9.115 0.308
24.4601 9.823 0.320
24.4806 10.240 0.327
24.5011 10.438 0.330
24.5215 10.365 0.329
24.5420 11.094 0.340
24.5624 11.427 0.345
24.5829 10.969 0.338
24.6034 10.865 0.336
24.6238 12.813 0.365
24.6443 13.490 0.375
24.6648 14.615 0.390
24.6852 16.167 0.410
24.7057 17.333 0.425
24.7261 16.833 0.419
24.7466 16.083 0.409
24.7671 15.781 0.405
24.7875 14.000 0.382
24.8080 13.552 0.376
24.8285 12.188 0.356
24.8489 12.448 0.360
24.8694 11.677 0.349
24.8898 12.208 0.357
24.9103 11.417 0.345
24.9308 11.604 0.348
24.9512 12.354 0.359
24.9717 11.438 0.345
24.9922 11.979 0.353
25.0126 11.646 0.348
25.0331 11.896 0.352
25.0535 11.979 0.353
25.0740 11.531 0.347
25.0945 12.542 0.361
25.1149 12.229 0.357
25.1354 11.427 0.345
25.1559 11.479 0.346
25.1763 11.760 0.350
25.1968 11.344 0.344
25.2172 11.313 0.343
25.2377 10.927 0.337
25.2582 11.031 0.339
25.2786 11.104 0.340
25.2991 10.823 0.336
25.3196 10.427 0.330
25.3400 10.552 0.332
25.3605 11.115 0.340
25.3810 10.698 0.334
25.4014 10.406 0.329
25.4219 10.823 0.336
25.4423 10.885 0.337
25.4628 10.719 0.334
25.4833 11.594 0.348
25.5037 11.927 0.352
25.5242 13.083 0.369
25.5447 15.427 0.401
25.5651 18.667 0.441
25.5856 24.438 0.505
25.6060 27.552 0.536
25.6265 26.250 0.523
25.6470 22.198 0.481
25.6674 20.688 0.464
25.6879 18.177 0.435
25.7084 14.073 0.383
25.7288 12.052 0.354
25.7493 11.010 0.339
25.7697 10.688 0.334
25.7902 10.240 0.327
25.8107 10.125 0.325
25.8311 10.042 0.323
25.8516 9.854 0.320
25.8721 9.729 0.318
25.8925 9.271 0.311
25.9130 10.010 0.323
25.9334 9.802 0.320
25.9539 9.167 0.309
25.9744 9.719 0.318
25.9948 9.708 0.318
26.0153 9.500 0.315
26.0358 9.354 0.312
26.0562 9.063 0.307
26.0767 8.771 0.302
26.0971 9.313 0.311
26.1176 9.021 0.307
26.1381 9.083 0.308
26.1585 9.427 0.313
26.1790 8.813 0.303
26.1995 8.938 0.305
26.2199 9.438 0.314
26.2404 8.833 0.303
26.2609 9.125 0.308
26.2813 8.875 0.304
26.3018 9.063 0.307
26.3222 9.021 0.307
26.3427 9.052 0.307
26.3632 8.760 0.302
26.3836 9.573 0.316
26.4041 9.083 0.308
26.4246 9.438 0.314
26.4450 9.406 0.313
26.4655 9.146 0.309
26.4859 9.271 0.311
26.5064 9.365 0.312
26.5269 9.250 0.310
26.5473 9.479 0.314
26.5678 9.375 0.313
26.5883 9.167 0.309
26.6087 9.104 0.308
26.6292 9.323 0.312
26.6496 9.354 0.312
26.6701 9.188 0.309
26.6906 8.854 0.304
26.7110 9.073 0.307
26.7315 9.417 0.313
26.7520 9.385 0.313
26.7724 9.427 0.313
26.7929 9.104 0.308
26.8133 9.094 0.308
26.8338 9.427 0.313
26.8543 9.438 0.314
26.8747 8.813 0.303
26.8952 9.625 0.317
26.9157 9.271 0.311
26.9361 9.313 0.311
26.9566 9.625 0.317
26.9770 9.042 0.307
26.9975 9.010 0.306
27.0180 9.042 0.307
27.0384 9.313 0.311
27.0589 9.479 0.314
27.0794 9.708 0.318
27.0998 10.073 0.324
27.1203 9.677 0.317
27.1408 10.469 0.330
27.1612 10.292 0.327
27.1817 10.500 0.331
27.2021 11.479 0.346
27.2226 11.542 0.347
27.2431 13.021 0.368
27.2635 12.740 0.364
27.2840 13.240 0.371
27.3045 12.500 0.361
27.3249 12.771 0.365
27.3454 12.948 0.367
27.3658 11.990 0.353
27.3863 12.104 0.355
27.4068 12.073 0.355
27.4272 14.479 0.388
27.4477 16.625 0.416
27.4682 21.438 0.473
27.4886 25.635 0.517
27.5091 25.760 0.518
27.5295 21.615 0.475
27.5500 19.313 0.449
27.5705 18.802 0.443
27.5909 16.198 0.411
27.6114 13.646 0.377
27.6319 11.813 0.351
27.6523 10.823 0.336
27.6728 10.250 0.327
27.6932 10.240 0.327
27.7137 10.281 0.327
27.7342 9.708 0.318
27.7546 9.969 0.322
27.7751 10.250 0.327
27.7956 9.885 0.321
27.8160 9.698 0.318
27.8365 10.031 0.323
27.8569 9.854 0.320
27.8774 9.604 0.316
27.8979 9.917 0.321
27.9183 9.406 0.313
27.9388 9.542 0.315
27.9593 9.063 0.307
27.9797 9.156 0.309
28.0002 9.000 0.306
28.0207 8.802 0.303
28.0411 8.979 0.306
28.0616 8.865 0.304
28.0820 9.031 0.307
28.1025 9.281 0.311
28.1230 9.292 0.311
28.1434 9.281 0.311
28.1639 9.292 0.311
28.1844 9.333 0.312
28.2048 8.823 0.303
28.2253 8.125 0.291
28.2457 8.802 0.303
28.2662 8.563 0.299
28.2867 8.667 0.300
28.3071 9.156 0.309
28.3276 9.302 0.311
28.3481 8.792 0.303
28.3685 8.688 0.301
28.3890 8.917 0.305
28.4094 8.875 0.304
28.4299 8.813 0.303
28.4504 8.510 0.298
28.4708 9.219 0.310
28.4913 9.281 0.311
28.5118 9.094 0.308
28.5322 9.448 0.314
28.5527 8.917 0.305
28.5731 8.927 0.305
28.5936 9.219 0.310
28.6141 8.969 0.306
28.6345 9.083 0.308
28.6550 8.927 0.305
28.6755 9.156 0.309
28.6959 9.063 0.307
28.7164 9.563 0.316
28.7368 9.885 0.321
28.7573 9.677 0.317
28.7778 9.365 0.312
28.7982 9.677 0.317
28.8187 10.594 0.332
28.8392 10.188 0.326
28.8596 9.167 0.309
28.8801 9.396 0.313
28.9006 9.323 0.312
28.9210 9.813 0.320
28.9415 9.260 0.311
28.9619 9.385 0.313
28.9824 9.688 0.318
29.0029 8.573 0.299
29.0233 8.990 0.306
29.0438 9.271 0.311
29.0643 9.635 0.317
29.0847 9.271 0.311
29.1052 9.344 0.312
29.1256 8.938 0.305
29.1461 9.094 0.308
29.1666 8.792 0.303
29.1870 9.417 0.313
29.2075 8.844 0.304
29.2280 9.094 0.308
29.2484 8.844 0.304
29.2689 8.865 0.304
29.2893 8.479 0.297
29.3098 9.125 0.308
29.3303 9.167 0.309
29.3507 8.938 0.305
29.3712 8.969 0.306
29.3917 9.010 0.306
29.4121 9.000 0.306
29.4326 9.240 0.310
29.4530 9.292 0.311
29.4735 9.177 0.309
29.4940 9.094 0.308
29.5144 9.344 0.312
29.5349 9.552 0.315
29.5554 10.229 0.326
29.5758 11.021 0.339
29.5963 12.479 0.361
29.6168 11.771 0.350
29.6372 11.073 0.340
29.6577 10.948 0.338
29.6781 10.823 0.336
29.6986 10.188 0.326
29.7191 9.573 0.316
29.7395 9.365 0.312
29.7600 8.635 0.300
29.7805 8.000 0.289
29.8009 8.292 0.294
29.8214 8.844 0.304
29.8418 9.167 0.309
29.8623 8.875 0.304
29.8828 8.604 0.299
29.9032 8.260 0.293
29.9237 8.260 0.293
29.9442 8.427 0.296
29.9646 8.490 0.297
29.9851 8.656 0.300
30.0055 8.656 0.300
30.0260 8.615 0.300
30.0465 8.188 0.292
30.0669 8.719 0.301
30.0874 8.500 0.298
30.1079 8.396 0.296
30.1283 8.885 0.304
30.1488 8.552 0.298
30.1692 8.510 0.298
30.1897 9.448 0.314
30.2102 8.583 0.299
30.2306 8.813 0.303
30.2511 8.479 0.297
30.2716 9.042 0.307
30.2920 8.438 0.296
30.3125 8.208 0.292
30.3329 9.177 0.309
30.3534 8.417 0.296
30.3739 9.385 0.313
30.3943 8.896 0.304
30.4148 8.406 0.296
30.4353 9.698 0.318
30.4557 8.979 0.306
30.4762 9.281 0.311
30.4967 9.813 0.320
30.5171 9.438 0.314
30.5376 9.229 0.310
30.5580 9.292 0.311
30.5785 9.792 0.319
30.5990 9.563 0.316
30.6194 9.490 0.314
30.6399 9.604 0.316
30.6604 9.563 0.316
30.6808 9.667 0.317
30.7013 10.271 0.327
30.7217 9.854 0.320
30.7422 10.313 0.328
30.7627 10.469 0.330
30.7831 10.000 0.323
30.8036 9.896 0.321
30.8241 10.417 0.329
30.8445 10.208 0.326
30.8650 9.813 0.320
30.8854 9.677 0.317
30.9059 10.135 0.325
30.9264 9.792 0.319
30.9468 10.406 0.329
30.9673 10.542 0.331
30.9878 10.594 0.332
31.0082 11.177 0.341
31.0287 12.688 0.364
31.0491 12.208 0.357
31.0696 12.406 0.359
31.0901 11.833 0.351
31.1105 11.302 0.343
31.1310 11.094 0.340
31.1515 11.292 0.343
31.1719 11.167 0.341
31.1924 10.625 0.333
31.2128 10.125 0.325
31.2333 9.896 0.321
31.2538 9.823 0.320
31.2742 10.573 0.332
31.2947 10.896 0.337
31.3152 9.833 0.320
31.3356 9.604 0.316
31.3561 11.042 0.339
31.3766 10.844 0.336
31.3970 11.073 0.340
31.4175 10.052 0.324
31.4379 10.375 0.329
31.4584 9.854 0.320
31.4789 9.427 0.313
31.4993 9.458 0.314
31.5198 9.563 0.316
31.5403 9.354 0.312
31.5607 9.260 0.311
31.5812 8.875 0.304
31.6016 8.729 0.302
31.6221 9.115 0.308
31.6426 8.979 0.306
31.6630 9.063 0.307
31.6835 9.042 0.307
31.7040 8.635 0.300
31.7244 9.240 0.310
31.7449 9.115 0.308
31.7653 10.021 0.323
31.7858 9.823 0.320
31.8063 10.354 0.328
31.8267 10.990 0.338
31.8472 11.781 0.350
31.8677 11.417 0.345
31.8881 11.031 0.339
31.9086 10.927 0.337
31.9290 10.823 0.336
31.9495 10.594 0.332
31.9700 10.198 0.326
31.9904 10.792 0.335
32.0109 9.781 0.319
32.0314 10.740 0.334
32.0518 10.688 0.334
32.0723 10.802 0.335
32.0927 11.802 0.351
32.1132 12.188 0.356
32.1337 11.938 0.353
32.1541 13.833 0.380
32.1746 15.719 0.405
32.1951 20.427 0.461
32.2155 26.208 0.522
32.2360 30.271 0.562
32.2565 29.375 0.553
32.2769 25.458 0.515
32.2974 23.375 0.493
32.3178 22.458 0.484
32.3383 20.438 0.461
32.3588 15.656 0.404
32.3792 13.229 0.371
32.3997 11.781 0.350
32.4202 11.021 0.339
32.4406 10.177 0.326
32.4611 9.969 0.322
32.4815 9.396 0.313
32.5020 9.438 0.314
32.5225 9.323 0.312
32.5429 9.177 0.309
32.5634 9.010 0.306
32.5839 9.271 0.311
32.6043 9.563 0.316
32.6248 9.573 0.316
32.6452 9.781 0.319
32.6657 9.583 0.316
32.6862 9.573 0.316
32.7066 9.823 0.320
32.7271 9.594 0.316
32.7476 9.250 0.310
32.7680 9.531 0.315
32.7885 9.365 0.312
32.8089 9.750 0.319
32.8294 9.583 0.316
32.8499 9.188 0.309
32.8703 9.531 0.315
32.8908 10.531 0.331
32.9113 9.885 0.321
32.9317 10.385 0.329
32.9522 10.573 0.332
32.9726 10.010 0.323
32.9931 10.542 0.331
33.0136 10.656 0.333
33.0340 11.250 0.342
33.0545 10.781 0.335
33.0750 9.938 0.322
33.0954 11.208 0.342
33.1159 11.354 0.344
33.1364 12.469 0.360
33.1568 13.333 0.373
33.1773 14.302 0.386
33.1977 14.604 0.390
33.2182 13.875 0.380
33.2387 12.948 0.367
33.2591 12.990 0.368
33.2796 12.823 0.365
33.3001 12.479 0.361
33.3205 12.313 0.358
33.3410 12.479 0.361
33.3614 13.417 0.374
33.3819 14.146 0.384
33.4024 14.344 0.387
33.4228 12.625 0.363
33.4433 12.792 0.365
33.4638 12.656 0.363
33.4842 11.896 0.352
33.5047 11.729 0.350
33.5251 11.802 0.351
33.5456 10.448 0.330
33.5661 9.854 0.320
33.5865 9.969 0.322
33.6070 9.552 0.315
33.6275 9.479 0.314
33.6479 10.042 0.323
33.6684 9.010 0.306
33.6888 9.042 0.307
33.7093 9.281 0.311
33.7298 10.708 0.334
33.7502 10.219 0.326
33.7707 10.135 0.325
33.7912 9.604 0.316
33.8116 9.250 0.310
33.8321 9.531 0.315
33.8526 9.115 0.308
33.8730 9.083 0.308
33.8935 9.000 0.306
33.9139 8.542 0.298
33.9344 8.844 0.304
33.9549 8.646 0.300
33.9753 8.896 0.304
33.9958 8.698 0.301
34.0163 8.729 0.302
34.0367 8.656 0.300
34.0572 9.135 0.308
34.0776 9.438 0.314
34.0981 9.125 0.308
34.1186 9.469 0.314
34.1390 10.021 0.323
34.1595 10.302 0.328
34.1800 11.792 0.350
34.2004 13.979 0.382
34.2209 16.281 0.412
34.2413 19.177 0.447
34.2618 19.094 0.446
34.2823 16.906 0.420
34.3027 16.427 0.414
34.3232 15.115 0.397
34.3437 15.531 0.402
34.3641 13.708 0.378
34.3846 12.573 0.362
34.4050 11.365 0.344
34.4255 10.563 0.332
34.4460 10.125 0.325
34.4664 9.406 0.313
34.4869 9.479 0.314
34.5074 9.490 0.314
34.5278 9.188 0.309
34.5483 9.677 0.317
34.5687 10.177 0.326
34.5892 8.792 0.303
34.6097 10.010 0.323
34.6301 9.427 0.313
34.6506 9.302 0.311
34.6711 9.781 0.319
34.6915 9.260 0.311
34.7120 10.000 0.323
34.7325 9.854 0.320
34.7529 9.948 0.322
34.7734 10.823 0.336
34.7938 11.417 0.345
34.8143 11.271 0.343
34.8348 11.604 0.348
34.8552 12.958 0.367
34.8757 13.385 0.373
34.8962 15.594 0.403
34.9166 19.125 0.446
34.9371 23.615 0.496
34.9575 29.635 0.556
34.9780 33.083 0.587
34.9985 31.229 0.570
35.0189 27.115 0.531
35.0394 24.781 0.508
35.0599 24.313 0.503
35.0803 22.729 0.487
35.1008 18.823 0.443
35.1212 15.406 0.401
35.1417 14.365 0.387
35.1622 13.438 0.374
35.1826 12.667 0.363
35.2031 12.250 0.357
35.2236 10.844 0.336
35.2440 11.281 0.343
35.2645 11.250 0.342
35.2849 10.802 0.335
35.3054 10.865 0.336
35.3259 11.240 0.342
35.3463 10.729 0.334
35.3668 10.146 0.325
35.3873 10.271 0.327
35.4077 10.385 0.329
35.4282 9.292 0.311
35.4486 10.198 0.326
35.4691 10.677 0.333
35.4896 10.333 0.328
35.5100 10.594 0.332
35.5305 10.167 0.325
35.5510 10.667 0.333
35.5714 10.729 0.334
35.5919 10.000 0.323
35.6124 10.146 0.325
35.6328 10.083 0.324
35.6533 10.229 0.326
35.6737 10.052 0.324
35.6942 9.781 0.319
35.7147 9.510 0.315
35.7351 9.573 0.316
35.7556 9.594 0.316
35.7761 9.500 0.315
35.7965 8.635 0.300
35.8170 9.125 0.308
35.8374 9.073 0.307
35.8579 9.094 0.308
35.8784 8.760 0.302
35.8988 9.563 0.316
35.9193 9.854 0.320
35.9398 9.698 0.318
35.9602 10.156 0.325
35.9807 9.406 0.313
36.0011 10.458 0.330
36.0216 10.688 0.334
36.0421 10.781 0.335
36.0625 11.990 0.353
36.0830 11.792 0.350
36.1035 11.885 0.352
36.1239 11.781 0.350
36.1444 11.250 0.342
36.1648 11.615 0.348
36.1853 11.583 0.347
36.2058 10.938 0.338
36.2262 10.708 0.334
36.2467 11.125 0.340
36.2672 9.948 0.322
36.2876 10.302 0.328
36.3081 10.948 0.338
36.3285 10.208 0.326
36.3490 10.927 0.337
36.3695 10.802 0.335
36.3899 10.458 0.330
36.4104 10.677 0.333
36.4309 10.531 0.331
36.4513 10.625 0.333
36.4718 10.302 0.328
36.4923 10.531 0.331
36.5127 11.208 0.342
36.5332 12.208 0.357
36.5536 11.344 0.344
36.5741 10.729 0.334
36.5946 11.021 0.339
36.6150 10.938 0.338
36.6355 10.760 0.335
36.6560 10.698 0.334
36.6764 9.938 0.322
36.6969 10.333 0.328
36.7173 10.094 0.324
36.7378 9.875 0.321
36.7583 10.031 0.323
36.7787 10.104 0.324
36.7992 9.885 0.321
36.8197 9.563 0.316
36.8401 10.031 0.323
36.8606 9.760 0.319
36.8810 10.323 0.328
36.9015 10.323 0.328
36.9220 10.583 0.332
36.9424 10.792 0.335
36.9629 10.469 0.330
36.9834 10.656 0.333
37.0038 9.792 0.319
37.0243 10.552 0.332
37.0447 10.896 0.337
37.0652 11.479 0.346
37.0857 11.250 0.342
37.1061 12.417 0.360
37.1266 11.646 0.348
37.1471 11.771 0.350
37.1675 11.010 0.339
37.1880 10.740 0.334
37.2084 12.083 0.355
37.2289 12.479 0.361
37.2494 14.042 0.382
37.2698 14.552 0.389
37.2903 14.375 0.387
37.3108 14.281 0.386
37.3312 12.750 0.364
37.3517 12.396 0.359
37.3722 12.396 0.359
37.3926 12.396 0.359
37.4131 11.458 0.345
37.4335 11.396 0.345
37.4540 10.552 0.332
37.4745 10.854 0.336
37.4949 10.458 0.330
37.5154 9.677 0.317
37.5359 9.990 0.323
37.5563 9.875 0.321
37.5768 10.240 0.327
37.5972 9.771 0.319
37.6177 10.323 0.328
37.6382 9.646 0.317
37.6586 9.406 0.313
37.6791 10.115 0.325
37.6996 10.208 0.326
37.7200 8.969 0.306
37.7405 10.094 0.324
37.7609 9.479 0.314
37.7814 9.927 0.322
37.8019 9.813 0.320
37.8223 9.677 0.317
37.8428 10.125 0.325
37.8633 10.125 0.325
37.8837 9.250 0.310
37.9042 10.177 0.326
37.9246 10.615 0.333
37.9451 10.052 0.324
37.9656 10.208 0.326
37.9860 10.427 0.330
38.0065 10.479 0.330
38.0270 10.542 0.331
38.0474 10.979 0.338
38.0679 10.698 0.334
38.0884 10.458 0.330
38.1088 11.073 0.340
38.1293 11.156 0.341
38.1497 11.698 0.349
38.1702 10.927 0.337
38.1907 10.740 0.334
38.2111 10.521 0.331
38.2316 11.792 0.350
38.2521 11.323 0.343
38.2725 12.063 0.354
38.2930 11.521 0.346
38.3134 11.771 0.350
38.3339 11.323 0.343
38.3544 11.146 0.341
38.3748 11.250 0.342
38.3953 11.656 0.348
38.4158 11.031 0.339
38.4362 10.729 0.334
38.4567 10.115 0.325
38.4771 9.750 0.319
38.4976 9.542 0.315
38.5181 9.583 0.316
38.5385 9.490 0.314
38.5590 8.969 0.306
38.5795 9.531 0.315
38.5999 9.344 0.312
38.6204 9.667 0.317
38.6408 9.594 0.316
38.6613 9.510 0.315
38.6818 9.573 0.316
38.7022 9.729 0.318
38.7227 8.802 0.303
38.7432 9.115 0.308
38.7636 8.917 0.305
38.7841 9.250 0.310
38.8045 9.063 0.307
38.8250 8.938 0.305
38.8455 8.656 0.300
38.8659 8.563 0.299
38.8864 8.375 0.295
38.9069 8.469 0.297
38.9273 8.927 0.305
38.9478 8.781 0.302
38.9683 8.240 0.293
38.9887 8.333 0.295
39.0092 8.573 0.299
39.0296 9.365 0.312
39.0501 8.844 0.304
39.0706 8.646 0.300
39.0910 8.969 0.306
39.1115 8.823 0.303
39.1320 8.594 0.299
39.1524 9.188 0.309
39.1729 9.156 0.309
39.1933 9.635 0.317
39.2138 8.969 0.306
39.2343 8.854 0.304
39.2547 9.490 0.314
39.2752 9.208 0.310
39.2957 8.896 0.304
39.3161 8.792 0.303
39.3366 8.458 0.297
39.3570 8.938 0.305
39.3775 8.458 0.297
39.3980 9.188 0.309
39.4184 9.219 0.310
39.4389 9.125 0.308
39.4594 9.281 0.311
39.4798 9.792 0.319
39.5003 10.250 0.327
39.5207 9.885 0.321
39.5412 9.417 0.313
39.5617 9.854 0.320
39.5821 10.479 0.330
39.6026 9.667 0.317
39.6231 10.323 0.328
39.6435 9.438 0.314
39.6640 10.552 0.332
39.6844 10.635 0.333
39.7049 10.177 0.326
39.7254 10.781 0.335
39.7458 10.438 0.330
39.7663 10.938 0.338
39.7868 9.969 0.322
39.8072 10.135 0.325
39.8277 10.156 0.325
39.8482 10.469 0.330
39.8686 10.094 0.324
39.8891 10.010 0.323
39.9095 10.219 0.326
39.9300 10.333 0.328
39.9505 9.260 0.311
39.9709 9.573 0.316
39.9914 10.260 0.327
40.0119 9.375 0.313
40.0323 9.688 0.318
40.0528 9.698 0.318
40.0732 9.740 0.319
40.0937 9.958 0.322
40.1142 9.344 0.312
40.1346 9.677 0.317
40.1551 9.094 0.308
40.1756 9.698 0.318
40.1960 9.427 0.313
40.2165 9.885 0.321
40.2369 9.917 0.321
40.2574 9.833 0.320
40.2779 10.615 0.333
40.2983 9.677 0.317
40.3188 11.021 0.339
40.3393 11.115 0.340
40.3597 11.854 0.351
40.3802 13.063 0.369
40.4006 13.354 0.373
40.4211 11.510 0.346
40.4416 11.625 0.348
40.4620 11.104 0.340
40.4825 10.802 0.335
40.5030 11.052 0.339
40.5234 10.198 0.326
40.5439 9.865 0.321
40.5643 9.604 0.316
40.5848 9.958 0.322
40.6053 9.750 0.319
40.6257 10.167 0.325
40.6462 10.250 0.327
40.6667 11.469 0.346
40.6871 11.052 0.339
40.7076 12.271 0.358
40.7281 13.333 0.373
40.7485 14.448 0.388
40.7690 17.073 0.422
40.7894 21.021 0.468
40.8099 24.885 0.509
40.8304 25.458 0.515
40.8508 22.740 0.487
40.8713 20.167 0.458
40.8918 19.198 0.447
40.9122 18.948 0.444
40.9327 18.760 0.442
40.9531 17.042 0.421
40.9736 14.500 0.389
40.9941 12.844 0.366
41.0145 11.510 0.346
41.0350 11.083 0.340
41.0555 10.490 0.331
41.0759 10.458 0.330
41.0964 10.406 0.329
41.1168 9.708 0.318
41.1373 10.042 0.323
41.1578 10.563 0.332
41.1782 10.167 0.325
41.1987 10.719 0.334
41.2192 11.198 0.342
41.2396 12.719 0.364
41.2601 12.313 0.358
41.2805 12.385 0.359
41.3010 12.323 0.358
41.3215 12.094 0.355
41.3419 11.219 0.342
41.3624 11.875 0.352
41.3829 11.333 0.344
41.4033 11.042 0.339
41.4238 10.521 0.331
41.4442 9.958 0.322
41.4647 10.302 0.328
41.4852 9.729 0.318
41.5056 10.198 0.326
41.5261 9.969 0.322
41.5466 10.073 0.324
41.5670 9.740 0.319
41.5875 9.896 0.321
41.6080 9.896 0.321
41.6284 10.813 0.336
41.6489 10.885 0.337
41.6693 10.667 0.333
41.6898 11.542 0.347
41.7103 9.896 0.321
41.7307 10.448 0.330
41.7512 10.740 0.334
41.7717 11.000 0.339
41.7921 11.240 0.342
41.8126 11.854 0.351
41.8330 12.792 0.365
41.8535 13.885 0.380
41.8740 16.010 0.408
41.8944 18.167 0.435
41.9149 18.333 0.437
41.9354 17.510 0.427
41.9558 15.281 0.399
41.9763 14.708 0.391
41.9967 14.563 0.389
42.0172 13.615 0.377
42.0377 13.771 0.379
42.0581 12.313 0.358
42.0786 11.260 0.342
42.0991 9.365 0.312
42.1195 10.510 0.331
42.1400 9.146 0.309
42.1604 8.563 0.299
42.1809 8.896 0.304
42.2014 8.938 0.305
42.2218 8.333 0.295
42.2423 9.167 0.309
42.2628 9.115 0.308
42.2832 8.417 0.296
42.3037 8.729 0.302
42.3242 8.802 0.303
42.3446 9.240 0.310
42.3651 9.063 0.307
42.3855 9.260 0.311
42.4060 9.260 0.311
42.4265 9.167 0.309
42.4469 9.365 0.312
42.4674 9.115 0.308
42.4879 10.313 0.328
42.5083 10.250 0.327
42.5288 11.083 0.340
42.5492 10.885 0.337
42.5697 11.271 0.343
42.5902 11.125 0.340
42.6106 10.385 0.329
42.6311 10.958 0.338
42.6516 10.260 0.327
42.6720 10.563 0.332
42.6925 10.781 0.335
42.7129 11.115 0.340
42.7334 10.042 0.323
42.7539 10.979 0.338
42.7743 10.219 0.326
42.7948 10.938 0.338
42.8153 10.198 0.326
42.8357 9.865 0.321
42.8562 9.375 0.313
42.8766 9.875 0.321
42.8971 9.542 0.315
42.9176 10.115 0.325
42.9380 9.781 0.319
42.9585 9.396 0.313
42.9790 9.104 0.308
42.9994 8.844 0.304
43.0199 8.573 0.299
43.0403 8.719 0.301
43.0608 8.885 0.304
43.0813 8.188 0.292
43.1017 8.719 0.301
43.1222 8.094 0.290
43.1427 8.635 0.300
43.1631 8.333 0.295
43.1836 8.500 0.298
43.2041 8.208 0.292
43.2245 8.594 0.299
43.2450 8.115 0.291
43.2654 8.635 0.300
43.2859 8.229 0.293
43.3064 8.510 0.298
43.3268 8.729 0.302
43.3473 8.719 0.301
43.3678 8.917 0.305
43.3882 9.219 0.310
43.4087 9.188 0.309
43.4291 9.510 0.315
43.4496 9.448 0.314
43.4701 8.823 0.303
43.4905 9.167 0.309
43.5110 8.771 0.302
43.5315 8.469 0.297
43.5519 9.115 0.308
43.5724 8.979 0.306
43.5928 9.031 0.307
43.6133 9.448 0.314
43.6338 10.052 0.324
43.6542 9.500 0.315
43.6747 9.448 0.314
43.6952 9.885 0.321
43.7156 9.354 0.312
43.7361 9.750 0.319
43.7565 9.906 0.321
43.7770 9.979 0.322
43.7975 10.115 0.325
43.8179 9.885 0.321
43.8384 10.500 0.331
43.8589 10.396 0.329
43.8793 11.021 0.339
43.8998 10.938 0.338
43.9202 10.740 0.334
43.9407 10.333 0.328
43.9612 10.073 0.324
43.9816 10.104 0.324
44.0021 10.010 0.323
44.0226 9.313 0.311
44.0430 9.885 0.321
44.0635 9.000 0.306
44.0840 9.198 0.310
44.1044 8.594 0.299
44.1249 8.281 0.294
44.1453 8.417 0.296
44.1658 8.313 0.294
44.1863 8.052 0.290
44.2067 8.042 0.289
44.2272 8.250 0.293
44.2477 7.896 0.287
44.2681 8.094 0.290
44.2886 8.000 0.289
44.3090 7.438 0.278
44.3295 8.135 0.291
44.3500 8.104 0.291
44.3704 7.677 0.283
44.3909 7.563 0.281
44.4114 8.354 0.295
44.4318 7.875 0.286
44.4523 7.854 0.286
44.4727 7.052 0.271
44.4932 7.906 0.287
44.5137 8.427 0.296
44.5341 7.500 0.280
44.5546 8.427 0.296
44.5751 7.552 0.280
44.5955 8.021 0.289
44.6160 8.146 0.291
44.6364 7.760 0.284
44.6569 8.375 0.295
44.6774 7.979 0.288
44.6978 8.313 0.294
44.7183 8.063 0.290
44.7388 7.979 0.288
44.7592 7.781 0.285
44.7797 7.896 0.287
44.8001 7.865 0.286
44.8206 7.594 0.281
44.8411 7.938 0.288
44.8615 7.896 0.287
44.8820 8.031 0.289
44.9025 8.271 0.294
44.9229 8.010 0.289
44.9434 8.219 0.293
44.9639 8.115 0.291
44.9843 7.917 0.287
45.0048 8.677 0.301
45.0252 7.698 0.283
45.0457 8.021 0.289
45.0662 7.802 0.285
45.0866 8.021 0.289
45.1071 8.073 0.290
45.1276 8.573 0.299
45.1480 8.542 0.298
45.1685 8.771 0.302
45.1889 8.240 0.293
45.2094 8.677 0.301
45.2299 8.448 0.297
45.2503 8.979 0.306
45.2708 8.865 0.304
45.2913 8.542 0.298
45.3117 9.000 0.306
45.3322 8.563 0.299
45.3526 8.000 0.289
45.3731 7.844 0.286
45.3936 8.521 0.298
45.4140 7.917 0.287
45.4345 7.542 0.280
45.4550 7.406 0.278
45.4754 7.667 0.283
45.4959 7.969 0.288
45.5163 7.448 0.279
45.5368 7.771 0.285
45.5573 7.188 0.274
45.5777 7.927 0.287
45.5982 7.667 0.283
45.6187 7.719 0.284
45.6391 7.729 0.284
45.6596 8.115 0.291
45.6800 7.875 0.286
45.7005 7.500 0.280
45.7210 7.813 0.285
45.7414 7.906 0.287
45.7619 8.760 0.302
45.7824 8.375 0.295
45.8028 8.313 0.294
45.8233 8.958 0.305
45.8438 8.510 0.298
45.8642 8.313 0.294
45.8847 8.323 0.294
45.9051 9.188 0.309
45.9256 8.885 0.304
45.9461 8.365 0.295
45.9665 8.823 0.303
45.9870 8.708 0.301
46.0075 8.740 0.302
46.0279 8.688 0.301
46.0484 8.979 0.306
46.0688 8.500 0.298
46.0893 8.448 0.297
46.1098 8.510 0.298
46.1302 7.792 0.285
46.1507 7.656 0.282
46.1712 7.958 0.288
46.1916 7.875 0.286
46.2121 8.198 0.292
46.2325 8.417 0.296
46.2530 8.115 0.291
46.2735 8.198 0.292
46.2939 8.240 0.293
46.3144 7.906 0.287
46.3349 7.938 0.288
46.3553 8.500 0.298
46.3758 7.177 0.273
46.3962 7.802 0.285
46.4167 8.552 0.298
46.4372 7.875 0.286
46.4576 9.063 0.307
46.4781 8.406 0.296
46.4986 8.833 0.303
46.5190 8.813 0.303
46.5395 9.625 0.317
46.5600 10.156 0.325
46.5804 10.573 0.332
46.6009 11.979 0.353
46.6213 13.042 0.369
46.6418 13.854 0.380
46.6623 13.552 0.376
46.6827 13.010 0.368
46.7032 12.625 0.363
46.7237 11.667 0.349
46.7441 12.021 0.354
46.7646 12.354 0.359
46.7850 11.917 0.352
46.8055 10.927 0.337
46.8260 9.896 0.321
46.8464 9.250 0.310
46.8669 8.979 0.306
46.8874 9.563 0.316
46.9078 9.031 0.307
46.9283 8.448 0.297
46.9487 8.406 0.296
46.9692 8.094 0.290
46.9897 8.135 0.291
47.0101 8.365 0.295
47.0306 8.073 0.290
47.0511 8.021 0.289
47.0715 7.729 0.284
47.0920 7.385 0.277
47.1124 7.677 0.283
47.1329 7.729 0.284
47.1534 7.750 0.284
47.1738 8.031 0.289
47.1943 7.667 0.283
47.2148 7.688 0.283
47.2352 8.250 0.293
47.2557 7.979 0.288
47.2761 7.719 0.284
47.2966 7.438 0.278
47.3171 7.854 0.286
47.3375 7.563 0.281
47.3580 7.292 0.276
47.3785 7.479 0.279
47.3989 7.615 0.282
47.4194 7.469 0.279
47.4399 7.604 0.281
47.4603 7.573 0.281
47.4808 7.625 0.282
47.5012 7.510 0.280
47.5217 7.813 0.285
47.5422 7.813 0.285
47.5626 7.375 0.277
47.5831 7.406 0.278
47.6036 6.917 0.268
47.6240 7.396 0.278
47.6445 7.604 0.281
47.6649 7.333 0.276
47.6854 7.729 0.284
47.7059 7.573 0.281
47.7263 8.083 0.290
47.7468 8.167 0.292
47.7673 7.729 0.284
47.7877 8.167 0.292
47.8082 7.719 0.284
47.8286 7.229 0.274
47.8491 7.146 0.273
47.8696 7.198 0.274
47.8900 6.792 0.266
47.9105 7.573 0.281
47.9310 7.042 0.271
47.9514 7.615 0.282
47.9719 7.385 0.277
47.9923 7.406 0.278
48.0128 7.063 0.271
48.0333 6.865 0.267
48.0537 6.990 0.270
48.0742 7.292 0.276
48.0947 6.396 0.258
48.1151 7.125 0.272
48.1356 7.135 0.273
48.1560 6.938 0.269
48.1765 7.396 0.278
48.1970 6.688 0.264
48.2174 7.375 0.277
48.2379 6.750 0.265
48.2584 7.302 0.276
48.2788 6.740 0.265
48.2993 7.063 0.271
48.3198 6.750 0.265
48.3402 7.344 0.277
48.3607 6.594 0.262
48.3811 6.771 0.266
48.4016 7.094 0.272
48.4221 6.813 0.266
48.4425 7.281 0.275
48.4630 7.771 0.285
48.4835 7.344 0.277
48.5039 6.563 0.261
48.5244 6.813 0.266
48.5448 7.042 0.271
48.5653 7.604 0.281
48.5858 7.333 0.276
48.6062 7.260 0.275
48.6267 7.271 0.275
48.6472 6.604 0.262
48.6676 7.010 0.270
48.6881 7.365 0.277
48.7085 6.917 0.268
48.7290 7.042 0.271
48.7495 6.760 0.265
48.7699 6.656 0.263
48.7904 7.250 0.275
48.8109 6.573 0.262
48.8313 7.031 0.271
48.8518 6.563 0.261
48.8722 6.500 0.260
48.8927 6.271 0.256
48.9132 6.885 0.268
48.9336 6.510 0.260
48.9541 6.938 0.269
48.9746 7.042 0.271
48.9950 7.177 0.273
49.0155 7.302 0.276
49.0359 8.156 0.291
49.0564 8.823 0.303
49.0769 9.438 0.314
49.0973 9.531 0.315
49.1178 9.260 0.311
49.1383 8.698 0.301
49.1587 8.438 0.296
49.1792 8.438 0.296
49.1997 8.448 0.297
49.2201 8.604 0.299
49.2406 8.906 0.305
49.2610 8.896 0.304
49.2815 8.552 0.298
49.3020 8.552 0.298
49.3224 8.875 0.304
49.3429 8.896 0.304
49.3634 8.854 0.304
49.3838 9.052 0.307
49.4043 8.615 0.300
49.4247 8.656 0.300
49.4452 8.083 0.290
49.4657 8.406 0.296
49.4861 8.531 0.298
49.5066 8.010 0.289
49.5271 7.948 0.288
49.5475 8.031 0.289
49.5680 8.448 0.297
49.5884 7.521 0.280
49.6089 8.104 0.291
49.6294 7.865 0.286
49.6498 7.875 0.286
49.6703 7.615 0.282
49.6908 8.125 0.291
49.7112 7.917 0.287
49.7317 8.469 0.297
49.7521 8.792 0.303
49.7726 8.865 0.304
49.7931 8.927 0.305
49.8135 8.771 0.302
49.8340 8.094 0.290
49.8545 9.323 0.312
49.8749 8.510 0.298
49.8954 8.063 0.290
49.9158 8.750 0.302
49.9363 8.271 0.294
49.9568 8.219 0.293
49.9772 7.542 0.280
49.9977 7.688 0.283
50.0182 7.656 0.282
50.0386 7.500 0.280
50.0591 7.469 0.279
50.0796 7.854 0.286
50.1000 7.323 0.276
50.1205 7.375 0.277
50.1409 7.229 0.274
50.1614 7.292 0.276
50.1819 6.688 0.264
50.2023 7.219 0.274
50.2228 7.344 0.277
50.2433 7.563 0.281
50.2637 8.125 0.291
50.2842 7.865 0.286
50.3046 8.125 0.291
50.3251 8.375 0.295
50.3456 7.979 0.288
50.3660 7.833 0.286
50.3865 7.865 0.286
50.4070 7.781 0.285
50.4274 7.469 0.279
50.4479 7.740 0.284
50.4683 7.500 0.280
50.4888 7.563 0.281
50.5093 7.240 0.275
50.5297 7.542 0.280
50.5502 7.438 0.278
50.5707 7.917 0.287
50.5911 8.302 0.294
50.6116 7.719 0.284
50.6320 7.813 0.285
50.6525 7.906 0.287
50.6730 7.510 0.280
50.6934 7.552 0.280
50.7139 7.240 0.275
50.7344 7.146 0.273
50.7548 7.271 0.275
50.7753 7.146 0.273
50.7958 7.260 0.275
50.8162 7.250 0.275
50.8367 7.010 0.270
50.8571 7.229 0.274
50.8776 6.656 0.263
50.8981 7.250 0.275
50.9185 6.990 0.270
50.9390 7.385 0.277
50.9595 7.583 0.281
50.9799 7.927 0.287
51.0004 7.969 0.288
51.0208 7.563 0.281
51.0413 8.438 0.296
51.0618 7.771 0.285
51.0822 7.708 0.283
51.1027 7.990 0.288
51.1232 7.344 0.277
51.1436 7.677 0.283
51.1641 7.635 0.282
51.1845 7.625 0.282
51.2050 7.573 0.281
51.2255 7.365 0.277
51.2459 7.302 0.276
51.2664 6.990 0.270
51.2869 6.729 0.265
51.3073 7.417 0.278
51.3278 6.885 0.268
51.3482 6.677 0.264
51.3687 6.896 0.268
51.3892 6.740 0.265
51.4096 6.396 0.258
51.4301 7.375 0.277
51.4506 6.865 0.267
51.4710 6.854 0.267
51.4915 6.917 0.268
51.5119 6.615 0.262
51.5324 6.958 0.269
51.5529 6.615 0.262
51.5733 7.063 0.271
51.5938 7.313 0.276
51.6143 7.635 0.282
51.6347 8.146 0.291
51.6552 7.969 0.288
51.6757 8.156 0.291
51.6961 7.885 0.287
51.7166 7.865 0.286
51.7370 7.885 0.287
51.7575 7.854 0.286
51.7780 7.760 0.284
51.7984 7.313 0.276
51.8189 7.688 0.283
51.8394 7.969 0.288
51.8598 7.083 0.272
51.8803 7.615 0.282
51.9007 7.781 0.285
51.9212 7.323 0.276
51.9417 7.896 0.287
51.9621 7.521 0.280
51.9826 7.500 0.280
52.0031 7.375 0.277
52.0235 7.323 0.276
52.0440 7.563 0.281
52.0644 6.958 0.269
52.0849 7.177 0.273
52.1054 6.875 0.268
52.1258 6.854 0.267
52.1463 7.063 0.271
52.1668 6.531 0.261
52.1872 6.281 0.256
52.2077 7.042 0.271
52.2281 6.969 0.269
52.2486 6.990 0.270
52.2691 6.781 0.266
52.2895 7.156 0.273
52.3100 6.802 0.266
52.3305 7.479 0.279
52.3509 7.021 0.270
52.3714 6.417 0.259
52.3918 6.406 0.258
52.4123 6.656 0.263
52.4328 6.958 0.269
52.4532 6.146 0.253
52.4737 6.208 0.254
52.4942 6.125 0.253
52.5146 6.177 0.254
52.5351 6.052 0.251
52.5556 5.990 0.250
52.5760 6.323 0.257
52.5965 6.031 0.251
52.6169 5.771 0.245
52.6374 6.083 0.252
52.6579 5.854 0.247
52.6783 6.604 0.262
52.6988 6.094 0.252
52.7193 6.354 0.257
52.7397 6.208 0.254
52.7602 6.208 0.254
52.7806 6.094 0.252
52.8011 6.000 0.250
52.8216 5.844 0.247
52.8420 5.740 0.245
52.8625 5.833 0.247
52.8830 6.063 0.251
52.9034 5.875 0.247
52.9239 6.198 0.254
52.9443 6.344 0.257
52.9648 6.448 0.259
52.9853 5.677 0.243
53.0057 6.573 0.262
53.0262 6.708 0.264
53.0467 6.802 0.266
53.0671 6.708 0.264
53.0876 6.823 0.267
53.1080 6.615 0.262
53.1285 6.948 0.269
53.1490 6.448 0.259
53.1694 6.521 0.261
53.1899 6.250 0.255
53.2104 6.177 0.254
53.2308 6.792 0.266
53.2513 6.229 0.255
53.2717 6.042 0.251
53.2922 6.115 0.252
53.3127 6.385 0.258
53.3331 6.375 0.258
53.3536 6.167 0.253
53.3741 6.271 0.256
53.3945 5.708 0.244
53.4150 5.938 0.249
53.4355 5.885 0.248
53.4559 5.656 0.243
53.4764 6.292 0.256
53.4968 6.260 0.255
53.5173 6.146 0.253
53.5378 6.521 0.261
53.5582 6.281 0.256
53.5787 6.115 0.252
53.5992 6.427 0.259
53.6196 6.833 0.267
53.6401 6.740 0.265
53.6605 6.917 0.268
53.6810 7.167 0.273
53.7015 7.469 0.279
53.7219 7.021 0.270
53.7424 7.906 0.287
53.7629 7.500 0.280
53.7833 6.792 0.266
53.8038 6.646 0.263
53.8242 6.479 0.260
53.8447 6.813 0.266
53.8652 6.792 0.266
53.8856 6.802 0.266
53.9061 6.656 0.263
53.9266 6.333 0.257
53.9470 6.521 0.261
53.9675 6.427 0.259
53.9879 6.208 0.254
54.0084 6.125 0.253
54.0289 6.333 0.257
54.0493 6.448 0.259
54.0698 6.333 0.257
54.0903 6.000 0.250
54.1107 6.219 0.255
54.1312 5.833 0.247
54.1516 6.063 0.251
54.1721 6.167 0.253
54.1926 5.896 0.248
54.2130 5.875 0.247
54.2335 5.740 0.245
54.2540 6.292 0.256
54.2744 6.167 0.253
54.2949 6.010 0.250
54.3154 6.083 0.252
54.3358 5.594 0.241
54.3563 5.500 0.239
54.3767 5.771 0.245
54.3972 5.542 0.240
54.4177 5.792 0.246
54.4381 6.188 0.254
54.4586 6.240 0.255
54.4791 6.385 0.258
54.4995 6.313 0.256
54.5200 6.281 0.256
54.5404 7.010 0.270
54.5609 7.469 0.279
54.5814 7.552 0.280
54.6018 7.469 0.279
54.6223 6.979 0.270
54.6428 7.083 0.272
54.6632 6.438 0.259
54.6837 6.521 0.261
54.7041 6.760 0.265
54.7246 6.917 0.268
54.7451 6.552 0.261
54.7655 6.948 0.269
54.7860 6.521 0.261
54.8065 6.625 0.263
54.8269 6.750 0.265
54.8474 6.073 0.252
54.8678 6.490 0.260
54.8883 6.479 0.260
54.9088 5.885 0.248
54.9292 5.927 0.248
54.9497 6.260 0.255
54.9702 6.552 0.261
54.9906 6.885 0.268
55.0111 6.552 0.261
55.0316 7.521 0.280
55.0520 8.375 0.295
55.0725 9.010 0.306
55.0929 9.865 0.321
55.1134 10.125 0.325
55.1339 10.354 0.328
55.1543 9.667 0.317
55.1748 9.417 0.313
55.1953 9.229 0.310
55.2157 9.573 0.316
55.2362 9.615 0.316
55.2566 10.010 0.323
55.2771 9.208 0.310
55.2976 8.771 0.302
55.3180 8.302 0.294
55.3385 7.875 0.286
55.3590 7.865 0.286
55.3794 7.500 0.280
55.3999 7.469 0.279
55.4203 6.865 0.267
55.4408 7.188 0.274
55.4613 6.740 0.265
55.4817 6.323 0.257
55.5022 6.375 0.258
55.5227 5.990 0.250
55.5431 6.125 0.253
55.5636 6.823 0.267
55.5840 6.042 0.251
55.6045 6.271 0.256
55.6250 6.281 0.256
55.6454 6.323 0.257
55.6659 6.167 0.253
55.6864 6.240 0.255
55.7068 5.896 0.248
55.7273 6.250 0.255
55.7477 6.406 0.258
55.7682 6.271 0.256
55.7887 6.385 0.258
55.8091 6.156 0.253
55.8296 6.448 0.259
55.8501 6.188 0.254
55.8705 6.094 0.252
55.8910 6.479 0.260
55.9115 6.271 0.256
55.9319 6.333 0.257
55.9524 6.542 0.261
55.9728 6.448 0.259
55.9933 6.052 0.251
56.0138 5.958 0.249
56.0342 6.167 0.253
56.0547 6.156 0.253
56.0752 6.240 0.255
56.0956 6.042 0.251
56.1161 5.979 0.250
56.1365 5.729 0.244
56.1570 6.406 0.258
56.1775 6.698 0.264
56.1979 6.188 0.254
56.2184 6.750 0.265
56.2389 6.385 0.258
56.2593 6.125 0.253
56.2798 5.958 0.249
56.3002 6.313 0.256
56.3207 6.521 0.261
56.3412 6.313 0.256
56.3616 5.854 0.247
56.3821 6.156 0.253
56.4026 6.083 0.252
56.4230 6.510 0.260
56.4435 6.104 0.252
56.4639 5.990 0.250
56.4844 6.563 0.261
56.5049 6.521 0.261
56.5253 6.844 0.267
56.5458 6.073 0.252
56.5663 6.885 0.268
56.5867 6.667 0.264
56.6072 6.927 0.269
56.6276 7.177 0.273
56.6481 7.615 0.282
56.6686 8.479 0.297
56.6890 8.333 0.295
56.7095 9.604 0.316
56.7300 9.573 0.316
56.7504 9.052 0.307
56.7709 8.365 0.295
56.7914 8.208 0.292
56.8118 7.833 0.286
56.8323 7.896 0.287
56.8527 7.760 0.284
56.8732 7.604 0.281
56.8937 7.594 0.281
56.9141 7.281 0.275
56.9346 7.042 0.271
56.9551 6.375 0.258
56.9755 5.833 0.247
56.9960 5.906 0.248
57.0164 6.385 0.258
57.0369 6.010 0.250
57.0574 5.760 0.245
57.0778 5.688 0.243
57.0983 5.625 0.242
57.1188 6.146 0.253
57.1392 5.990 0.250
57.1597 6.469 0.260
57.1801 5.938 0.249
57.2006 5.906 0.248
57.2211 6.031 0.251
57.2415 6.500 0.260
57.2620 6.375 0.258
57.2825 6.125 0.253
57.3029 6.375 0.258
57.3234 6.479 0.260
57.3438 6.792 0.266
57.3643 6.292 0.256
57.3848 6.635 0.263
57.4052 6.229 0.255
57.4257 5.833 0.247
57.4462 6.844 0.267
57.4666 6.729 0.265
57.4871 6.667 0.264
57.5075 6.813 0.266
57.5280 6.448 0.259
57.5485 7.385 0.277
57.5689 6.792 0.266
57.5894 7.344 0.277
57.6099 6.958 0.269
57.6303 6.885 0.268
57.6508 6.271 0.256
57.6713 6.344 0.257
57.6917 6.698 0.264
57.7122 6.156 0.253
57.7326 6.604 0.262
57.7531 6.542 0.261
57.7736 6.125 0.253
57.7940 6.115 0.252
57.8145 6.042 0.251
57.8350 6.042 0.251
57.8554 6.208 0.254
57.8759 6.375 0.258
57.8963 5.792 0.246
57.9168 6.469 0.260
57.9373 6.719 0.265
57.9577 5.875 0.247
57.9782 6.365 0.257
57.9987 5.865 0.247
58.0191 5.823 0.246
58.0396 5.813 0.246
58.0600 5.563 0.241
58.0805 5.625 0.242
58.1010 6.052 0.251
58.1214 6.042 0.251
58.1419 6.344 0.257
58.1624 5.385 0.237
58.1828 5.990 0.250
58.2033 6.438 0.259
58.2237 6.396 0.258
58.2442 6.042 0.251
58.2647 6.021 0.250
58.2851 7.146 0.273
58.3056 6.365 0.257
58.3261 6.906 0.268
58.3465 6.438 0.259
58.3670 6.635 0.263
58.3874 6.677 0.264
58.4079 6.573 0.262
58.4284 6.594 0.262
58.4488 6.531 0.261
58.4693 6.813 0.266
58.4898 6.969 0.269
58.5102 7.396 0.278
58.5307 7.333 0.276
58.5512 7.125 0.272
58.5716 7.385 0.277
58.5921 7.271 0.275
58.6125 7.042 0.271
58.6330 6.479 0.260
58.6535 6.802 0.266
58.6739 6.427 0.259
58.6944 6.208 0.254
58.7149 6.615 0.262
58.7353 6.198 0.254
58.7558 6.302 0.256
58.7762 5.656 0.243
58.7967 5.885 0.248
58.8172 6.229 0.255
58.8376 5.750 0.245
58.8581 5.573 0.241
58.8786 5.156 0.232
58.8990 5.688 0.243
58.9195 5.969 0.249
58.9399 5.292 0.235
58.9604 5.479 0.239
58.9809 5.906 0.248
59.0013 5.281 0.235
59.0218 5.458 0.238
59.0423 6.052 0.251
59.0627 5.260 0.234
59.0832 5.510 0.240
59.1036 5.490 0.239
59.1241 5.500 0.239
59.1446 6.000 0.250
59.1650 5.490 0.239
59.1855 5.667 0.243
59.2060 5.510 0.240
59.2264 5.698 0.244
59.2469 5.896 0.248
59.2674 6.208 0.254
59.2878 5.292 0.235
59.3083 5.135 0.231
59.3287 5.385 0.237
59.3492 5.146 0.232
59.3697 5.417 0.238
59.3901 5.229 0.233
59.4106 5.479 0.239
59.4311 6.031 0.251
59.4515 5.875 0.247
59.4720 5.542 0.240
59.4924 5.208 0.233
59.5129 5.167 0.232
59.5334 5.104 0.231
59.5538 5.063 0.230
59.5743 5.542 0.240
59.5948 5.052 0.229
59.6152 4.958 0.227
59.6357 5.146 0.232
59.6561 5.552 0.240
59.6766 5.302 0.235
59.6971 5.313 0.235
59.7175 5.500 0.239
59.7380 5.313 0.235
59.7585 5.417 0.238
59.7789 5.344 0.236
59.7994 5.156 0.232
59.8198 5.302 0.235
59.8403 5.469 0.239
59.8608 5.302 0.235
59.8812 5.760 0.245
59.9017 5.208 0.233
59.9222 5.969 0.249
59.9426 5.469 0.239
59.9631 5.479 0.239
59.9835 5.240 0.234
60.0040 5.927 0.248
60.0245 5.604 0.242
60.0449 5.552 0.240
60.0654 5.542 0.240
60.0859 5.583 0.241
60.1063 5.542 0.240
60.1268 5.125 0.231
60.1473 5.094 0.230
60.1677 5.177 0.232
60.1882 5.708 0.244
60.2086 5.313 0.235
60.2291 5.271 0.234
60.2496 5.448 0.238
60.2700 5.083 0.230
60.2905 5.542 0.240
60.3110 5.000 0.228
60.3314 5.406 0.237
60.3519 5.469 0.239
60.3723 5.333 0.236
60.3928 5.115 0.231
60.4133 5.104 0.231
60.4337 5.146 0.232
60.4542 5.177 0.232
60.4747 5.156 0.232
60.4951 4.948 0.227
60.5156 4.917 0.226
60.5360 5.031 0.229
60.5565 5.094 0.230
60.5770 5.240 0.234
60.5974 5.292 0.235
60.6179 4.938 0.227
60.6384 5.292 0.235
60.6588 4.885 0.226
60.6793 5.104 0.231
60.6997 4.708 0.221
60.7202 4.875 0.225
60.7407 5.260 0.234
60.7611 5.427 0.238
60.7816 4.896 0.226
60.8021 5.208 0.233
60.8225 4.698 0.221
60.8430 4.917 0.226
60.8634 4.833 0.224
60.8839 4.698 0.221
60.9044 5.292 0.235
60.9248 5.583 0.241
60.9453 5.167 0.232
60.9658 5.708 0.244
60.9862 5.531 0.240
61.0067 5.198 0.233
61.0272 5.417 0.238
61.0476 5.583 0.241
61.0681 5.719 0.244
61.0885 5.281 0.235
61.1090 5.417 0.238
61.1295 5.083 0.230
61.1499 5.406 0.237
61.1704 5.802 0.246
61.1909 5.479 0.239
61.2113 5.583 0.241
61.2318 5.625 0.242
61.2522 4.948 0.227
61.2727 5.135 0.231
61.2932 5.969 0.249
61.3136 6.448 0.259
61.3341 6.229 0.255
61.3546 6.333 0.257
61.3750 6.531 0.261
61.3955 6.833 0.267
61.4159 6.229 0.255
61.4364 5.781 0.245
61.4569 6.167 0.253
61.4773 5.531 0.240
61.4978 5.865 0.247
61.5183 5.708 0.244
61.5387 5.781 0.245
61.5592 5.740 0.245
61.5796 5.542 0.240
61.6001 5.167 0.232
61.6206 5.448 0.238
61.6410 5.469 0.239
61.6615 5.156 0.232
61.6820 5.490 0.239
61.7024 4.823 0.224
61.7229 4.990 0.228
61.7433 4.823 0.224
61.7638 5.156 0.232
61.7843 4.708 0.221
61.8047 4.635 0.220
61.8252 4.854 0.225
61.8457 5.281 0.235
61.8661 5.427 0.238
61.8866 4.615 0.219
61.9071 5.240 0.234
61.9275 5.146 0.232
61.9480 5.771 0.245
61.9684 5.396 0.237
61.9889 5.531 0.240
62.0094 5.531 0.240
62.0298 4.885 0.226
62.0503 5.010 0.228
62.0708 5.354 0.236
62.0912 5.240 0.234
62.1117 5.177 0.232
62.1321 5.188 0.232
62.1526 5.552 0.240
62.1731 5.448 0.238
62.1935 5.552 0.240
62.2140 5.135 0.231
62.2345 5.719 0.244
62.2549 4.750 0.222
62.2754 5.156 0.232
62.2958 5.219 0.233
62.3163 5.000 0.228
62.3368 5.292 0.235
62.3572 5.063 0.230
62.3777 4.938 0.227
62.3982 4.865 0.225
62.4186 5.229 0.233
62.4391 4.792 0.223
62.4595 4.781 0.223
62.4800 5.031 0.229
62.5005 4.813 0.224
62.5209 5.281 0.235
62.5414 5.427 0.238
62.5619 4.771 0.223
62.5823 4.708 0.221
62.6028 5.240 0.234
62.6232 5.302 0.235
62.6437 5.083 0.230
62.6642 5.083 0.230
62.6846 4.938 0.227
62.7051 4.854 0.225
62.7256 5.073 0.230
62.7460 5.281 0.235
62.7665 4.594 0.219
62.7870 5.115 0.231
62.8074 5.073 0.230
62.8279 4.688 0.221
62.8483 5.667 0.243
62.8688 5.156 0.232
62.8893 4.802 0.224
62.9097 4.969 0.228
62.9302 4.188 0.209
62.9507 4.417 0.214
62.9711 5.010 0.228
62.9916 4.854 0.225
63.0120 5.052 0.229
63.0325 4.448 0.215
63.0530 5.115 0.231
63.0734 5.219 0.233
63.0939 4.927 0.227
63.1144 5.115 0.231
63.1348 4.885 0.226
63.1553 4.990 0.228
63.1757 4.938 0.227
63.1962 4.875 0.225
63.2167 5.104 0.231
63.2371 5.104 0.231
63.2576 5.063 0.230
63.2781 5.219 0.233
63.2985 4.938 0.227
63.3190 5.104 0.231
63.3394 5.198 0.233
63.3599 5.771 0.245
63.3804 5.563 0.241
63.4008 5.604 0.242
63.4213 5.521 0.240
63.4418 5.958 0.249
63.4622 5.604 0.242
63.4827 5.625 0.242
63.5032 5.333 0.236
63.5236 5.438 0.238
63.5441 5.969 0.249
63.5645 5.510 0.240
63.5850 5.865 0.247
63.6055 5.542 0.240
63.6259 5.448 0.238
63.6464 5.365 0.236
63.6669 5.510 0.240
63.6873 5.594 0.241
63.7078 5.396 0.237
63.7282 5.354 0.236
63.7487 5.177 0.232
63.7692 5.260 0.234
63.7896 5.354 0.236
63.8101 5.031 0.229
63.8306 5.063 0.230
63.8510 4.823 0.224
63.8715 5.427 0.238
63.8919 5.490 0.239
63.9124 5.167 0.232
63.9329 5.156 0.232
63.9533 5.063 0.230
63.9738 5.094 0.230
63.9943 4.771 0.223
64.0147 5.146 0.232
64.0352 4.927 0.227
64.0556 5.156 0.232
64.0761 4.938 0.227
64.0966 4.958 0.227
64.1170 5.156 0.232
64.1375 4.531 0.217
64.1580 5.073 0.230
64.1784 5.042 0.229
64.1989 4.938 0.227
64.2193 4.990 0.228
64.2398 4.958 0.227
64.2603 4.792 0.223
64.2807 4.479 0.216
64.3012 4.406 0.214
64.3217 5.063 0.230
64.3421 4.677 0.221
64.3626 5.042 0.229
64.3831 4.802 0.224
64.4035 4.594 0.219
64.4240 4.854 0.225
64.4444 4.333 0.212
64.4649 4.750 0.222
64.4854 5.000 0.228
64.5058 5.104 0.231
64.5263 4.635 0.220
64.5468 4.563 0.218
64.5672 4.646 0.220
64.5877 4.656 0.220
64.6081 4.990 0.228
64.6286 4.448 0.215
64.6491 4.823 0.224
64.6695 5.229 0.233
64.6900 4.802 0.224
64.7105 4.844 0.225
64.7309 4.885 0.226
64.7514 4.927 0.227
64.7718 4.500 0.217
64.7923 4.948 0.227
64.8128 5.063 0.230
64.8332 5.135 0.231
64.8537 4.948 0.227
64.8742 5.385 0.237
64.8946 5.104 0.231
64.9151 4.792 0.223
64.9355 4.625 0.219
64.9560 4.760 0.223
64.9765 4.854 0.225
64.9969 4.802 0.224
65.0174 4.823 0.224
65.0379 4.938 0.227
65.0583 4.552 0.218
65.0788 4.615 0.219
65.0992 4.688 0.221
65.1197 4.885 0.226
65.1402 4.771 0.223
65.1606 5.042 0.229
65.1811 4.563 0.218
65.2016 4.448 0.215
65.2220 4.958 0.227
65.2425 4.875 0.225
65.2630 4.813 0.224
65.2834 5.146 0.232
65.3039 4.729 0.222
65.3243 4.510 0.217
65.3448 4.448 0.215
65.3653 4.563 0.218
65.3857 4.750 0.222
65.4062 5.313 0.235
65.4267 4.469 0.216
65.4471 4.854 0.225
65.4676 4.594 0.219
65.4880 5.115 0.231
65.5085 4.854 0.225
65.5290 4.625 0.219
65.5494 4.771 0.223
65.5699 4.625 0.219
65.5904 4.875 0.225
65.6108 4.198 0.209
65.6313 4.542 0.218
65.6517 5.094 0.230
65.6722 4.135 0.208
65.6927 4.906 0.226
65.7131 5.271 0.234
65.7336 4.719 0.222
65.7541 4.448 0.215
65.7745 5.031 0.229
65.7950 4.760 0.223
65.8154 4.802 0.224
65.8359 4.635 0.220
65.8564 4.854 0.225
65.8768 4.469 0.216
65.8973 4.896 0.226
65.9178 5.156 0.232
65.9382 4.823 0.224
65.9587 5.240 0.234
65.9791 4.990 0.228
65.9996 4.635 0.220
66.0201 4.573 0.218
66.0405 5.063 0.230
66.0610 5.083 0.230
66.0815 4.969 0.228
66.1019 4.479 0.216
66.1224 4.802 0.224
66.1429 5.344 0.236
66.1633 4.906 0.226
66.1838 5.229 0.233
66.2042 5.167 0.232
66.2247 4.865 0.225
66.2452 4.885 0.226
66.2656 5.167 0.232
66.2861 5.177 0.232
66.3066 4.594 0.219
66.3270 5.323 0.235
66.3475 4.771 0.223
66.3679 4.948 0.227
66.3884 4.781 0.223
66.4089 4.281 0.211
66.4293 4.750 0.222
66.4498 4.667 0.220
66.4703 4.510 0.217
66.4907 4.948 0.227
66.5112 5.021 0.229
66.5316 4.823 0.224
66.5521 4.563 0.218
66.5726 4.781 0.223
66.5930 4.667 0.220
66.6135 4.990 0.228
66.6340 5.010 0.228
66.6544 5.010 0.228
66.6749 4.750 0.222
66.6953 5.052 0.229
66.7158 4.542 0.218
66.7363 4.667 0.220
66.7567 4.708 0.221
66.7772 4.500 0.217
66.7977 4.708 0.221
66.8181 4.771 0.223
66.8386 4.510 0.217
66.8590 4.740 0.222
66.8795 4.844 0.225
66.9000 4.542 0.218
66.9204 5.208 0.233
66.9409 5.094 0.230
66.9614 5.188 0.232
66.9818 5.021 0.229
67.0023 5.167 0.232
67.0228 5.010 0.228
67.0432 5.188 0.232
67.0637 5.115 0.231
67.0841 4.750 0.222
67.1046 5.448 0.238
67.1251 5.323 0.235
67.1455 5.125 0.231
67.1660 5.010 0.228
67.1865 4.969 0.228
67.2069 5.177 0.232
67.2274 4.875 0.225
67.2478 5.073 0.230
67.2683 5.292 0.235
67.2888 5.417 0.238
67.3092 5.188 0.232
67.3297 5.417 0.238
67.3502 5.052 0.229
67.3706 5.375 0.237
67.3911 5.281 0.235
67.4115 5.198 0.233
67.4320 5.385 0.237
67.4525 5.156 0.232
67.4729 4.990 0.228
67.4934 5.135 0.231
67.5139 5.375 0.237
67.5343 4.823 0.224
67.5548 5.094 0.230
67.5752 4.719 0.222
67.5957 5.323 0.235
67.6162 5.167 0.232
67.6366 4.708 0.221
67.6571 4.917 0.226
67.6776 5.073 0.230
67.6980 4.792 0.223
67.7185 5.042 0.229
67.7389 4.844 0.225
67.7594 5.000 0.228
67.7799 4.750 0.222
67.8003 4.354 0.213
67.8208 4.813 0.224
67.8413 4.792 0.223
67.8617 4.729 0.222
67.8822 5.042 0.229
67.9027 4.740 0.222
67.9231 4.938 0.227
67.9436 4.844 0.225
67.9640 4.781 0.223
67.9845 4.698 0.221
68.0050 4.510 0.217
68.0254 4.635 0.220
68.0459 4.510 0.217
68.0664 4.656 0.220
68.0868 4.583 0.219
68.1073 4.271 0.211
68.1277 4.333 0.212
68.1482 4.510 0.217
68.1687 4.563 0.218
68.1891 4.656 0.220
68.2096 4.615 0.219
68.2301 4.688 0.221
68.2505 4.406 0.214
68.2710 4.854 0.225
68.2914 4.396 0.214
68.3119 4.625 0.219
68.3324 4.250 0.210
68.3528 4.344 0.213
68.3733 4.208 0.209
68.3938 4.375 0.213
68.4142 4.177 0.209
68.4347 4.542 0.218
68.4551 4.156 0.208
68.4756 4.396 0.214
68.4961 4.635 0.220
68.5165 4.563 0.218
68.5370 4.417 0.214
68.5575 4.438 0.215
68.5779 4.406 0.214
68.5984 4.271 0.211
68.6189 4.354 0.213
68.6393 4.344 0.213
68.6598 4.750 0.222
68.6802 4.604 0.219
68.7007 4.177 0.209
68.7212 4.333 0.212
68.7416 4.708 0.221
68.7621 4.344 0.213
68.7826 4.219 0.210
68.8030 4.063 0.206
68.8235 4.323 0.212
68.8439 4.229 0.210
68.8644 4.458 0.216
68.8849 4.906 0.226
68.9053 4.083 0.206
68.9258 4.885 0.226
68.9463 4.448 0.215
68.9667 4.792 0.223
68.9872 4.365 0.213
69.0076 4.844 0.225
69.0281 4.844 0.225
69.0486 5.188 0.232
69.0690 4.927 0.227
69.0895 4.917 0.226
69.1100 5.146 0.232
69.1304 4.333 0.212
69.1509 4.771 0.223
69.1713 4.667 0.220
69.1918 4.802 0.224
69.2123 4.635 0.220
69.2327 4.458 0.216
69.2532 4.635 0.220
69.2737 4.635 0.220
69.2941 4.323 0.212
69.3146 4.823 0.224
69.3350 4.490 0.216
69.3555 4.438 0.215
69.3760 4.313 0.212
69.3964 4.365 0.213
69.4169 4.313 0.212
69.4374 4.104 0.207
69.4578 4.344 0.213
69.4783 4.271 0.211
69.4988 4.365 0.213
69.5192 4.000 0.204
69.5397 4.438 0.215
69.5601 4.333 0.212
69.5806 3.917 0.202
69.6011 4.365 0.213
69.6215 4.521 0.217
69.6420 4.271 0.211
69.6625 4.375 0.213
69.6829 4.510 0.217
69.7034 4.156 0.208
69.7238 4.865 0.225
69.7443 4.625 0.219
69.7648 4.281 0.211
69.7852 4.302 0.212
69.8057 4.302 0.212
69.8262 4.313 0.212
69.8466 4.240 0.210
69.8671 4.479 0.216
69.8875 4.469 0.216
69.9080 4.313 0.212
69.9285 4.010 0.204
69.9489 4.208 0.209
69.9694 4.490 0.216
69.9899 4.281 0.211
70.0103 4.552 0.218
70.0308 4.156 0.208
70.0512 4.573 0.218
70.0717 4.042 0.205
70.0922 4.167 0.208
70.1126 4.313 0.212
70.1331 4.365 0.213
70.1536 4.469 0.216
70.1740 4.333 0.212
70.1945 4.927 0.227
70.2149 4.688 0.221
70.2354 4.563 0.218
70.2559 4.875 0.225
70.2763 4.875 0.225
70.2968 4.750 0.222
70.3173 4.885 0.226
70.3377 4.292 0.211
70.3582 4.510 0.217
70.3787 4.677 0.221
70.3991 4.281 0.211
70.4196 4.760 0.223
70.4400 4.021 0.205
70.4605 4.000 0.204
70.4810 4.292 0.211
70.5014 4.240 0.210
70.5219 4.510 0.217
70.5424 4.542 0.218
70.5628 4.146 0.208
70.5833 3.990 0.204
70.6037 3.865 0.201
70.6242 4.469 0.216
70.6447 4.469 0.216
70.6651 4.375 0.213
70.6856 3.969 0.203
70.7061 4.260 0.211
70.7265 4.104 0.207
70.7470 4.615 0.219
70.7674 4.260 0.211
70.7879 4.396 0.214
70.8084 4.406 0.214
70.8288 4.271 0.211
70.8493 4.406 0.214
70.8698 4.167 0.208
70.8902 4.396 0.214
70.9107 4.177 0.209
70.9311 4.115 0.207
70.9516 4.094 0.207
70.9721 4.344 0.213
70.9925 4.010 0.204
71.0130 3.990 0.204
71.0335 4.667 0.220
71.0539 4.135 0.208
71.0744 4.375 0.213
71.0948 4.135 0.208
71.1153 3.958 0.203
71.1358 3.938 0.203
71.1562 3.906 0.202
71.1767 3.948 0.203
71.1972 4.240 0.210
71.2176 4.052 0.205
71.2381 3.813 0.199
71.2586 4.375 0.213
71.2790 3.906 0.202
71.2995 3.865 0.201
71.3199 3.698 0.196
71.3404 4.167 0.208
71.3609 4.042 0.205
71.3813 3.833 0.200
71.4018 4.135 0.208
71.4223 4.104 0.207
71.4427 4.021 0.205
71.4632 4.094 0.207
71.4836 3.938 0.203
71.5041 4.229 0.210
71.5246 3.969 0.203
71.5450 4.229 0.210
71.5655 4.094 0.207
71.5860 4.115 0.207
71.6064 4.417 0.214
71.6269 3.969 0.203
71.6473 4.135 0.208
71.6678 4.208 0.209
71.6883 4.104 0.207
71.7087 3.969 0.203
71.7292 4.167 0.208
71.7497 4.094 0.207
71.7701 3.771 0.198
71.7906 3.948 0.203
71.8110 4.094 0.207
71.8315 4.000 0.204
71.8520 3.583 0.193
71.8724 4.188 0.209
71.8929 4.260 0.211
71.9134 4.000 0.204
71.9338 4.042 0.205
71.9543 4.021 0.205
71.9747 4.177 0.209
71.9952 3.969 0.203
72.0157 4.271 0.211
72.0361 3.948 0.203
72.0566 3.906 0.202
72.0771 4.396 0.214
72.0975 4.208 0.209
72.1180 4.458 0.216
72.1385 4.552 0.218
72.1589 4.396 0.214
72.1794 4.875 0.225
72.1998 4.688 0.221
72.2203 4.667 0.220
72.2408 4.865 0.225
72.2612 4.531 0.217
72.2817 4.406 0.214
72.3022 4.667 0.220
72.3226 4.073 0.206
72.3431 4.521 0.217
72.3635 4.344 0.213
72.3840 4.552 0.218
72.4045 4.521 0.217
72.4249 4.760 0.223
72.4454 4.125 0.207
72.4659 4.240 0.210
72.4863 4.240 0.210
72.5068 4.375 0.213
72.5272 3.917 0.202
72.5477 3.823 0.200
72.5682 4.000 0.204
72.5886 4.104 0.207
72.6091 3.792 0.199
72.6296 3.917 0.202
72.6500 3.990 0.204
72.6705 4.094 0.207
72.6909 4.010 0.204
72.7114 3.750 0.198
72.7319 3.792 0.199
72.7523 3.396 0.188
72.7728 3.656 0.195
72.7933 3.729 0.197
72.8137 3.802 0.199
72.8342 3.896 0.201
72.8547 3.823 0.200
72.8751 3.417 0.189
72.8956 3.906 0.202
72.9160 3.677 0.196
72.9365 3.885 0.201
72.9570 4.115 0.207
72.9774 4.083 0.206
72.9979 3.885 0.201
73.0184 4.063 0.206
73.0388 3.396 0.188
73.0593 3.750 0.198
73.0797 4.385 0.214
73.1002 4.021 0.205
73.1207 4.177 0.209
73.1411 4.073 0.206
73.1616 3.917 0.202
73.1821 3.646 0.195
73.2025 3.760 0.198
73.2230 3.688 0.196
73.2434 3.813 0.199
73.2639 3.604 0.194
73.2844 3.844 0.200
73.3048 3.854 0.200
73.3253 3.740 0.197
73.3458 3.854 0.200
73.3662 3.802 0.199
73.3867 4.188 0.209
73.4071 3.490 0.191
73.4276 4.240 0.210
73.4481 3.729 0.197
73.4685 3.875 0.201
73.4890 3.906 0.202
73.5095 3.688 0.196
73.5299 3.708 0.197
73.5504 4.063 0.206
73.5708 3.885 0.201
73.5913 3.781 0.198
73.6118 3.771 0.198
73.6322 3.990 0.204
73.6527 3.750 0.198
73.6732 3.406 0.188
73.6936 3.760 0.198
73.7141 3.573 0.193
73.7346 4.146 0.208
73.7550 3.438 0.189
73.7755 3.958 0.203
73.7959 3.896 0.201
73.8164 4.302 0.212
73.8369 4.000 0.204
73.8573 4.042 0.205
73.8778 3.865 0.201
73.8983 4.052 0.205
73.9187 4.135 0.208
73.9392 3.969 0.203
73.9596 4.031 0.205
73.9801 4.292 0.211
74.0006 4.083 0.206
74.0210 4.281 0.211
74.0415 4.208 0.209
74.0620 4.188 0.209
74.0824 4.052 0.205
74.1029 3.896 0.201
74.1233 3.656 0.195
74.1438 3.844 0.200
74.1643 3.823 0.200
74.1847 3.958 0.203
74.2052 3.625 0.194
74.2257 4.250 0.210
74.2461 4.198 0.209
74.2666 4.073 0.206
74.2870 3.792 0.199
74.3075 4.135 0.208
74.3280 3.510 0.191
74.3484 3.833 0.200
74.3689 3.427 0.189
74.3894 3.698 0.196
74.4098 4.010 0.204
74.4303 3.719 0.197
74.4507 3.542 0.192
74.4712 3.656 0.195
74.4917 3.802 0.199
74.5121 3.646 0.195
74.5326 3.573 0.193
74.5531 3.198 0.183
74.5735 3.531 0.192
74.5940 3.521 0.192
74.6145 3.604 0.194
74.6349 3.885 0.201
74.6554 3.771 0.198
74.6758 3.583 0.193
74.6963 3.927 0.202
74.7168 3.708 0.197
74.7372 3.813 0.199
74.7577 3.854 0.200
74.7782 3.354 0.187
74.7986 3.844 0.200
74.8191 3.865 0.201
74.8395 3.573 0.193
74.8600 3.833 0.200
74.8805 3.813 0.199
74.9009 3.604 0.194
74.9214 3.802 0.199
74.9419 3.542 0.192
74.9623 3.927 0.202
74.9828 3.688 0.196
75.0032 3.948 0.203
75.0237 3.781 0.198
75.0442 4.021 0.205
75.0646 3.885 0.201
75.0851 3.979 0.204
75.1056 3.979 0.204
75.1260 3.927 0.202
75.1465 3.875 0.201
75.1669 3.833 0.200
75.1874 4.188 0.209
75.2079 3.740 0.197
75.2283 4.010 0.204
75.2488 3.823 0.200
75.2693 3.771 0.198
75.2897 3.865 0.201
75.3102 4.021 0.205
75.3306 3.740 0.197
75.3511 3.740 0.197
75.3716 4.156 0.208
75.3920 3.813 0.199
75.4125 3.792 0.199
75.4330 3.677 0.196
75.4534 3.771 0.198
75.4739 4.063 0.206
75.4944 3.563 0.193
75.5148 3.573 0.193
75.5353 3.469 0.190
75.5557 3.615 0.194
75.5762 3.417 0.189
75.5967 3.438 0.189
75.6171 3.615 0.194
75.6376 3.583 0.193
75.6581 3.708 0.197
75.6785 3.896 0.201
75.6990 3.677 0.196
75.7194 4.333 0.212
75.7399 3.677 0.196
75.7604 4.292 0.211
75.7808 4.115 0.207
75.8013 4.198 0.209
75.8218 4.385 0.214
75.8422 4.010 0.204
75.8627 4.333 0.212
75.8831 4.594 0.219
75.9036 4.010 0.204
75.9241 3.885 0.201
75.9445 3.990 0.204
75.9650 4.208 0.209
75.9855 3.958 0.203
76.0059 4.146 0.208
76.0264 4.083 0.206
76.0468 4.406 0.214
76.0673 4.167 0.208
76.0878 4.146 0.208
76.1082 4.771 0.223
76.1287 3.969 0.203
76.1492 3.740 0.197
76.1696 3.844 0.200
76.1901 3.948 0.203
76.2105 3.979 0.204
76.2310 4.135 0.208
76.2515 3.698 0.196
76.2719 3.708 0.197
76.2924 3.833 0.200
76.3129 3.896 0.201
76.3333 3.740 0.197
76.3538 4.250 0.210
76.3743 3.813 0.199
76.3947 4.104 0.207
76.4152 3.875 0.201
76.4356 3.958 0.203
76.4561 3.677 0.196
76.4766 4.010 0.204
76.4970 3.521 0.192
76.5175 3.479 0.190
76.5380 3.583 0.193
76.5584 3.698 0.196
76.5789 4.000 0.204
76.5993 4.115 0.207
76.6198 3.927 0.202
76.6403 3.698 0.196
76.6607 3.802 0.199
76.6812 3.698 0.196
76.7017 3.708 0.197
76.7221 3.458 0.190
76.7426 4.073 0.206
76.7630 3.500 0.191
76.7835 3.573 0.193
76.8040 3.615 0.194
76.8244 3.583 0.193
76.8449 3.479 0.190
76.8654 4.000 0.204
76.8858 3.625 0.194
76.9063 3.573 0.193
76.9267 3.667 0.195
76.9472 3.417 0.189
76.9677 3.844 0.200
76.9881 3.833 0.200
77.0086 3.656 0.195
77.0291 3.813 0.199
77.0495 3.823 0.200
77.0700 3.729 0.197
77.0905 3.677 0.196
77.1109 3.698 0.196
77.1314 3.729 0.197
77.1518 3.750 0.198
77.1723 3.604 0.194
77.1928 3.927 0.202
77.2132 3.667 0.195
77.2337 3.771 0.198
77.2542 3.854 0.200
77.2746 3.563 0.193
77.2951 3.563 0.193
77.3155 3.865 0.201
77.3360 3.740 0.197
77.3565 3.479 0.190
77.3769 3.854 0.200
77.3974 3.896 0.201
77.4179 3.510 0.191
77.4383 3.531 0.192
77.4588 3.833 0.200
77.4792 3.698 0.196
77.4997 3.521 0.192
77.5202 3.948 0.203
77.5406 3.333 0.186
77.5611 3.531 0.192
77.5816 3.875 0.201
77.6020 4.188 0.209
77.6225 4.292 0.211
77.6429 3.656 0.195
77.6634 3.542 0.192
77.6839 3.854 0.200
77.7043 3.521 0.192
77.7248 3.979 0.204
77.7453 3.708 0.197
77.7657 4.281 0.211
77.7862 4.292 0.211
77.8066 4.052 0.205
77.8271 4.188 0.209
77.8476 4.115 0.207
77.8680 4.125 0.207
77.8885 3.406 0.188
77.9090 3.896 0.201
77.9294 3.875 0.201
77.9499 4.010 0.204
77.9704 3.896 0.201
77.9908 4.333 0.212
78.0113 3.802 0.199
78.0317 4.042 0.205
78.0522 3.625 0.194
78.0727 3.573 0.193
78.0931 3.573 0.193
78.1136 3.760 0.198
78.1341 3.854 0.200
78.1545 3.177 0.182
78.1750 3.604 0.194
78.1954 3.781 0.198
78.2159 3.844 0.200
78.2364 3.854 0.200
78.2568 3.760 0.198
78.2773 3.219 0.183
78.2978 3.615 0.194
78.3182 3.448 0.190
78.3387 3.625 0.194
78.3591 3.844 0.200
78.3796 3.771 0.198
78.4001 3.615 0.194
78.4205 3.906 0.202
78.4410 4.063 0.206
78.4615 3.875 0.201
78.4819 3.646 0.195
78.5024 3.615 0.194
78.5228 3.760 0.198
78.5433 3.635 0.195
78.5638 3.802 0.199
78.5842 3.740 0.197
78.6047 3.896 0.201
78.6252 3.990 0.204
78.6456 3.927 0.202
78.6661 3.865 0.201
78.6865 3.896 0.201
78.7070 3.583 0.193
78.7275 4.031 0.205
78.7479 4.115 0.207
78.7684 3.885 0.201
78.7889 3.708 0.197
78.8093 3.594 0.193
78.8298 3.604 0.194
78.8503 4.031 0.205
78.8707 3.917 0.202
78.8912 3.646 0.195
78.9116 3.938 0.203
78.9321 3.469 0.190
78.9526 3.885 0.201
78.9730 3.698 0.196
78.9935 4.042 0.205
79.0140 3.698 0.196
79.0344 3.865 0.201
79.0549 3.542 0.192
79.0753 3.802 0.199
79.0958 3.792 0.199
79.1163 3.646 0.195
79.1367 3.688 0.196
79.1572 3.667 0.195
79.1777 3.271 0.185
79.1981 3.281 0.185
79.2186 3.510 0.191
79.2390 3.885 0.201
79.2595 3.500 0.191
79.2800 3.552 0.192
79.3004 3.615 0.194
79.3209 3.385 0.188
79.3414 3.500 0.191
79.3618 3.938 0.203
79.3823 3.479 0.190
79.4027 3.969 0.203
79.4232 3.510 0.191
79.4437 3.635 0.195
79.4641 4.042 0.205
79.4846 3.479 0.190
79.5051 3.979 0.204
79.5255 3.927 0.202
79.5460 3.729 0.197
79.5664 3.844 0.200
79.5869 3.990 0.204
79.6074 3.531 0.192
79.6278 3.708 0.197
79.6483 3.771 0.198
79.6688 3.458 0.190
79.6892 3.979 0.204
79.7097 4.063 0.206
79.7302 3.635 0.195
79.7506 3.688 0.196
79.7711 4.031 0.205
79.7915 3.708 0.197
79.8120 3.740 0.197
79.8325 3.688 0.196
79.8529 3.802 0.199
79.8734 3.583 0.193
79.8939 3.958 0.203
79.9143 3.406 0.188
79.9348 3.563 0.193
79.9552 3.438 0.189
79.9757 3.844 0.200
79.9962 3.802 0.199
