'Id: "" Comment: "" Operator: "Lab Manager" Anode: "Cu" Scantype: "Locked Coupled" TimePerStep: "96" X: "0" Y: "0" Z: "0" 
5.0000 19.448 0.450
5.0205 20.531 0.462
5.0409 20.583 0.463
5.0614 20.521 0.462
5.0819 20.906 0.467
5.1023 21.073 0.469
5.1228 20.917 0.467
5.1432 20.073 0.457
5.1637 20.396 0.461
5.1842 20.156 0.458
5.2046 19.354 0.449
5.2251 20.292 0.460
5.2456 18.833 0.443
5.2660 19.906 0.455
5.2865 19.104 0.446
5.3069 19.656 0.452
5.3274 19.604 0.452
5.3479 19.500 0.451
5.3683 19.906 0.455
5.3888 19.542 0.451
5.4093 19.552 0.451
5.4297 19.094 0.446
5.4502 19.198 0.447
5.4706 20.188 0.459
5.4911 19.198 0.447
5.5116 18.958 0.444
5.5320 20.042 0.457
5.5525 19.135 0.446
5.5730 19.344 0.449
5.5934 19.688 0.453
5.6139 19.458 0.450
5.6343 18.688 0.441
5.6548 19.000 0.445
5.6753 18.240 0.436
5.6957 18.802 0.443
5.7162 18.771 0.442
5.7367 18.563 0.440
5.7571 18.198 0.435
5.7776 18.865 0.443
5.7980 18.500 0.439
5.8185 17.969 0.433
5.8390 18.406 0.438
5.8594 18.198 0.435
5.8799 18.250 0.436
5.9004 18.229 0.436
5.9208 18.313 0.437
5.9413 17.208 0.423
5.9618 18.146 0.435
5.9822 18.781 0.442
6.0027 17.594 0.428
6.0231 17.583 0.428
6.0436 17.813 0.431
6.0641 18.052 0.434
6.0845 17.885 0.432
6.1050 18.375 0.438
6.1255 18.531 0.439
6.1459 17.552 0.428
6.1664 18.333 0.437
6.1868 18.167 0.435
6.2073 18.063 0.434
6.2278 18.417 0.438
6.2482 17.458 0.426
6.2687 17.458 0.426
6.2892 18.490 0.439
6.3096 17.542 0.427
6.3301 17.760 0.430
6.3505 17.260 0.424
6.3710 17.531 0.427
6.3915 17.615 0.428
6.4119 18.417 0.438
6.4324 17.896 0.432
6.4529 18.000 0.433
6.4733 18.250 0.436
6.4938 18.448 0.438
6.5142 18.031 0.433
6.5347 17.094 0.422
6.5552 18.042 0.434
6.5756 17.740 0.430
6.5961 17.646 0.429
6.6166 17.760 0.430
6.6370 17.500 0.427
6.6575 17.208 0.423
6.6779 17.875 0.432
6.6984 18.385 0.438
6.7189 17.490 0.427
6.7393 17.531 0.427
6.7598 18.000 0.433
6.7803 17.063 0.422
6.8007 17.417 0.426
6.8212 18.063 0.434
6.8417 17.625 0.428
6.8621 17.292 0.424
6.8826 16.313 0.412
6.9030 17.292 0.424
6.9235 16.656 0.417
6.9440 17.563 0.428
6.9644 17.125 0.422
6.9849 17.260 0.424
7.0054 17.667 0.429
7.0258 17.188 0.423
7.0463 17.438 0.426
7.0667 17.333 0.425
7.0872 17.240 0.424
7.1077 17.010 0.421
7.1281 17.281 0.424
7.1486 17.719 0.430
7.1691 17.781 0.430
7.1895 18.010 0.433
7.2100 17.031 0.421
7.2304 18.375 0.438
7.2509 16.615 0.416
7.2714 16.958 0.420
7.2918 18.521 0.439
7.3123 17.833 0.431
7.3328 17.750 0.430
7.3532 17.094 0.422
7.3737 17.750 0.430
7.3941 16.375 0.413
7.4146 17.260 0.424
7.4351 17.521 0.427
7.4555 16.875 0.419
7.4760 17.708 0.429
7.4965 18.896 0.444
7.5169 16.490 0.414
7.5374 17.094 0.422
7.5579 17.021 0.421
7.5783 17.990 0.433
7.5988 17.344 0.425
7.6192 18.313 0.437
7.6397 18.375 0.438
7.6602 18.063 0.434
7.6806 18.000 0.433
7.7011 17.573 0.428
7.7216 17.458 0.426
7.7420 18.021 0.433
7.7625 17.750 0.430
7.7829 18.146 0.435
7.8034 17.604 0.428
7.8239 17.719 0.430
7.8443 17.479 0.427
7.8648 17.365 0.425
7.8853 17.292 0.424
7.9057 17.625 0.428
7.9262 18.000 0.433
7.9466 17.500 0.427
7.9671 18.063 0.434
7.9876 17.406 0.426
8.0080 18.177 0.435
8.0285 17.552 0.428
8.0490 18.094 0.434
8.0694 17.948 0.432
8.0899 18.938 0.444
8.1103 18.010 0.433
8.1308 18.083 0.434
8.1513 18.021 0.433
8.1717 18.042 0.434
8.1922 17.563 0.428
8.2127 18.385 0.438
8.2331 18.646 0.441
8.2536 18.073 0.434
8.2740 17.854 0.431
8.2945 17.594 0.428
8.3150 17.510 0.427
8.3354 17.125 0.422
8.3559 17.615 0.428
8.3764 17.635 0.429
8.3968 17.698 0.429
8.4173 17.938 0.432
8.4378 17.542 0.427
8.4582 17.094 0.422
8.4787 17.271 0.424
8.4991 17.615 0.428
8.5196 17.771 0.430
8.5401 18.542 0.439
8.5605 17.500 0.427
8.5810 17.646 0.429
8.6015 17.854 0.431
8.6219 18.240 0.436
8.6424 17.490 0.427
8.6628 17.823 0.431
8.6833 17.427 0.426
8.7038 17.240 0.424
8.7242 18.115 0.434
8.7447 17.740 0.430
8.7652 18.021 0.433
8.7856 18.146 0.435
8.8061 17.813 0.431
8.8265 18.646 0.441
8.8470 17.990 0.433
8.8675 19.115 0.446
8.8879 19.240 0.448
8.9084 20.354 0.460
8.9289 21.625 0.475
8.9493 22.240 0.481
8.9698 22.760 0.487
8.9902 23.208 0.492
9.0107 24.177 0.502
9.0312 28.438 0.544
9.0516 33.656 0.592
9.0721 43.740 0.675
9.0926 53.708 0.748
9.1130 64.875 0.822
9.1335 58.010 0.777
9.1539 39.740 0.643
9.1744 26.042 0.521
9.1949 24.292 0.503
9.2153 24.594 0.506
9.2358 25.948 0.520
9.2563 28.885 0.549
9.2767 35.177 0.605
9.2972 40.188 0.647
9.3177 37.490 0.625
9.3381 32.448 0.581
9.3586 29.313 0.553
9.3790 27.969 0.540
9.3995 25.250 0.513
9.4200 25.198 0.512
9.4404 25.167 0.512
9.4609 25.427 0.515
9.4814 26.177 0.522
9.5018 27.813 0.538
9.5223 28.646 0.546
9.5427 30.031 0.559
9.5632 32.250 0.580
9.5837 35.740 0.610
9.6041 38.760 0.635
9.6246 43.625 0.674
9.6451 45.490 0.688
9.6655 48.854 0.713
9.6860 52.781 0.741
9.7064 58.240 0.779
9.7269 64.146 0.817
9.7474 73.813 0.877
9.7678 88.094 0.958
9.7883 114.417 1.092
9.8088 151.969 1.258
9.8292 214.208 1.494
9.8497 296.552 1.758
9.8701 439.417 2.139
9.8906 657.115 2.616
9.9111 915.427 3.088
9.9315 871.115 3.012
9.9520 496.625 2.274
9.9725 195.958 1.429
9.9929 86.885 0.951
10.0134 60.677 0.795
10.0338 50.323 0.724
10.0543 45.031 0.685
10.0748 43.260 0.671
10.0952 40.885 0.653
10.1157 38.479 0.633
10.1362 35.354 0.607
10.1566 32.219 0.579
10.1771 29.604 0.555
10.1976 25.729 0.518
10.2180 24.448 0.505
10.2385 23.427 0.494
10.2589 22.594 0.485
10.2794 23.125 0.491
10.2999 22.479 0.484
10.3203 22.677 0.486
10.3408 22.167 0.481
10.3613 22.313 0.482
10.3817 21.927 0.478
10.4022 22.813 0.487
10.4226 21.958 0.478
10.4431 22.333 0.482
10.4636 22.729 0.487
10.4840 22.344 0.482
10.5045 22.938 0.489
10.5250 23.729 0.497
10.5454 23.760 0.497
10.5659 24.885 0.509
10.5863 27.500 0.535
10.6068 29.833 0.557
10.6273 31.667 0.574
10.6477 35.542 0.608
10.6682 36.740 0.619
10.6887 34.792 0.602
10.7091 30.250 0.561
10.7296 25.646 0.517
10.7500 22.979 0.489
10.7705 20.927 0.467
10.7910 19.646 0.452
10.8114 19.365 0.449
10.8319 18.417 0.438
10.8524 17.917 0.432
10.8728 17.896 0.432
10.8933 17.708 0.429
10.9137 16.823 0.419
10.9342 17.531 0.427
10.9547 16.823 0.419
10.9751 16.906 0.420
10.9956 15.854 0.406
11.0161 16.563 0.415
11.0365 16.302 0.412
11.0570 16.260 0.412
11.0775 16.802 0.418
11.0979 16.177 0.411
11.1184 16.229 0.411
11.1388 15.948 0.408
11.1593 15.104 0.397
11.1798 15.958 0.408
11.2002 14.969 0.395
11.2207 15.750 0.405
11.2412 15.229 0.398
11.2616 15.885 0.407
11.2821 16.021 0.409
11.3025 15.885 0.407
11.3230 14.688 0.391
11.3435 15.448 0.401
11.3639 15.073 0.396
11.3844 15.500 0.402
11.4049 14.677 0.391
11.4253 14.865 0.393
11.4458 15.135 0.397
11.4662 14.729 0.392
11.4867 14.396 0.387
11.5072 14.865 0.393
11.5276 14.781 0.392
11.5481 14.031 0.382
11.5686 14.250 0.385
11.5890 14.521 0.389
11.6095 14.375 0.387
11.6299 14.302 0.386
11.6504 14.083 0.383
11.6709 14.167 0.384
11.6913 14.115 0.383
11.7118 13.833 0.380
11.7323 13.979 0.382
11.7527 13.802 0.379
11.7732 14.208 0.385
11.7937 13.646 0.377
11.8141 14.198 0.385
11.8346 13.688 0.378
11.8550 14.417 0.388
11.8755 14.042 0.382
11.8960 13.667 0.377
11.9164 13.833 0.380
11.9369 13.646 0.377
11.9574 13.250 0.372
11.9778 13.073 0.369
11.9983 13.281 0.372
12.0187 13.010 0.368
12.0392 13.396 0.374
12.0597 13.156 0.370
12.0801 13.708 0.378
12.1006 12.969 0.368
12.1211 12.635 0.363
12.1415 12.854 0.366
12.1620 13.344 0.373
12.1824 12.583 0.362
12.2029 13.771 0.379
12.2234 13.063 0.369
12.2438 12.552 0.362
12.2643 13.000 0.368
12.2848 13.115 0.370
12.3052 12.292 0.358
12.3257 12.833 0.366
12.3461 12.302 0.358
12.3666 12.583 0.362
12.3871 12.302 0.358
12.4075 12.563 0.362
12.4280 12.573 0.362
12.4485 12.604 0.362
12.4689 12.781 0.365
12.4894 12.427 0.360
12.5098 12.385 0.359
12.5303 12.427 0.360
12.5508 12.615 0.362
12.5712 11.750 0.350
12.5917 12.271 0.358
12.6122 11.854 0.351
12.6326 11.667 0.349
12.6531 11.875 0.352
12.6736 11.448 0.345
12.6940 11.719 0.349
12.7145 11.406 0.345
12.7349 11.260 0.342
12.7554 11.438 0.345
12.7759 11.083 0.340
12.7963 12.010 0.354
12.8168 10.885 0.337
12.8373 11.781 0.350
12.8577 11.438 0.345
12.8782 11.875 0.352
12.8986 11.333 0.344
12.9191 11.510 0.346
12.9396 10.948 0.338
12.9600 11.500 0.346
12.9805 10.583 0.332
13.0010 11.333 0.344
13.0214 11.427 0.345
13.0419 11.094 0.340
13.0623 11.135 0.341
13.0828 11.000 0.339
13.1033 11.313 0.343
13.1237 10.958 0.338
13.1442 11.521 0.346
13.1647 11.198 0.342
13.1851 10.927 0.337
13.2056 10.927 0.337
13.2260 11.031 0.339
13.2465 10.281 0.327
13.2670 10.938 0.338
13.2874 10.833 0.336
13.3079 10.365 0.329
13.3284 11.083 0.340
13.3488 10.833 0.336
13.3693 10.823 0.336
13.3897 11.240 0.342
13.4102 11.156 0.341
13.4307 10.885 0.337
13.4511 10.833 0.336
13.4716 10.469 0.330
13.4921 10.906 0.337
13.5125 10.958 0.338
13.5330 11.615 0.348
13.5535 10.563 0.332
13.5739 11.000 0.339
13.5944 10.469 0.330
13.6148 10.792 0.335
13.6353 9.885 0.321
13.6558 11.156 0.341
13.6762 10.552 0.332
13.6967 11.000 0.339
13.7172 10.844 0.336
13.7376 10.292 0.327
13.7581 9.833 0.320
13.7785 10.188 0.326
13.7990 10.542 0.331
13.8195 10.240 0.327
13.8399 10.927 0.337
13.8604 10.188 0.326
13.8809 9.719 0.318
13.9013 10.417 0.329
13.9218 10.344 0.328
13.9422 9.667 0.317
13.9627 10.135 0.325
13.9832 9.542 0.315
14.0036 10.427 0.330
14.0241 10.000 0.323
14.0446 10.542 0.331
14.0650 10.229 0.326
14.0855 10.563 0.332
14.1059 10.375 0.329
14.1264 10.365 0.329
14.1469 10.385 0.329
14.1673 10.375 0.329
14.1878 10.146 0.325
14.2083 9.656 0.317
14.2287 9.938 0.322
14.2492 10.198 0.326
14.2696 10.510 0.331
14.2901 9.875 0.321
14.3106 10.365 0.329
14.3310 9.958 0.322
14.3515 10.177 0.326
14.3720 10.521 0.331
14.3924 9.396 0.313
14.4129 9.573 0.316
14.4334 9.719 0.318
14.4538 9.500 0.315
14.4743 9.990 0.323
14.4947 9.958 0.322
14.5152 9.833 0.320
14.5357 9.865 0.321
14.5561 9.844 0.320
14.5766 9.365 0.312
14.5971 9.927 0.322
14.6175 10.240 0.327
14.6380 9.385 0.313
14.6584 9.323 0.312
14.6789 9.302 0.311
14.6994 9.896 0.321
14.7198 9.677 0.317
14.7403 10.042 0.323
14.7608 9.896 0.321
14.7812 9.656 0.317
14.8017 9.760 0.319
14.8221 10.083 0.324
14.8426 10.031 0.323
14.8631 10.156 0.325
14.8835 9.708 0.318
14.9040 9.281 0.311
14.9245 9.813 0.320
14.9449 9.979 0.322
14.9654 9.844 0.320
14.9858 9.115 0.308
15.0063 9.177 0.309
15.0268 9.365 0.312
15.0472 9.531 0.315
15.0677 9.781 0.319
15.0882 9.750 0.319
15.1086 10.010 0.323
15.1291 9.302 0.311
15.1495 9.781 0.319
15.1700 9.792 0.319
15.1905 9.583 0.316
15.2109 8.885 0.304
15.2314 9.760 0.319
15.2519 10.156 0.325
15.2723 9.833 0.320
15.2928 9.333 0.312
15.3133 9.479 0.314
15.3337 9.365 0.312
15.3542 9.208 0.310
15.3746 9.500 0.315
15.3951 9.635 0.317
15.4156 9.625 0.317
15.4360 9.521 0.315
15.4565 10.188 0.326
15.4770 10.104 0.324
15.4974 9.958 0.322
15.5179 9.760 0.319
15.5383 9.542 0.315
15.5588 9.250 0.310
15.5793 9.875 0.321
15.5997 9.729 0.318
15.6202 9.521 0.315
15.6407 9.792 0.319
15.6611 10.563 0.332
15.6816 10.260 0.327
15.7020 10.448 0.330
15.7225 12.010 0.354
15.7430 14.813 0.393
15.7634 17.906 0.432
15.7839 22.771 0.487
15.8044 23.615 0.496
15.8248 18.594 0.440
15.8453 14.646 0.391
15.8657 11.125 0.340
15.8862 9.552 0.315
15.9067 9.906 0.321
15.9271 9.865 0.321
15.9476 9.292 0.311
15.9681 9.760 0.319
15.9885 9.458 0.314
16.0090 9.740 0.319
16.0295 9.490 0.314
16.0499 8.542 0.298
16.0704 9.313 0.311
16.0908 9.146 0.309
16.1113 8.729 0.302
16.1318 9.365 0.312
16.1522 9.094 0.308
16.1727 9.688 0.318
16.1932 9.156 0.309
16.2136 8.667 0.300
16.2341 9.052 0.307
16.2545 9.302 0.311
16.2750 9.146 0.309
16.2955 9.271 0.311
16.3159 8.688 0.301
16.3364 9.323 0.312
16.3569 9.156 0.309
16.3773 9.083 0.308
16.3978 8.448 0.297
16.4182 9.229 0.310
16.4387 8.521 0.298
16.4592 9.125 0.308
16.4796 9.615 0.316
16.5001 8.948 0.305
16.5206 8.938 0.305
16.5410 9.542 0.315
16.5615 9.188 0.309
16.5819 9.583 0.316
16.6024 9.781 0.319
16.6229 9.010 0.306
16.6433 9.083 0.308
16.6638 9.323 0.312
16.6843 9.240 0.310
16.7047 9.094 0.308
16.7252 8.896 0.304
16.7456 9.052 0.307
16.7661 8.979 0.306
16.7866 9.094 0.308
16.8070 9.458 0.314
16.8275 9.333 0.312
16.8480 8.729 0.302
16.8684 9.000 0.306
16.8889 9.354 0.312
16.9094 9.052 0.307
16.9298 9.125 0.308
16.9503 9.260 0.311
16.9707 9.115 0.308
16.9912 9.500 0.315
17.0117 9.500 0.315
17.0321 9.271 0.311
17.0526 9.073 0.307
17.0731 9.208 0.310
17.0935 9.250 0.310
17.1140 9.125 0.308
17.1344 9.063 0.307
17.1549 9.219 0.310
17.1754 9.354 0.312
17.1958 9.104 0.308
17.2163 10.490 0.331
17.2368 9.719 0.318
17.2572 9.802 0.320
17.2777 9.510 0.315
17.2981 9.969 0.322
17.3186 9.792 0.319
17.3391 9.667 0.317
17.3595 9.844 0.320
17.3800 9.844 0.320
17.4005 10.271 0.327
17.4209 10.188 0.326
17.4414 10.552 0.332
17.4618 10.635 0.333
17.4823 10.729 0.334
17.5028 11.010 0.339
17.5232 11.802 0.351
17.5437 10.563 0.332
17.5642 10.323 0.328
17.5846 10.771 0.335
17.6051 10.438 0.330
17.6255 10.406 0.329
17.6460 10.750 0.335
17.6665 10.406 0.329
17.6869 11.188 0.341
17.7074 10.698 0.334
17.7279 10.729 0.334
17.7483 11.844 0.351
17.7688 11.021 0.339
17.7893 11.708 0.349
17.8097 12.729 0.364
17.8302 13.240 0.371
17.8506 13.448 0.374
17.8711 12.396 0.359
17.8916 13.250 0.372
17.9120 13.115 0.370
17.9325 12.406 0.359
17.9530 13.313 0.372
17.9734 12.760 0.365
17.9939 13.458 0.374
18.0143 14.365 0.387
18.0348 15.458 0.401
18.0553 16.490 0.414
18.0757 18.490 0.439
18.0962 20.510 0.462
18.1167 20.375 0.461
18.1371 18.375 0.438
18.1576 17.427 0.426
18.1780 16.698 0.417
18.1985 17.031 0.421
18.2190 16.427 0.414
18.2394 16.552 0.415
18.2599 17.531 0.427
18.2804 17.500 0.427
18.3008 18.052 0.434
18.3213 17.833 0.431
18.3417 18.229 0.436
18.3622 18.813 0.443
18.3827 18.260 0.436
18.4031 19.542 0.451
18.4236 19.990 0.456
18.4441 20.698 0.464
18.4645 22.146 0.480
18.4850 22.802 0.487
18.5054 24.271 0.503
18.5259 26.385 0.524
18.5464 25.708 0.517
18.5668 26.979 0.530
18.5873 27.302 0.533
18.6078 31.479 0.573
18.6282 31.208 0.570
18.6487 30.000 0.559
18.6692 28.646 0.546
18.6896 25.125 0.512
18.7101 22.094 0.480
18.7305 20.885 0.466
18.7510 19.740 0.453
18.7715 19.958 0.456
18.7919 19.813 0.454
18.8124 20.271 0.460
18.8329 19.583 0.452
18.8533 18.896 0.444
18.8738 18.438 0.438
18.8942 17.604 0.428
18.9147 17.583 0.428
18.9352 15.094 0.397
18.9556 15.354 0.400
18.9761 13.906 0.381
18.9966 13.792 0.379
19.0170 13.927 0.381
19.0375 13.104 0.369
19.0579 13.083 0.369
19.0784 13.406 0.374
19.0989 12.854 0.366
19.1193 13.250 0.372
19.1398 12.667 0.363
19.1603 12.760 0.365
19.1807 12.188 0.356
19.2012 13.188 0.371
19.2216 13.229 0.371
19.2421 13.010 0.368
19.2626 12.323 0.358
19.2830 12.792 0.365
19.3035 13.229 0.371
19.3240 12.844 0.366
19.3444 13.010 0.368
19.3649 12.271 0.358
19.3853 12.583 0.362
19.4058 13.115 0.370
19.4263 12.667 0.363
19.4467 13.135 0.370
19.4672 13.115 0.370
19.4877 14.500 0.389
19.5081 13.729 0.378
19.5286 14.031 0.382
19.5491 15.135 0.397
19.5695 15.469 0.401
19.5900 16.500 0.415
19.6104 17.802 0.431
19.6309 18.958 0.444
19.6514 19.146 0.447
19.6718 20.542 0.463
19.6923 21.333 0.471
19.7128 23.604 0.496
19.7332 26.458 0.525
19.7537 30.719 0.566
19.7741 41.094 0.654
19.7946 55.875 0.763
19.8151 90.052 0.969
19.8355 150.708 1.253
19.8560 239.646 1.580
19.8765 264.500 1.660
19.8969 180.969 1.373
19.9174 157.448 1.281
19.9378 96.010 1.000
19.9583 44.677 0.682
19.9788 30.219 0.561
19.9992 24.198 0.502
20.0197 21.365 0.472
20.0402 20.500 0.462
20.0606 19.375 0.449
20.0811 18.344 0.437
20.1015 18.021 0.433
20.1220 17.219 0.424
20.1425 16.167 0.410
20.1629 15.323 0.400
20.1834 15.490 0.402
20.2039 15.479 0.402
20.2243 15.646 0.404
20.2448 16.094 0.409
20.2653 16.010 0.408
20.2857 15.719 0.405
20.3062 16.031 0.409
20.3266 16.531 0.415
20.3471 16.479 0.414
20.3676 15.698 0.404
20.3880 17.021 0.421
20.4085 16.198 0.411
20.4290 15.854 0.406
20.4494 15.958 0.408
20.4699 16.344 0.413
20.4903 15.750 0.405
20.5108 16.094 0.409
20.5313 15.958 0.408
20.5517 15.177 0.398
20.5722 15.208 0.398
20.5927 14.990 0.395
20.6131 14.188 0.384
20.6336 14.188 0.384
20.6540 14.667 0.391
20.6745 13.771 0.379
20.6950 12.979 0.368
20.7154 12.906 0.367
20.7359 13.094 0.369
20.7564 12.979 0.368
20.7768 12.656 0.363
20.7973 12.813 0.365
20.8177 13.063 0.369
20.8382 12.677 0.363
20.8587 12.552 0.362
20.8791 11.917 0.352
20.8996 12.135 0.356
20.9201 12.135 0.356
20.9405 12.094 0.355
20.9610 12.375 0.359
20.9814 12.719 0.364
21.0019 12.177 0.356
21.0224 12.708 0.364
21.0428 12.667 0.363
21.0633 12.302 0.358
21.0838 12.958 0.367
21.1042 13.188 0.371
21.1247 13.417 0.374
21.1452 13.052 0.369
21.1656 13.875 0.380
21.1861 13.542 0.376
21.2065 13.656 0.377
21.2270 14.365 0.387
21.2475 14.698 0.391
21.2679 15.250 0.399
21.2884 15.208 0.398
21.3089 17.240 0.424
21.3293 16.969 0.420
21.3498 18.740 0.442
21.3702 19.115 0.446
21.3907 18.844 0.443
21.4112 19.396 0.449
21.4316 20.500 0.462
21.4521 20.219 0.459
21.4726 19.583 0.452
21.4930 18.083 0.434
21.5135 17.240 0.424
21.5339 15.833 0.406
21.5544 14.104 0.383
21.5749 13.938 0.381
21.5953 14.094 0.383
21.6158 12.604 0.362
21.6363 12.750 0.364
21.6567 12.198 0.356
21.6772 12.865 0.366
21.6976 12.292 0.358
21.7181 11.583 0.347
21.7386 11.823 0.351
21.7590 11.563 0.347
21.7795 11.979 0.353
21.8000 11.135 0.341
21.8204 11.188 0.341
21.8409 11.177 0.341
21.8613 10.896 0.337
21.8818 11.188 0.341
21.9023 10.646 0.333
21.9227 10.469 0.330
21.9432 11.250 0.342
21.9637 11.260 0.342
21.9841 11.260 0.342
22.0046 11.167 0.341
22.0251 11.885 0.352
22.0455 12.885 0.366
22.0660 13.094 0.369
22.0864 14.646 0.391
22.1069 16.667 0.417
22.1274 18.552 0.440
22.1478 23.802 0.498
22.1683 31.844 0.576
22.1888 44.917 0.684
22.2092 56.583 0.768
22.2297 55.510 0.760
22.2501 45.958 0.692
22.2706 42.229 0.663
22.2911 32.760 0.584
22.3115 23.427 0.494
22.3320 18.385 0.438
22.3525 15.781 0.405
22.3729 14.625 0.390
22.3934 13.938 0.381
22.4138 12.375 0.359
22.4343 12.406 0.359
22.4548 11.510 0.346
22.4752 11.417 0.345
22.4957 11.385 0.344
22.5162 10.885 0.337
22.5366 10.198 0.326
22.5571 10.271 0.327
22.5775 10.344 0.328
22.5980 9.344 0.312
22.6185 9.667 0.317
22.6389 10.167 0.325
22.6594 9.990 0.323
22.6799 9.375 0.313
22.7003 9.292 0.311
22.7208 9.438 0.314
22.7412 9.552 0.315
22.7617 9.063 0.307
22.7822 10.531 0.331
22.8026 9.635 0.317
22.8231 9.958 0.322
22.8436 9.490 0.314
22.8640 10.594 0.332
22.8845 11.531 0.347
22.9050 11.302 0.343
22.9254 12.594 0.362
22.9459 11.573 0.347
22.9663 10.719 0.334
22.9868 10.302 0.328
23.0073 8.760 0.302
23.0277 9.635 0.317
23.0482 9.188 0.309
23.0687 9.375 0.313
23.0891 9.156 0.309
23.1096 9.281 0.311
23.1300 9.281 0.311
23.1505 8.521 0.298
23.1710 8.698 0.301
23.1914 8.521 0.298
23.2119 8.521 0.298
23.2324 8.271 0.294
23.2528 8.531 0.298
23.2733 9.021 0.307
23.2937 8.438 0.296
23.3142 8.083 0.290
23.3347 8.823 0.303
23.3551 7.854 0.286
23.3756 8.229 0.293
23.3961 8.542 0.298
23.4165 8.635 0.300
23.4370 8.469 0.297
23.4574 8.740 0.302
23.4779 8.292 0.294
23.4984 8.521 0.298
23.5188 8.844 0.304
23.5393 8.823 0.303
23.5598 8.490 0.297
23.5802 8.896 0.304
23.6007 9.240 0.310
23.6211 9.125 0.308
23.6416 9.563 0.316
23.6621 9.688 0.318
23.6825 9.823 0.320
23.7030 9.323 0.312
23.7235 9.438 0.314
23.7439 9.302 0.311
23.7644 9.198 0.310
23.7849 8.385 0.296
23.8053 8.688 0.301
23.8258 8.656 0.300
23.8462 8.250 0.293
23.8667 7.927 0.287
23.8872 8.000 0.289
23.9076 8.063 0.290
23.9281 8.677 0.301
23.9486 8.583 0.299
23.9690 8.365 0.295
23.9895 8.271 0.294
24.0099 8.792 0.303
24.0304 8.031 0.289
24.0509 7.750 0.284
24.0713 8.156 0.291
24.0918 8.208 0.292
24.1123 8.542 0.298
24.1327 7.948 0.288
24.1532 7.667 0.283
24.1736 8.104 0.291
24.1941 8.698 0.301
24.2146 8.656 0.300
24.2350 8.635 0.300
24.2555 8.865 0.304
24.2760 9.781 0.319
24.2964 9.302 0.311
24.3169 10.323 0.328
24.3373 11.406 0.345
24.3578 12.125 0.355
24.3783 11.625 0.348
24.3987 11.021 0.339
24.4192 10.094 0.324
24.4397 9.885 0.321
24.4601 9.646 0.317
24.4806 8.073 0.290
24.5011 8.656 0.300
24.5215 8.594 0.299
24.5420 8.031 0.289
24.5624 7.938 0.288
24.5829 7.688 0.283
24.6034 7.573 0.281
24.6238 8.500 0.298
24.6443 8.365 0.295
24.6648 8.781 0.302
24.6852 8.823 0.303
24.7057 8.281 0.294
24.7261 8.573 0.299
24.7466 8.833 0.303
24.7671 7.938 0.288
24.7875 8.063 0.290
24.8080 7.646 0.282
24.8285 7.917 0.287
24.8489 7.625 0.282
24.8694 8.021 0.289
24.8898 7.646 0.282
24.9103 7.500 0.280
24.9308 8.063 0.290
24.9512 7.854 0.286
24.9717 7.615 0.282
24.9922 7.813 0.285
25.0126 7.469 0.279
25.0331 7.708 0.283
25.0535 7.635 0.282
25.0740 8.000 0.289
25.0945 7.490 0.279
25.1149 8.042 0.289
25.1354 7.396 0.278
25.1559 7.125 0.272
25.1763 7.469 0.279
25.1968 7.958 0.288
25.2172 8.156 0.291
25.2377 7.969 0.288
25.2582 7.427 0.278
25.2786 7.188 0.274
25.2991 7.563 0.281
25.3196 7.302 0.276
25.3400 7.927 0.287
25.3605 7.250 0.275
25.3810 7.583 0.281
25.4014 7.938 0.288
25.4219 7.990 0.288
25.4423 7.740 0.284
25.4628 7.792 0.285
25.4833 7.052 0.271
25.5037 7.813 0.285
25.5242 7.375 0.277
25.5447 7.906 0.287
25.5651 8.313 0.294
25.5856 8.531 0.298
25.6060 9.896 0.321
25.6265 8.823 0.303
25.6470 8.677 0.301
25.6674 8.667 0.300
25.6879 8.271 0.294
25.7084 8.052 0.290
25.7288 7.750 0.284
25.7493 7.313 0.276
25.7697 7.854 0.286
25.7902 7.302 0.276
25.8107 7.802 0.285
25.8311 7.531 0.280
25.8516 7.448 0.279
25.8721 7.656 0.282
25.8925 7.552 0.280
25.9130 7.813 0.285
25.9334 7.000 0.270
25.9539 7.802 0.285
25.9744 8.156 0.291
25.9948 7.500 0.280
26.0153 7.792 0.285
26.0358 7.969 0.288
26.0562 8.365 0.295
26.0767 7.219 0.274
26.0971 7.104 0.272
26.1176 7.688 0.283
26.1381 7.604 0.281
26.1585 7.385 0.277
26.1790 7.563 0.281
26.1995 7.167 0.273
26.2199 7.219 0.274
26.2404 7.594 0.281
26.2609 7.292 0.276
26.2813 7.344 0.277
26.3018 7.740 0.284
26.3222 7.781 0.285
26.3427 7.500 0.280
26.3632 6.979 0.270
26.3836 7.302 0.276
26.4041 7.802 0.285
26.4246 7.302 0.276
26.4450 7.281 0.275
26.4655 7.365 0.277
26.4859 7.490 0.279
26.5064 6.927 0.269
26.5269 7.469 0.279
26.5473 7.490 0.279
26.5678 7.229 0.274
26.5883 6.906 0.268
26.6087 7.896 0.287
26.6292 7.438 0.278
26.6496 7.167 0.273
26.6701 7.240 0.275
26.6906 7.406 0.278
26.7110 7.792 0.285
26.7315 7.708 0.283
26.7520 7.708 0.283
26.7724 7.281 0.275
26.7929 7.385 0.277
26.8133 7.375 0.277
26.8338 7.490 0.279
26.8543 7.979 0.288
26.8747 7.885 0.287
26.8952 7.688 0.283
26.9157 8.010 0.289
26.9361 7.479 0.279
26.9566 7.583 0.281
26.9770 7.604 0.281
26.9975 7.323 0.276
27.0180 7.740 0.284
27.0384 7.927 0.287
27.0589 8.094 0.290
27.0794 7.708 0.283
27.0998 7.719 0.284
27.1203 7.760 0.284
27.1408 7.375 0.277
27.1612 7.198 0.274
27.1817 7.167 0.273
27.2021 7.208 0.274
27.2226 7.292 0.276
27.2431 7.104 0.272
27.2635 7.750 0.284
27.2840 7.698 0.283
27.3045 7.417 0.278
27.3249 8.042 0.289
27.3454 7.521 0.280
27.3658 7.823 0.285
27.3863 7.615 0.282
27.4068 7.333 0.276
27.4272 7.823 0.285
27.4477 8.344 0.295
27.4682 8.448 0.297
27.4886 9.781 0.319
27.5091 10.281 0.327
27.5295 9.396 0.313
27.5500 8.375 0.295
27.5705 9.521 0.315
27.5909 9.167 0.309
27.6114 8.281 0.294
27.6319 7.625 0.282
27.6523 7.823 0.285
27.6728 7.771 0.285
27.6932 7.479 0.279
27.7137 7.688 0.283
27.7342 7.635 0.282
27.7546 7.292 0.276
27.7751 7.813 0.285
27.7956 7.823 0.285
27.8160 7.823 0.285
27.8365 7.646 0.282
27.8569 8.177 0.292
27.8774 7.875 0.286
27.8979 8.010 0.289
27.9183 7.583 0.281
27.9388 7.885 0.287
27.9593 7.719 0.284
27.9797 7.396 0.278
28.0002 7.219 0.274
28.0207 7.583 0.281
28.0411 7.750 0.284
28.0616 6.604 0.262
28.0820 7.542 0.280
28.1025 7.281 0.275
28.1230 7.594 0.281
28.1434 7.667 0.283
28.1639 7.490 0.279
28.1844 7.021 0.270
28.2048 6.760 0.265
28.2253 7.052 0.271
28.2457 6.781 0.266
28.2662 7.375 0.277
28.2867 7.156 0.273
28.3071 6.958 0.269
28.3276 7.604 0.281
28.3481 7.302 0.276
28.3685 6.698 0.264
28.3890 7.208 0.274
28.4094 7.146 0.273
28.4299 7.125 0.272
28.4504 6.896 0.268
28.4708 7.010 0.270
28.4913 6.990 0.270
28.5118 6.844 0.267
28.5322 7.146 0.273
28.5527 6.708 0.264
28.5731 7.188 0.274
28.5936 7.208 0.274
28.6141 6.740 0.265
28.6345 7.292 0.276
28.6550 8.052 0.290
28.6755 7.469 0.279
28.6959 7.010 0.270
28.7164 7.646 0.282
28.7368 6.948 0.269
28.7573 7.281 0.275
28.7778 7.458 0.279
28.7982 7.729 0.284
28.8187 7.344 0.277
28.8392 7.479 0.279
28.8596 7.344 0.277
28.8801 7.125 0.272
28.9006 6.885 0.268
28.9210 7.146 0.273
28.9415 6.750 0.265
28.9619 7.458 0.279
28.9824 7.052 0.271
29.0029 6.625 0.263
29.0233 6.938 0.269
29.0438 6.781 0.266
29.0643 7.063 0.271
29.0847 6.927 0.269
29.1052 7.365 0.277
29.1256 7.146 0.273
29.1461 7.052 0.271
29.1666 7.146 0.273
29.1870 6.625 0.263
29.2075 6.865 0.267
29.2280 7.000 0.270
29.2484 6.500 0.260
29.2689 7.125 0.272
29.2893 7.115 0.272
29.3098 7.302 0.276
29.3303 7.219 0.274
29.3507 7.958 0.288
29.3712 7.604 0.281
29.3917 7.656 0.282
29.4121 7.406 0.278
29.4326 6.990 0.270
29.4530 6.917 0.268
29.4735 7.385 0.277
29.4940 7.156 0.273
29.5144 7.302 0.276
29.5349 7.250 0.275
29.5554 6.677 0.264
29.5758 7.250 0.275
29.5963 7.479 0.279
29.6168 7.135 0.273
29.6372 7.135 0.273
29.6577 7.156 0.273
29.6781 6.750 0.265
29.6986 6.677 0.264
29.7191 7.000 0.270
29.7395 6.688 0.264
29.7600 6.563 0.261
29.7805 6.490 0.260
29.8009 7.479 0.279
29.8214 7.021 0.270
29.8418 6.563 0.261
29.8623 6.635 0.263
29.8828 6.771 0.266
29.9032 6.604 0.262
29.9237 7.354 0.277
29.9442 6.885 0.268
29.9646 6.802 0.266
29.9851 7.104 0.272
30.0055 6.792 0.266
30.0260 6.396 0.258
30.0465 7.042 0.271
30.0669 6.646 0.263
30.0874 6.896 0.268
30.1079 6.146 0.253
30.1283 7.427 0.278
30.1488 6.698 0.264
30.1692 6.323 0.257
30.1897 6.646 0.263
30.2102 6.448 0.259
30.2306 6.948 0.269
30.2511 6.469 0.260
30.2716 6.490 0.260
30.2920 6.760 0.265
30.3125 6.510 0.260
30.3329 6.906 0.268
30.3534 6.667 0.264
30.3739 6.781 0.266
30.3943 6.771 0.266
30.4148 7.052 0.271
30.4353 6.813 0.266
30.4557 6.927 0.269
30.4762 6.990 0.270
30.4967 6.677 0.264
30.5171 6.646 0.263
30.5376 6.865 0.267
30.5580 6.458 0.259
30.5785 6.823 0.267
30.5990 7.250 0.275
30.6194 7.146 0.273
30.6399 7.313 0.276
30.6604 6.938 0.269
30.6808 6.865 0.267
30.7013 6.906 0.268
30.7217 7.073 0.271
30.7422 6.854 0.267
30.7627 7.073 0.271
30.7831 7.927 0.287
30.8036 7.802 0.285
30.8241 7.646 0.282
30.8445 8.667 0.300
30.8650 8.938 0.305
30.8854 8.854 0.304
30.9059 9.906 0.321
30.9264 10.948 0.338
30.9468 13.875 0.380
30.9673 16.479 0.414
30.9878 23.292 0.493
31.0082 34.771 0.602
31.0287 47.823 0.706
31.0491 55.688 0.762
31.0696 49.031 0.715
31.0901 41.042 0.654
31.1105 39.833 0.644
31.1310 35.875 0.611
31.1515 28.146 0.541
31.1719 20.198 0.459
31.1924 15.792 0.406
31.2128 12.750 0.364
31.2333 10.604 0.332
31.2538 10.063 0.324
31.2742 8.979 0.306
31.2947 9.010 0.306
31.3152 9.125 0.308
31.3356 8.813 0.303
31.3561 8.490 0.297
31.3766 8.802 0.303
31.3970 8.656 0.300
31.4175 7.792 0.285
31.4379 7.813 0.285
31.4584 7.958 0.288
31.4789 7.490 0.279
31.4993 7.625 0.282
31.5198 7.490 0.279
31.5403 6.990 0.270
31.5607 6.490 0.260
31.5812 6.792 0.266
31.6016 7.260 0.275
31.6221 6.813 0.266
31.6426 6.594 0.262
31.6630 6.750 0.265
31.6835 7.115 0.272
31.7040 6.583 0.262
31.7244 6.469 0.260
31.7449 6.771 0.266
31.7653 6.646 0.263
31.7858 6.844 0.267
31.8063 6.927 0.269
31.8267 6.781 0.266
31.8472 6.833 0.267
31.8677 7.115 0.272
31.8881 7.271 0.275
31.9086 6.958 0.269
31.9290 6.917 0.268
31.9495 7.219 0.274
31.9700 7.198 0.274
31.9904 6.927 0.269
32.0109 7.302 0.276
32.0314 7.510 0.280
32.0518 7.323 0.276
32.0723 7.906 0.287
32.0927 7.833 0.286
32.1132 8.333 0.295
32.1337 9.188 0.309
32.1541 9.635 0.317
32.1746 9.365 0.312
32.1951 9.885 0.321
32.2155 10.719 0.334
32.2360 10.833 0.336
32.2565 10.469 0.330
32.2769 9.344 0.312
32.2974 8.563 0.299
32.3178 9.365 0.312
32.3383 8.969 0.306
32.3588 8.188 0.292
32.3792 7.594 0.281
32.3997 8.292 0.294
32.4202 7.719 0.284
32.4406 8.823 0.303
32.4611 8.760 0.302
32.4815 8.969 0.306
32.5020 9.063 0.307
32.5225 9.948 0.322
32.5429 11.156 0.341
32.5634 11.375 0.344
32.5839 13.729 0.378
32.6043 16.625 0.416
32.6248 20.365 0.461
32.6452 23.229 0.492
32.6657 25.177 0.512
32.6862 21.240 0.470
32.7066 18.125 0.435
32.7271 17.052 0.421
32.7476 16.427 0.414
32.7680 13.688 0.378
32.7885 11.229 0.342
32.8089 10.083 0.324
32.8294 9.167 0.309
32.8499 8.635 0.300
32.8703 7.906 0.287
32.8908 7.344 0.277
32.9113 7.635 0.282
32.9317 7.406 0.278
32.9522 7.281 0.275
32.9726 7.104 0.272
32.9931 6.948 0.269
33.0136 6.698 0.264
33.0340 6.677 0.264
33.0545 7.563 0.281
33.0750 7.021 0.270
33.0954 7.094 0.272
33.1159 6.760 0.265
33.1364 6.865 0.267
33.1568 6.719 0.265
33.1773 6.771 0.266
33.1977 7.271 0.275
33.2182 7.063 0.271
33.2387 6.875 0.268
33.2591 5.979 0.250
33.2796 6.865 0.267
33.3001 7.448 0.279
33.3205 6.250 0.255
33.3410 6.656 0.263
33.3614 6.583 0.262
33.3819 6.740 0.265
33.4024 7.073 0.271
33.4228 6.948 0.269
33.4433 6.823 0.267
33.4638 6.844 0.267
33.4842 6.677 0.264
33.5047 6.750 0.265
33.5251 6.552 0.261
33.5456 6.656 0.263
33.5661 6.292 0.256
33.5865 6.073 0.252
33.6070 6.208 0.254
33.6275 6.625 0.263
33.6479 6.469 0.260
33.6684 6.781 0.266
33.6888 6.000 0.250
33.7093 6.323 0.257
33.7298 6.833 0.267
33.7502 6.760 0.265
33.7707 6.625 0.263
33.7912 6.177 0.254
33.8116 6.573 0.262
33.8321 6.750 0.265
33.8526 6.365 0.257
33.8730 6.313 0.256
33.8935 6.656 0.263
33.9139 6.167 0.253
33.9344 6.854 0.267
33.9549 6.604 0.262
33.9753 6.281 0.256
33.9958 5.844 0.247
34.0163 6.469 0.260
34.0367 6.313 0.256
34.0572 6.094 0.252
34.0776 6.469 0.260
34.0981 6.688 0.264
34.1186 6.344 0.257
34.1390 5.875 0.247
34.1595 6.594 0.262
34.1800 6.073 0.252
34.2004 6.469 0.260
34.2209 6.698 0.264
34.2413 7.115 0.272
34.2618 7.479 0.279
34.2823 7.656 0.282
34.3027 7.021 0.270
34.3232 6.823 0.267
34.3437 7.063 0.271
34.3641 6.729 0.265
34.3846 6.510 0.260
34.4050 6.438 0.259
34.4255 6.125 0.253
34.4460 6.521 0.261
34.4664 6.292 0.256
34.4869 6.229 0.255
34.5074 6.042 0.251
34.5278 6.313 0.256
34.5483 6.021 0.250
34.5687 6.448 0.259
34.5892 6.094 0.252
34.6097 6.344 0.257
34.6301 6.573 0.262
34.6506 6.177 0.254
34.6711 6.240 0.255
34.6915 6.719 0.265
34.7120 6.292 0.256
34.7325 6.188 0.254
34.7529 6.365 0.257
34.7734 6.281 0.256
34.7938 6.396 0.258
34.8143 6.177 0.254
34.8348 6.510 0.260
34.8552 6.427 0.259
34.8757 6.458 0.259
34.8962 6.073 0.252
34.9166 6.948 0.269
34.9371 7.021 0.270
34.9575 8.167 0.292
34.9780 8.677 0.301
34.9985 8.083 0.290
35.0189 7.677 0.283
35.0394 7.198 0.274
35.0599 7.500 0.280
35.0803 6.927 0.269
35.1008 6.938 0.269
35.1212 6.448 0.259
35.1417 6.281 0.256
35.1622 6.823 0.267
35.1826 6.510 0.260
35.2031 6.344 0.257
35.2236 6.281 0.256
35.2440 6.667 0.264
35.2645 6.500 0.260
35.2849 6.719 0.265
35.3054 6.302 0.256
35.3259 7.167 0.273
35.3463 7.021 0.270
35.3668 7.104 0.272
35.3873 6.844 0.267
35.4077 6.646 0.263
35.4282 6.552 0.261
35.4486 6.177 0.254
35.4691 6.875 0.268
35.4896 6.958 0.269
35.5100 6.427 0.259
35.5305 6.604 0.262
35.5510 6.698 0.264
35.5714 6.573 0.262
35.5919 6.917 0.268
35.6124 6.792 0.266
35.6328 6.344 0.257
35.6533 6.365 0.257
35.6737 6.271 0.256
35.6942 7.052 0.271
35.7147 7.135 0.273
35.7351 7.083 0.272
35.7556 7.240 0.275
35.7761 7.000 0.270
35.7965 6.729 0.265
35.8170 7.406 0.278
35.8374 7.375 0.277
35.8579 7.177 0.273
35.8784 7.375 0.277
35.8988 7.073 0.271
35.9193 7.073 0.271
35.9398 7.344 0.277
35.9602 7.677 0.283
35.9807 7.771 0.285
36.0011 8.250 0.293
36.0216 7.635 0.282
36.0421 8.146 0.291
36.0625 9.021 0.307
36.0830 8.990 0.306
36.1035 9.844 0.320
36.1239 10.781 0.335
36.1444 11.240 0.342
36.1648 11.458 0.345
36.1853 11.385 0.344
36.2058 10.979 0.338
36.2262 10.552 0.332
36.2467 10.635 0.333
36.2672 10.094 0.324
36.2876 10.344 0.328
36.3081 10.313 0.328
36.3285 10.292 0.327
36.3490 10.354 0.328
36.3695 10.031 0.323
36.3899 11.104 0.340
36.4104 10.427 0.330
36.4309 11.156 0.341
36.4513 11.135 0.341
36.4718 12.042 0.354
36.4923 12.323 0.358
36.5127 13.583 0.376
36.5332 14.271 0.386
36.5536 15.313 0.399
36.5741 19.271 0.448
36.5946 24.740 0.508
36.6150 28.958 0.549
36.6355 30.635 0.565
36.6560 27.594 0.536
36.6764 22.906 0.488
36.6969 22.656 0.486
36.7173 22.448 0.484
36.7378 20.333 0.460
36.7583 17.031 0.421
36.7787 15.542 0.402
36.7992 13.948 0.381
36.8197 12.573 0.362
36.8401 12.958 0.367
36.8606 12.625 0.363
36.8810 12.927 0.367
36.9015 13.271 0.372
36.9220 12.969 0.368
36.9424 13.396 0.374
36.9629 13.802 0.379
36.9834 14.698 0.391
37.0038 16.073 0.409
37.0243 19.375 0.449
37.0447 21.813 0.477
37.0652 27.146 0.532
37.0857 34.021 0.595
37.1061 39.396 0.641
37.1266 39.094 0.638
37.1471 33.854 0.594
37.1675 30.031 0.559
37.1880 28.344 0.543
37.2084 26.792 0.528
37.2289 24.719 0.507
37.2494 19.740 0.453
37.2698 15.781 0.405
37.2903 14.458 0.388
37.3108 13.188 0.371
37.3312 12.042 0.354
37.3517 11.271 0.343
37.3722 10.625 0.333
37.3926 9.990 0.323
37.4131 10.198 0.326
37.4335 9.073 0.307
37.4540 9.906 0.321
37.4745 9.615 0.316
37.4949 9.750 0.319
37.5154 10.063 0.324
37.5359 9.802 0.320
37.5563 9.417 0.313
37.5768 9.271 0.311
37.5972 9.521 0.315
37.6177 8.969 0.306
37.6382 9.531 0.315
37.6586 9.031 0.307
37.6791 8.719 0.301
37.6996 9.063 0.307
37.7200 8.792 0.303
37.7405 8.552 0.298
37.7609 9.198 0.310
37.7814 8.073 0.290
37.8019 8.521 0.298
37.8223 8.438 0.296
37.8428 8.250 0.293
37.8633 8.313 0.294
37.8837 9.042 0.307
37.9042 8.719 0.301
37.9246 9.313 0.311
37.9451 9.792 0.319
37.9656 10.219 0.326
37.9860 10.375 0.329
38.0065 11.458 0.345
38.0270 13.281 0.372
38.0474 14.875 0.394
38.0679 16.167 0.410
38.0884 15.719 0.405
38.1088 14.125 0.384
38.1293 14.063 0.383
38.1497 13.875 0.380
38.1702 13.333 0.373
38.1907 12.323 0.358
38.2111 11.552 0.347
38.2316 10.625 0.333
38.2521 10.760 0.335
38.2725 9.698 0.318
38.2930 10.375 0.329
38.3134 9.573 0.316
38.3339 9.615 0.316
38.3544 9.563 0.316
38.3748 9.771 0.319
38.3953 9.906 0.321
38.4158 10.781 0.335
38.4362 11.604 0.348
38.4567 13.375 0.373
38.4771 15.708 0.405
38.4976 14.844 0.393
38.5181 14.094 0.383
38.5385 13.344 0.373
38.5590 13.458 0.374
38.5795 13.125 0.370
38.5999 12.677 0.363
38.6204 11.635 0.348
38.6408 10.333 0.328
38.6613 9.365 0.312
38.6818 9.229 0.310
38.7022 9.104 0.308
38.7227 8.792 0.303
38.7432 8.063 0.290
38.7636 8.292 0.294
38.7841 7.948 0.288
38.8045 7.667 0.283
38.8250 7.792 0.285
38.8455 7.542 0.280
38.8659 7.479 0.279
38.8864 7.427 0.278
38.9069 8.073 0.290
38.9273 7.573 0.281
38.9478 7.979 0.288
38.9683 7.792 0.285
38.9887 7.385 0.277
39.0092 7.615 0.282
39.0296 7.844 0.286
39.0501 7.135 0.273
39.0706 7.708 0.283
39.0910 7.948 0.288
39.1115 7.490 0.279
39.1320 7.615 0.282
39.1524 7.958 0.288
39.1729 7.740 0.284
39.1933 7.156 0.273
39.2138 7.667 0.283
39.2343 7.708 0.283
39.2547 6.875 0.268
39.2752 7.490 0.279
39.2957 7.760 0.284
39.3161 7.292 0.276
39.3366 7.292 0.276
39.3570 7.667 0.283
39.3775 7.906 0.287
39.3980 7.760 0.284
39.4184 8.000 0.289
39.4389 8.198 0.292
39.4594 8.313 0.294
39.4798 8.042 0.289
39.5003 8.063 0.290
39.5207 7.948 0.288
39.5412 7.531 0.280
39.5617 8.260 0.293
39.5821 8.052 0.290
39.6026 7.875 0.286
39.6231 8.375 0.295
39.6435 8.667 0.300
39.6640 7.781 0.285
39.6844 8.417 0.296
39.7049 8.688 0.301
39.7254 9.604 0.316
39.7458 9.677 0.317
39.7663 9.917 0.321
39.7868 10.917 0.337
39.8072 12.271 0.358
39.8277 13.188 0.371
39.8482 12.813 0.365
39.8686 12.292 0.358
39.8891 11.156 0.341
39.9095 11.125 0.340
39.9300 11.375 0.344
39.9505 9.948 0.322
39.9709 9.708 0.318
39.9914 9.042 0.307
40.0119 7.875 0.286
40.0323 7.958 0.288
40.0528 7.875 0.286
40.0732 8.031 0.289
40.0937 7.729 0.284
40.1142 7.938 0.288
40.1346 7.885 0.287
40.1551 7.875 0.286
40.1756 8.125 0.291
40.1960 7.917 0.287
40.2165 8.250 0.293
40.2369 8.760 0.302
40.2574 8.635 0.300
40.2779 11.260 0.342
40.2983 13.917 0.381
40.3188 16.417 0.414
40.3393 13.792 0.379
40.3597 11.292 0.343
40.3802 10.865 0.336
40.4006 12.240 0.357
40.4211 13.490 0.375
40.4416 11.854 0.351
40.4620 10.427 0.330
40.4825 9.708 0.318
40.5030 9.365 0.312
40.5234 9.083 0.308
40.5439 8.719 0.301
40.5643 8.802 0.303
40.5848 8.760 0.302
40.6053 8.156 0.291
40.6257 8.448 0.297
40.6462 8.333 0.295
40.6667 7.677 0.283
40.6871 8.156 0.291
40.7076 8.490 0.297
40.7281 7.135 0.273
40.7485 7.677 0.283
40.7690 7.083 0.272
40.7894 8.208 0.292
40.8099 8.802 0.303
40.8304 8.885 0.304
40.8508 8.250 0.293
40.8713 7.615 0.282
40.8918 8.271 0.294
40.9122 8.594 0.299
40.9327 8.125 0.291
40.9531 8.313 0.294
40.9736 7.417 0.278
40.9941 7.510 0.280
41.0145 7.500 0.280
41.0350 7.750 0.284
41.0555 7.958 0.288
41.0759 8.438 0.296
41.0964 8.969 0.306
41.1168 10.229 0.326
41.1373 12.031 0.354
41.1578 12.604 0.362
41.1782 13.917 0.381
41.1987 13.396 0.374
41.2192 12.708 0.364
41.2396 11.792 0.350
41.2601 11.417 0.345
41.2805 11.927 0.352
41.3010 11.198 0.342
41.3215 9.344 0.312
41.3419 8.531 0.298
41.3624 8.385 0.296
41.3829 7.667 0.283
41.4033 8.073 0.290
41.4238 7.677 0.283
41.4442 6.979 0.270
41.4647 7.021 0.270
41.4852 7.229 0.274
41.5056 6.563 0.261
41.5261 6.521 0.261
41.5466 7.104 0.272
41.5670 6.646 0.263
41.5875 6.354 0.257
41.6080 5.885 0.248
41.6284 5.927 0.248
41.6489 6.656 0.263
41.6693 6.323 0.257
41.6898 6.458 0.259
41.7103 6.646 0.263
41.7307 6.448 0.259
41.7512 6.198 0.254
41.7717 6.635 0.263
41.7921 6.198 0.254
41.8126 6.802 0.266
41.8330 6.333 0.257
41.8535 6.479 0.260
41.8740 6.469 0.260
41.8944 6.958 0.269
41.9149 6.927 0.269
41.9354 6.344 0.257
41.9558 6.646 0.263
41.9763 6.427 0.259
41.9967 6.385 0.258
42.0172 6.896 0.268
42.0377 7.198 0.274
42.0581 6.594 0.262
42.0786 6.385 0.258
42.0991 6.615 0.262
42.1195 6.083 0.252
42.1400 6.344 0.257
42.1604 6.344 0.257
42.1809 6.542 0.261
42.2014 6.615 0.262
42.2218 6.271 0.256
42.2423 6.583 0.262
42.2628 6.844 0.267
42.2832 6.521 0.261
42.3037 6.500 0.260
42.3242 6.292 0.256
42.3446 6.771 0.266
42.3651 6.854 0.267
42.3855 7.073 0.271
42.4060 7.219 0.274
42.4265 7.208 0.274
42.4469 7.198 0.274
42.4674 7.417 0.278
42.4879 7.073 0.271
42.5083 7.646 0.282
42.5288 7.198 0.274
42.5492 7.063 0.271
42.5697 7.458 0.279
42.5902 6.781 0.266
42.6106 7.427 0.278
42.6311 6.917 0.268
42.6516 6.885 0.268
42.6720 6.969 0.269
42.6925 7.229 0.274
42.7129 6.615 0.262
42.7334 7.094 0.272
42.7539 6.906 0.268
42.7743 6.750 0.265
42.7948 6.875 0.268
42.8153 7.031 0.271
42.8357 6.833 0.267
42.8562 6.625 0.263
42.8766 6.573 0.262
42.8971 6.438 0.259
42.9176 6.531 0.261
42.9380 6.656 0.263
42.9585 7.208 0.274
42.9790 6.802 0.266
42.9994 6.333 0.257
43.0199 6.729 0.265
43.0403 6.656 0.263
43.0608 6.365 0.257
43.0813 6.594 0.262
43.1017 7.250 0.275
43.1222 7.146 0.273
43.1427 7.167 0.273
43.1631 7.365 0.277
43.1836 8.073 0.290
43.2041 7.646 0.282
43.2245 8.135 0.291
43.2450 8.969 0.306
43.2654 9.333 0.312
43.2859 9.448 0.314
43.3064 8.833 0.303
43.3268 8.406 0.296
43.3473 8.573 0.299
43.3678 8.948 0.305
43.3882 9.146 0.309
43.4087 8.979 0.306
43.4291 9.417 0.313
43.4496 8.615 0.300
43.4701 9.000 0.306
43.4905 9.240 0.310
43.5110 9.375 0.313
43.5315 10.198 0.326
43.5519 10.813 0.336
43.5724 11.125 0.340
43.5928 13.635 0.377
43.6133 15.521 0.402
43.6338 18.813 0.443
43.6542 21.052 0.468
43.6747 21.802 0.477
43.6952 20.969 0.467
43.7156 19.563 0.451
43.7361 16.844 0.419
43.7565 17.115 0.422
43.7770 16.896 0.420
43.7975 15.208 0.398
43.8179 14.396 0.387
43.8384 11.260 0.342
43.8589 10.885 0.337
43.8793 9.896 0.321
43.8998 8.771 0.302
43.9202 8.646 0.300
43.9407 8.396 0.296
43.9612 7.385 0.277
43.9816 7.656 0.282
44.0021 7.427 0.278
44.0226 7.302 0.276
44.0430 7.583 0.281
44.0635 7.156 0.273
44.0840 6.354 0.257
44.1044 6.750 0.265
44.1249 6.542 0.261
44.1453 6.479 0.260
44.1658 6.719 0.265
44.1863 6.635 0.263
44.2067 6.615 0.262
44.2272 6.229 0.255
44.2477 6.604 0.262
44.2681 6.240 0.255
44.2886 6.500 0.260
44.3090 6.604 0.262
44.3295 6.271 0.256
44.3500 6.969 0.269
44.3704 6.177 0.254
44.3909 6.521 0.261
44.4114 6.760 0.265
44.4318 6.510 0.260
44.4523 6.688 0.264
44.4727 6.271 0.256
44.4932 6.479 0.260
44.5137 6.792 0.266
44.5341 6.365 0.257
44.5546 6.479 0.260
44.5751 6.177 0.254
44.5955 6.948 0.269
44.6160 6.656 0.263
44.6364 6.677 0.264
44.6569 6.760 0.265
44.6774 6.906 0.268
44.6978 6.833 0.267
44.7183 6.510 0.260
44.7388 6.719 0.265
44.7592 6.833 0.267
44.7797 6.229 0.255
44.8001 6.500 0.260
44.8206 7.229 0.274
44.8411 7.125 0.272
44.8615 7.031 0.271
44.8820 7.333 0.276
44.9025 7.958 0.288
44.9229 8.052 0.290
44.9434 6.865 0.267
44.9639 7.688 0.283
44.9843 7.677 0.283
45.0048 7.531 0.280
45.0252 7.688 0.283
45.0457 7.021 0.270
45.0662 7.260 0.275
45.0866 7.156 0.273
45.1071 7.073 0.271
45.1276 7.375 0.277
45.1480 7.500 0.280
45.1685 7.917 0.287
45.1889 8.281 0.294
45.2094 8.740 0.302
45.2299 9.875 0.321
45.2503 10.448 0.330
45.2708 11.135 0.341
45.2913 10.583 0.332
45.3117 9.781 0.319
45.3322 9.615 0.316
45.3526 9.354 0.312
45.3731 9.073 0.307
45.3936 8.781 0.302
45.4140 9.010 0.306
45.4345 8.323 0.294
45.4550 8.177 0.292
45.4754 7.729 0.284
45.4959 6.677 0.264
45.5163 7.281 0.275
45.5368 6.771 0.266
45.5573 6.542 0.261
45.5777 7.021 0.270
45.5982 6.115 0.252
45.6187 6.083 0.252
45.6391 5.990 0.250
45.6596 6.208 0.254
45.6800 5.948 0.249
45.7005 6.479 0.260
45.7210 6.250 0.255
45.7414 6.375 0.258
45.7619 6.354 0.257
45.7824 6.302 0.256
45.8028 6.063 0.251
45.8233 5.885 0.248
45.8438 5.844 0.247
45.8642 6.115 0.252
45.8847 5.594 0.241
45.9051 5.844 0.247
45.9256 6.531 0.261
45.9461 5.750 0.245
45.9665 5.896 0.248
45.9870 6.281 0.256
46.0075 5.802 0.246
46.0279 6.167 0.253
46.0484 6.052 0.251
46.0688 5.896 0.248
46.0893 6.250 0.255
46.1098 6.417 0.259
46.1302 6.073 0.252
46.1507 5.781 0.245
46.1712 5.635 0.242
46.1916 6.177 0.254
46.2121 5.948 0.249
46.2325 5.823 0.246
46.2530 5.802 0.246
46.2735 5.750 0.245
46.2939 5.979 0.250
46.3144 5.719 0.244
46.3349 5.583 0.241
46.3553 5.833 0.247
46.3758 5.573 0.241
46.3962 5.948 0.249
46.4167 5.688 0.243
46.4372 6.313 0.256
46.4576 6.135 0.253
46.4781 5.979 0.250
46.4986 6.229 0.255
46.5190 5.927 0.248
46.5395 6.167 0.253
46.5600 5.979 0.250
46.5804 6.469 0.260
46.6009 5.781 0.245
46.6213 6.365 0.257
46.6418 6.677 0.264
46.6623 7.115 0.272
46.6827 6.604 0.262
46.7032 5.865 0.247
46.7237 6.344 0.257
46.7441 5.542 0.240
46.7646 5.854 0.247
46.7850 6.323 0.257
46.8055 6.281 0.256
46.8260 5.979 0.250
46.8464 5.969 0.249
46.8669 5.833 0.247
46.8874 5.875 0.247
46.9078 6.073 0.252
46.9283 5.635 0.242
46.9487 5.729 0.244
46.9692 5.708 0.244
46.9897 5.406 0.237
47.0101 5.688 0.243
47.0306 5.896 0.248
47.0511 5.635 0.242
47.0715 5.677 0.243
47.0920 5.750 0.245
47.1124 5.792 0.246
47.1329 5.479 0.239
47.1534 5.969 0.249
47.1738 5.760 0.245
47.1943 5.823 0.246
47.2148 5.781 0.245
47.2352 6.063 0.251
47.2557 5.542 0.240
47.2761 5.646 0.243
47.2966 6.031 0.251
47.3171 5.802 0.246
47.3375 6.000 0.250
47.3580 6.188 0.254
47.3785 6.177 0.254
47.3989 6.083 0.252
47.4194 6.385 0.258
47.4399 5.813 0.246
47.4603 6.323 0.257
47.4808 6.646 0.263
47.5012 6.521 0.261
47.5217 6.719 0.265
47.5422 7.063 0.271
47.5626 6.906 0.268
47.5831 7.604 0.281
47.6036 8.615 0.300
47.6240 9.708 0.318
47.6445 10.583 0.332
47.6649 10.958 0.338
47.6854 10.833 0.336
47.7059 9.938 0.322
47.7263 9.438 0.314
47.7468 9.104 0.308
47.7673 9.521 0.315
47.7877 9.625 0.317
47.8082 9.375 0.313
47.8286 8.198 0.292
47.8491 8.104 0.291
47.8696 7.000 0.270
47.8900 6.896 0.268
47.9105 7.354 0.277
47.9310 6.979 0.270
47.9514 6.635 0.263
47.9719 6.615 0.262
47.9923 6.271 0.256
48.0128 6.344 0.257
48.0333 6.188 0.254
48.0537 6.177 0.254
48.0742 5.938 0.249
48.0947 6.250 0.255
48.1151 6.021 0.250
48.1356 6.240 0.255
48.1560 6.563 0.261
48.1765 5.740 0.245
48.1970 6.198 0.254
48.2174 5.990 0.250
48.2379 6.115 0.252
48.2584 6.292 0.256
48.2788 6.323 0.257
48.2993 6.583 0.262
48.3198 6.833 0.267
48.3402 7.094 0.272
48.3607 7.563 0.281
48.3811 7.469 0.279
48.4016 7.177 0.273
48.4221 6.750 0.265
48.4425 7.490 0.279
48.4630 6.740 0.265
48.4835 7.146 0.273
48.5039 6.792 0.266
48.5244 6.688 0.264
48.5448 6.573 0.262
48.5653 5.875 0.247
48.5858 6.302 0.256
48.6062 6.198 0.254
48.6267 6.229 0.255
48.6472 6.094 0.252
48.6676 6.417 0.259
48.6881 6.552 0.261
48.7085 7.073 0.271
48.7290 7.708 0.283
48.7495 7.771 0.285
48.7699 7.271 0.275
48.7904 7.052 0.271
48.8109 6.583 0.262
48.8313 6.750 0.265
48.8518 7.021 0.270
48.8722 6.667 0.264
48.8927 6.260 0.255
48.9132 6.469 0.260
48.9336 5.781 0.245
48.9541 5.875 0.247
48.9746 5.781 0.245
48.9950 5.594 0.241
49.0155 5.635 0.242
49.0359 5.448 0.238
49.0564 5.688 0.243
49.0769 5.771 0.245
49.0973 5.760 0.245
49.1178 5.729 0.244
49.1383 5.448 0.238
49.1587 5.365 0.236
49.1792 5.490 0.239
49.1997 5.792 0.246
49.2201 5.250 0.234
49.2406 5.677 0.243
49.2610 5.667 0.243
49.2815 5.990 0.250
49.3020 5.240 0.234
49.3224 5.219 0.233
49.3429 5.646 0.243
49.3634 5.833 0.247
49.3838 6.302 0.256
49.4043 5.906 0.248
49.4247 5.688 0.243
49.4452 6.052 0.251
49.4657 5.781 0.245
49.4861 5.604 0.242
49.5066 6.021 0.250
49.5271 6.729 0.265
49.5475 6.250 0.255
49.5680 5.729 0.244
49.5884 6.250 0.255
49.6089 6.302 0.256
49.6294 6.667 0.264
49.6498 6.542 0.261
49.6703 6.938 0.269
49.6908 6.958 0.269
49.7112 7.135 0.273
49.7317 7.990 0.288
49.7521 8.135 0.291
49.7726 7.781 0.285
49.7931 9.604 0.316
49.8135 10.198 0.326
49.8340 11.073 0.340
49.8545 13.479 0.375
49.8749 13.521 0.375
49.8954 15.250 0.399
49.9158 14.281 0.386
49.9363 13.240 0.371
49.9568 12.292 0.358
49.9772 12.240 0.357
49.9977 12.177 0.356
50.0182 12.417 0.360
50.0386 11.865 0.352
50.0591 10.865 0.336
50.0796 10.260 0.327
50.1000 9.052 0.307
50.1205 8.281 0.294
50.1409 8.385 0.296
50.1614 8.719 0.301
50.1819 8.854 0.304
50.2023 9.354 0.312
50.2228 9.344 0.312
50.2433 9.052 0.307
50.2637 9.625 0.317
50.2842 8.000 0.289
50.3046 8.281 0.294
50.3251 8.052 0.290
50.3456 8.354 0.295
50.3660 8.156 0.291
50.3865 7.958 0.288
50.4070 6.615 0.262
50.4274 7.354 0.277
50.4479 6.281 0.256
50.4683 6.281 0.256
50.4888 6.323 0.257
50.5093 6.427 0.259
50.5297 6.479 0.260
50.5502 6.292 0.256
50.5707 6.031 0.251
50.5911 5.771 0.245
50.6116 6.292 0.256
50.6320 5.583 0.241
50.6525 5.938 0.249
50.6730 5.781 0.245
50.6934 6.156 0.253
50.7139 5.583 0.241
50.7344 5.490 0.239
50.7548 6.219 0.255
50.7753 5.948 0.249
50.7958 6.635 0.263
50.8162 5.646 0.243
50.8367 6.010 0.250
50.8571 5.927 0.248
50.8776 6.281 0.256
50.8981 6.365 0.257
50.9185 6.135 0.253
50.9390 5.969 0.249
50.9595 6.615 0.262
50.9799 6.948 0.269
51.0004 7.792 0.285
51.0208 7.969 0.288
51.0413 8.146 0.291
51.0618 7.083 0.272
51.0822 6.740 0.265
51.1027 6.979 0.270
51.1232 6.792 0.266
51.1436 7.073 0.271
51.1641 7.865 0.286
51.1845 7.208 0.274
51.2050 7.250 0.275
51.2255 6.375 0.258
51.2459 6.344 0.257
51.2664 6.625 0.263
51.2869 7.365 0.277
51.3073 6.052 0.251
51.3278 6.510 0.260
51.3482 7.104 0.272
51.3687 6.396 0.258
51.3892 6.031 0.251
51.4096 6.615 0.262
51.4301 6.073 0.252
51.4506 6.552 0.261
51.4710 6.042 0.251
51.4915 6.500 0.260
51.5119 6.198 0.254
51.5324 5.927 0.248
51.5529 5.927 0.248
51.5733 6.031 0.251
51.5938 5.885 0.248
51.6143 5.781 0.245
51.6347 6.073 0.252
51.6552 6.073 0.252
51.6757 6.615 0.262
51.6961 6.865 0.267
51.7166 7.104 0.272
51.7370 7.052 0.271
51.7575 6.698 0.264
51.7780 6.354 0.257
51.7984 6.396 0.258
51.8189 6.490 0.260
51.8394 6.615 0.262
51.8598 6.490 0.260
51.8803 6.698 0.264
51.9007 5.948 0.249
51.9212 5.792 0.246
51.9417 5.677 0.243
51.9621 5.760 0.245
51.9826 5.104 0.231
52.0031 5.563 0.241
52.0235 5.438 0.238
52.0440 5.417 0.238
52.0644 5.208 0.233
52.0849 4.781 0.223
52.1054 5.333 0.236
52.1258 5.083 0.230
52.1463 4.875 0.225
52.1668 5.406 0.237
52.1872 5.552 0.240
52.2077 4.813 0.224
52.2281 5.000 0.228
52.2486 5.365 0.236
52.2691 5.396 0.237
52.2895 5.188 0.232
52.3100 5.115 0.231
52.3305 5.281 0.235
52.3509 5.563 0.241
52.3714 5.677 0.243
52.3918 5.552 0.240
52.4123 5.688 0.243
52.4328 5.969 0.249
52.4532 5.813 0.246
52.4737 5.823 0.246
52.4942 5.292 0.235
52.5146 5.281 0.235
52.5351 5.063 0.230
52.5556 5.552 0.240
52.5760 5.417 0.238
52.5965 5.229 0.233
52.6169 5.292 0.235
52.6374 5.323 0.235
52.6579 4.979 0.228
52.6783 5.115 0.231
52.6988 5.094 0.230
52.7193 5.083 0.230
52.7397 5.167 0.232
52.7602 4.896 0.226
52.7806 4.760 0.223
52.8011 4.948 0.227
52.8216 5.385 0.237
52.8420 5.281 0.235
52.8625 5.302 0.235
52.8830 5.333 0.236
52.9034 4.917 0.226
52.9239 5.292 0.235
52.9443 5.115 0.231
52.9648 5.135 0.231
52.9853 5.125 0.231
53.0057 5.292 0.235
53.0262 5.167 0.232
53.0467 5.500 0.239
53.0671 5.813 0.246
53.0876 5.469 0.239
53.1080 5.833 0.247
53.1285 5.083 0.230
53.1490 5.125 0.231
53.1694 5.490 0.239
53.1899 5.219 0.233
53.2104 5.385 0.237
53.2308 5.104 0.231
53.2513 5.646 0.243
53.2717 5.927 0.248
53.2922 5.573 0.241
53.3127 5.521 0.240
53.3331 5.375 0.237
53.3536 4.906 0.226
53.3741 5.417 0.238
53.3945 5.260 0.234
53.4150 5.177 0.232
53.4355 5.094 0.230
53.4559 4.948 0.227
53.4764 5.000 0.228
53.4968 5.323 0.235
53.5173 5.406 0.237
53.5378 5.042 0.229
53.5582 4.708 0.221
53.5787 4.583 0.219
53.5992 5.344 0.236
53.6196 5.021 0.229
53.6401 4.854 0.225
53.6605 4.688 0.221
53.6810 4.708 0.221
53.7015 4.813 0.224
53.7219 5.146 0.232
53.7424 5.198 0.233
53.7629 4.927 0.227
53.7833 5.260 0.234
53.8038 4.760 0.223
53.8242 4.865 0.225
53.8447 5.000 0.228
53.8652 4.823 0.224
53.8856 5.083 0.230
53.9061 5.063 0.230
53.9266 5.052 0.229
53.9470 5.021 0.229
53.9675 4.938 0.227
53.9879 5.188 0.232
54.0084 5.000 0.228
54.0289 4.552 0.218
54.0493 4.396 0.214
54.0698 4.760 0.223
54.0903 4.875 0.225
54.1107 5.313 0.235
54.1312 5.396 0.237
54.1516 5.552 0.240
54.1721 5.729 0.244
54.1926 5.958 0.249
54.2130 5.792 0.246
54.2335 5.677 0.243
54.2540 5.604 0.242
54.2744 5.625 0.242
54.2949 5.344 0.236
54.3154 5.031 0.229
54.3358 4.760 0.223
54.3563 5.167 0.232
54.3767 5.146 0.232
54.3972 4.833 0.224
54.4177 5.083 0.230
54.4381 5.146 0.232
54.4586 5.000 0.228
54.4791 4.542 0.218
54.4995 5.063 0.230
54.5200 4.969 0.228
54.5404 4.833 0.224
54.5609 5.052 0.229
54.5814 4.688 0.221
54.6018 4.781 0.223
54.6223 5.104 0.231
54.6428 5.031 0.229
54.6632 5.115 0.231
54.6837 4.688 0.221
54.7041 4.594 0.219
54.7246 4.719 0.222
54.7451 4.781 0.223
54.7655 5.073 0.230
54.7860 4.583 0.219
54.8065 4.677 0.221
54.8269 5.052 0.229
54.8474 4.833 0.224
54.8678 4.771 0.223
54.8883 5.365 0.236
54.9088 4.896 0.226
54.9292 5.135 0.231
54.9497 5.823 0.246
54.9702 6.042 0.251
54.9906 5.240 0.234
55.0111 6.125 0.253
55.0316 6.240 0.255
55.0520 6.531 0.261
55.0725 6.594 0.262
55.0929 7.729 0.284
55.1134 9.750 0.319
55.1339 10.313 0.328
55.1543 11.896 0.352
55.1748 14.667 0.391
55.1953 15.563 0.403
55.2157 15.750 0.405
55.2362 14.260 0.385
55.2566 12.688 0.364
55.2771 12.385 0.359
55.2976 11.323 0.343
55.3180 12.135 0.356
55.3385 12.438 0.360
55.3590 11.604 0.348
55.3794 10.156 0.325
55.3999 9.615 0.316
55.4203 8.177 0.292
55.4408 7.510 0.280
55.4613 6.802 0.266
55.4817 6.708 0.264
55.5022 6.583 0.262
55.5227 6.219 0.255
55.5431 6.604 0.262
55.5636 5.844 0.247
55.5840 5.698 0.244
55.6045 5.625 0.242
55.6250 5.240 0.234
55.6454 5.406 0.237
55.6659 5.333 0.236
55.6864 5.177 0.232
55.7068 5.510 0.240
55.7273 5.354 0.236
55.7477 5.208 0.233
55.7682 5.875 0.247
55.7887 5.500 0.239
55.8091 5.625 0.242
55.8296 5.604 0.242
55.8501 6.073 0.252
55.8705 6.063 0.251
55.8910 6.281 0.256
55.9115 6.188 0.254
55.9319 5.646 0.243
55.9524 6.271 0.256
55.9728 6.073 0.252
55.9933 5.958 0.249
56.0138 6.531 0.261
56.0342 6.625 0.263
56.0547 7.052 0.271
56.0752 6.656 0.263
56.0956 7.000 0.270
56.1161 7.323 0.276
56.1365 7.927 0.287
56.1570 8.500 0.298
56.1775 10.292 0.327
56.1979 10.385 0.329
56.2184 12.031 0.354
56.2389 12.323 0.358
56.2593 10.677 0.333
56.2798 9.792 0.319
56.3002 9.042 0.307
56.3207 8.625 0.300
56.3412 8.865 0.304
56.3616 8.979 0.306
56.3821 9.094 0.308
56.4026 8.469 0.297
56.4230 7.063 0.271
56.4435 6.958 0.269
56.4639 6.292 0.256
56.4844 5.729 0.244
56.5049 5.792 0.246
56.5253 5.844 0.247
56.5458 5.135 0.231
56.5663 5.031 0.229
56.5867 5.125 0.231
56.6072 5.135 0.231
56.6276 4.573 0.218
56.6481 5.010 0.228
56.6686 4.802 0.224
56.6890 4.906 0.226
56.7095 5.396 0.237
56.7300 5.125 0.231
56.7504 5.438 0.238
56.7709 4.979 0.228
56.7914 4.917 0.226
56.8118 4.573 0.218
56.8323 4.885 0.226
56.8527 4.708 0.221
56.8732 4.615 0.219
56.8937 5.083 0.230
56.9141 4.917 0.226
56.9346 4.635 0.220
56.9551 4.760 0.223
56.9755 4.823 0.224
56.9960 4.240 0.210
57.0164 4.583 0.219
57.0369 4.344 0.213
57.0574 4.281 0.211
57.0778 4.479 0.216
57.0983 4.875 0.225
57.1188 4.677 0.221
57.1392 4.625 0.219
57.1597 4.573 0.218
57.1801 4.875 0.225
57.2006 4.646 0.220
57.2211 4.531 0.217
57.2415 4.677 0.221
57.2620 4.979 0.228
57.2825 4.406 0.214
57.3029 4.542 0.218
57.3234 4.333 0.212
57.3438 4.292 0.211
57.3643 4.698 0.221
57.3848 4.573 0.218
57.4052 4.510 0.217
57.4257 4.792 0.223
57.4462 4.906 0.226
57.4666 4.438 0.215
57.4871 4.823 0.224
57.5075 4.604 0.219
57.5280 4.500 0.217
57.5485 4.896 0.226
57.5689 5.229 0.233
57.5894 4.708 0.221
57.6099 5.302 0.235
57.6303 5.167 0.232
57.6508 4.583 0.219
57.6713 5.146 0.232
57.6917 4.833 0.224
57.7122 5.333 0.236
57.7326 5.000 0.228
57.7531 5.385 0.237
57.7736 5.052 0.229
57.7940 5.573 0.241
57.8145 5.417 0.238
57.8350 5.823 0.246
57.8554 6.104 0.252
57.8759 6.771 0.266
57.8963 6.292 0.256
57.9168 6.990 0.270
57.9373 8.021 0.289
57.9577 7.917 0.287
57.9782 8.500 0.298
57.9987 7.969 0.288
58.0191 7.417 0.278
58.0396 7.271 0.275
58.0600 7.083 0.272
58.0805 6.906 0.268
58.1010 6.958 0.269
58.1214 7.604 0.281
58.1419 6.427 0.259
58.1624 6.458 0.259
58.1828 6.740 0.265
58.2033 5.729 0.244
58.2237 5.615 0.242
58.2442 5.427 0.238
58.2647 5.292 0.235
58.2851 5.292 0.235
58.3056 5.063 0.230
58.3261 4.740 0.222
58.3465 4.875 0.225
58.3670 4.438 0.215
58.3874 4.813 0.224
58.4079 4.896 0.226
58.4284 5.063 0.230
58.4488 4.604 0.219
58.4693 4.958 0.227
58.4898 5.125 0.231
58.5102 4.844 0.225
58.5307 4.875 0.225
58.5512 5.250 0.234
58.5716 5.073 0.230
58.5921 5.104 0.231
58.6125 4.677 0.221
58.6330 4.958 0.227
58.6535 4.979 0.228
58.6739 4.740 0.222
58.6944 4.615 0.219
58.7149 4.885 0.226
58.7353 4.844 0.225
58.7558 4.896 0.226
58.7762 5.031 0.229
58.7967 4.802 0.224
58.8172 4.948 0.227
58.8376 4.792 0.223
58.8581 4.958 0.227
58.8786 4.979 0.228
58.8990 5.229 0.233
58.9195 4.854 0.225
58.9399 4.990 0.228
58.9604 4.760 0.223
58.9809 5.021 0.229
59.0013 4.854 0.225
59.0218 5.302 0.235
59.0423 5.177 0.232
59.0627 5.427 0.238
59.0832 5.000 0.228
59.1036 5.083 0.230
59.1241 6.115 0.252
59.1446 6.115 0.252
59.1650 5.990 0.250
59.1855 7.010 0.270
59.2060 7.802 0.285
59.2264 7.979 0.288
59.2469 8.021 0.289
59.2674 8.031 0.289
59.2878 7.125 0.272
59.3083 6.781 0.266
59.3287 6.521 0.261
59.3492 6.510 0.260
59.3697 6.531 0.261
59.3901 6.396 0.258
59.4106 6.531 0.261
59.4311 5.844 0.247
59.4515 5.948 0.249
59.4720 5.302 0.235
59.4924 5.115 0.231
59.5129 5.302 0.235
59.5334 4.750 0.222
59.5538 4.802 0.224
59.5743 5.229 0.233
59.5948 4.667 0.220
59.6152 4.646 0.220
59.6357 4.708 0.221
59.6561 4.896 0.226
59.6766 4.823 0.224
59.6971 5.094 0.230
59.7175 4.844 0.225
59.7380 5.063 0.230
59.7585 4.781 0.223
59.7789 5.146 0.232
59.7994 5.469 0.239
59.8198 5.594 0.241
59.8403 5.656 0.243
59.8608 6.083 0.252
59.8812 6.708 0.264
59.9017 7.083 0.272
59.9222 7.208 0.274
59.9426 7.000 0.270
59.9631 6.260 0.255
59.9835 6.542 0.261
60.0040 6.344 0.257
60.0245 5.906 0.248
60.0449 5.823 0.246
60.0654 5.615 0.242
60.0859 6.167 0.253
60.1063 5.406 0.237
60.1268 5.677 0.243
60.1473 5.104 0.231
60.1677 5.406 0.237
60.1882 5.521 0.240
60.2086 4.365 0.213
60.2291 4.594 0.219
60.2496 4.646 0.220
60.2700 4.469 0.216
60.2905 4.760 0.223
60.3110 4.177 0.209
60.3314 4.583 0.219
60.3519 4.323 0.212
60.3723 4.490 0.216
60.3928 4.063 0.206
60.4133 4.083 0.206
60.4337 4.417 0.214
60.4542 4.438 0.215
60.4747 4.229 0.210
60.4951 4.656 0.220
60.5156 4.396 0.214
60.5360 4.510 0.217
60.5565 4.604 0.219
60.5770 4.313 0.212
60.5974 4.240 0.210
60.6179 4.021 0.205
60.6384 4.115 0.207
60.6588 4.510 0.217
60.6793 4.313 0.212
60.6997 4.448 0.215
60.7202 4.354 0.213
60.7407 4.604 0.219
60.7611 3.938 0.203
60.7816 4.594 0.219
60.8021 4.198 0.209
60.8225 4.490 0.216
60.8430 4.625 0.219
60.8634 4.385 0.214
60.8839 4.354 0.213
60.9044 4.531 0.217
60.9248 4.031 0.205
60.9453 4.396 0.214
60.9658 4.427 0.215
60.9862 4.521 0.217
61.0067 4.281 0.211
61.0272 4.656 0.220
61.0476 4.854 0.225
61.0681 4.740 0.222
61.0885 4.458 0.216
61.1090 4.542 0.218
61.1295 4.490 0.216
61.1499 4.792 0.223
61.1704 4.302 0.212
61.1909 4.448 0.215
61.2113 4.542 0.218
61.2318 4.344 0.213
61.2522 3.948 0.203
61.2727 4.385 0.214
61.2932 3.958 0.203
61.3136 4.333 0.212
61.3341 4.229 0.210
61.3546 4.208 0.209
61.3750 4.104 0.207
61.3955 3.990 0.204
61.4159 4.406 0.214
61.4364 4.354 0.213
61.4569 4.031 0.205
61.4773 4.156 0.208
61.4978 4.198 0.209
61.5183 3.865 0.201
61.5387 4.302 0.212
61.5592 4.000 0.204
61.5796 4.042 0.205
61.6001 3.938 0.203
61.6206 4.156 0.208
61.6410 4.656 0.220
61.6615 3.750 0.198
61.6820 4.083 0.206
61.7024 4.031 0.205
61.7229 4.760 0.223
61.7433 4.188 0.209
61.7638 4.000 0.204
61.7843 3.833 0.200
61.8047 4.073 0.206
61.8252 4.104 0.207
61.8457 4.292 0.211
61.8661 4.438 0.215
61.8866 3.958 0.203
61.9071 3.906 0.202
61.9275 4.021 0.205
61.9480 4.417 0.214
61.9684 4.177 0.209
61.9889 4.031 0.205
62.0094 4.135 0.208
62.0298 4.417 0.214
62.0503 4.229 0.210
62.0708 4.771 0.223
62.0912 4.146 0.208
62.1117 4.260 0.211
62.1321 4.823 0.224
62.1526 5.198 0.233
62.1731 5.365 0.236
62.1935 5.479 0.239
62.2140 5.375 0.237
62.2345 5.344 0.236
62.2549 5.313 0.235
62.2754 5.073 0.230
62.2958 4.333 0.212
62.3163 4.844 0.225
62.3368 4.698 0.221
62.3572 4.875 0.225
62.3777 4.802 0.224
62.3982 4.969 0.228
62.4186 4.417 0.214
62.4391 4.427 0.215
62.4595 4.719 0.222
62.4800 4.333 0.212
62.5005 4.104 0.207
62.5209 4.302 0.212
62.5414 3.979 0.204
62.5619 4.323 0.212
62.5823 4.260 0.211
62.6028 4.552 0.218
62.6232 4.365 0.213
62.6437 4.427 0.215
62.6642 4.188 0.209
62.6846 4.250 0.210
62.7051 4.302 0.212
62.7256 3.875 0.201
62.7460 4.448 0.215
62.7665 3.990 0.204
62.7870 4.635 0.220
62.8074 4.000 0.204
62.8279 4.167 0.208
62.8483 4.260 0.211
62.8688 4.448 0.215
62.8893 4.156 0.208
62.9097 4.469 0.216
62.9302 4.271 0.211
62.9507 4.125 0.207
62.9711 4.313 0.212
62.9916 4.094 0.207
63.0120 3.844 0.200
63.0325 4.094 0.207
63.0530 4.010 0.204
63.0734 4.240 0.210
63.0939 4.229 0.210
63.1144 3.792 0.199
63.1348 3.708 0.197
63.1553 4.479 0.216
63.1757 4.385 0.214
63.1962 4.250 0.210
63.2167 4.198 0.209
63.2371 4.448 0.215
63.2576 4.229 0.210
63.2781 4.229 0.210
63.2985 4.167 0.208
63.3190 4.500 0.217
63.3394 4.500 0.217
63.3599 4.063 0.206
63.3804 3.927 0.202
63.4008 4.313 0.212
63.4213 4.104 0.207
63.4418 4.688 0.221
63.4622 4.094 0.207
63.4827 4.469 0.216
63.5032 4.552 0.218
63.5236 4.396 0.214
63.5441 4.656 0.220
63.5645 4.531 0.217
63.5850 4.854 0.225
63.6055 4.594 0.219
63.6259 5.094 0.230
63.6464 4.521 0.217
63.6669 4.156 0.208
63.6873 4.760 0.223
63.7078 4.813 0.224
63.7282 4.635 0.220
63.7487 4.896 0.226
63.7692 4.844 0.225
63.7896 4.688 0.221
63.8101 4.333 0.212
63.8306 4.344 0.213
63.8510 4.750 0.222
63.8715 4.854 0.225
63.8919 4.531 0.217
63.9124 4.469 0.216
63.9329 5.000 0.228
63.9533 4.688 0.221
63.9738 4.781 0.223
63.9943 4.813 0.224
64.0147 4.656 0.220
64.0352 4.948 0.227
64.0556 5.250 0.234
64.0761 4.990 0.228
64.0966 4.833 0.224
64.1170 5.031 0.229
64.1375 4.781 0.223
64.1580 5.010 0.228
64.1784 5.010 0.228
64.1989 4.875 0.225
64.2193 4.875 0.225
64.2398 4.781 0.223
64.2603 5.188 0.232
64.2807 5.010 0.228
64.3012 5.271 0.234
64.3217 5.208 0.233
64.3421 5.000 0.228
64.3626 5.083 0.230
64.3831 4.417 0.214
64.4035 4.958 0.227
64.4240 5.167 0.232
64.4444 4.802 0.224
64.4649 4.906 0.226
64.4854 5.146 0.232
64.5058 5.396 0.237
64.5263 5.594 0.241
64.5468 6.010 0.250
64.5672 6.042 0.251
64.5877 6.219 0.255
64.6081 6.604 0.262
64.6286 7.438 0.278
64.6491 7.938 0.288
64.6695 8.021 0.289
64.6900 8.708 0.301
64.7105 7.677 0.283
64.7309 7.240 0.275
64.7514 6.906 0.268
64.7718 6.615 0.262
64.7923 6.438 0.259
64.8128 6.854 0.267
64.8332 5.917 0.248
64.8537 6.885 0.268
64.8742 6.417 0.259
64.8946 5.906 0.248
64.9151 6.063 0.251
64.9355 5.313 0.235
64.9560 5.229 0.233
64.9765 4.510 0.217
64.9969 4.719 0.222
65.0174 4.573 0.218
65.0379 4.719 0.222
65.0583 4.542 0.218
65.0788 4.563 0.218
65.0992 4.083 0.206
65.1197 4.313 0.212
65.1402 4.365 0.213
65.1606 4.365 0.213
65.1811 4.281 0.211
65.2016 4.260 0.211
65.2220 4.333 0.212
65.2425 4.156 0.208
65.2630 4.083 0.206
65.2834 4.271 0.211
65.3039 4.406 0.214
65.3243 4.344 0.213
65.3448 4.333 0.212
65.3653 4.281 0.211
65.3857 4.250 0.210
65.4062 4.573 0.218
65.4267 4.260 0.211
65.4471 4.292 0.211
65.4676 4.250 0.210
65.4880 4.396 0.214
65.5085 4.417 0.214
65.5290 5.000 0.228
65.5494 5.208 0.233
65.5699 5.344 0.236
65.5904 5.656 0.243
65.6108 5.479 0.239
65.6313 5.948 0.249
65.6517 5.479 0.239
65.6722 5.354 0.236
65.6927 4.792 0.223
65.7131 4.906 0.226
65.7336 5.010 0.228
65.7541 5.042 0.229
65.7745 5.250 0.234
65.7950 5.063 0.230
65.8154 5.031 0.229
65.8359 4.354 0.213
65.8564 4.271 0.211
65.8768 4.198 0.209
65.8973 3.802 0.199
65.9178 4.438 0.215
65.9382 4.115 0.207
65.9587 4.042 0.205
65.9791 3.760 0.198
65.9996 4.146 0.208
66.0201 3.698 0.196
66.0405 3.740 0.197
66.0610 3.969 0.203
66.0815 4.042 0.205
66.1019 3.771 0.198
66.1224 3.854 0.200
66.1429 4.104 0.207
66.1633 4.135 0.208
66.1838 4.021 0.205
66.2042 3.927 0.202
66.2247 3.625 0.194
66.2452 3.906 0.202
66.2656 4.052 0.205
66.2861 3.469 0.190
66.3066 3.781 0.198
66.3270 3.823 0.200
66.3475 4.031 0.205
66.3679 4.250 0.210
66.3884 3.625 0.194
66.4089 3.771 0.198
66.4293 4.208 0.209
66.4498 3.927 0.202
66.4703 3.646 0.195
66.4907 3.688 0.196
66.5112 4.000 0.204
66.5316 4.094 0.207
66.5521 4.250 0.210
66.5726 4.021 0.205
66.5930 4.010 0.204
66.6135 4.083 0.206
66.6340 3.750 0.198
66.6544 3.938 0.203
66.6749 3.760 0.198
66.6953 3.479 0.190
66.7158 4.115 0.207
66.7363 4.177 0.209
66.7567 4.292 0.211
66.7772 4.208 0.209
66.7977 4.229 0.210
66.8181 3.771 0.198
66.8386 4.104 0.207
66.8590 4.260 0.211
66.8795 3.990 0.204
66.9000 4.021 0.205
66.9204 4.333 0.212
66.9409 4.333 0.212
66.9614 4.125 0.207
66.9818 4.677 0.221
67.0023 4.615 0.219
67.0228 5.177 0.232
67.0432 4.563 0.218
67.0637 4.948 0.227
67.0841 4.990 0.228
67.1046 5.604 0.242
67.1251 5.656 0.243
67.1455 6.844 0.267
67.1660 6.688 0.264
67.1865 7.625 0.282
67.2069 7.740 0.284
67.2274 7.250 0.275
67.2478 7.000 0.270
67.2683 6.771 0.266
67.2888 6.594 0.262
67.3092 6.479 0.260
67.3297 6.385 0.258
67.3502 6.198 0.254
67.3706 6.021 0.250
67.3911 6.458 0.259
67.4115 5.948 0.249
67.4320 6.115 0.252
67.4525 5.302 0.235
67.4729 5.469 0.239
67.4934 5.104 0.231
67.5139 4.958 0.227
67.5343 4.510 0.217
67.5548 5.104 0.231
67.5752 4.927 0.227
67.5957 4.469 0.216
67.6162 3.969 0.203
67.6366 3.927 0.202
67.6571 4.333 0.212
67.6776 4.333 0.212
67.6980 4.375 0.213
67.7185 4.573 0.218
67.7389 4.438 0.215
67.7594 4.573 0.218
67.7799 4.667 0.220
67.8003 4.469 0.216
67.8208 4.302 0.212
67.8413 4.271 0.211
67.8617 4.188 0.209
67.8822 4.469 0.216
67.9027 4.552 0.218
67.9231 4.250 0.210
67.9436 4.052 0.205
67.9640 4.135 0.208
67.9845 4.740 0.222
68.0050 4.281 0.211
68.0254 4.406 0.214
68.0459 4.510 0.217
68.0664 4.740 0.222
68.0868 4.417 0.214
68.1073 4.375 0.213
68.1277 4.177 0.209
68.1482 4.198 0.209
68.1687 4.469 0.216
68.1891 4.010 0.204
68.2096 4.396 0.214
68.2301 4.719 0.222
68.2505 4.302 0.212
68.2710 5.177 0.232
68.2914 4.948 0.227
68.3119 4.823 0.224
68.3324 5.406 0.237
68.3528 5.313 0.235
68.3733 5.552 0.240
68.3938 5.500 0.239
68.4142 5.708 0.244
68.4347 5.219 0.233
68.4551 4.635 0.220
68.4756 5.042 0.229
68.4961 4.563 0.218
68.5165 4.333 0.212
68.5370 4.656 0.220
68.5575 4.313 0.212
68.5779 4.458 0.216
68.5984 4.521 0.217
68.6189 4.365 0.213
68.6393 4.313 0.212
68.6598 4.417 0.214
68.6802 3.865 0.201
68.7007 4.021 0.205
68.7212 4.000 0.204
68.7416 3.604 0.194
68.7621 3.823 0.200
68.7826 3.760 0.198
68.8030 3.792 0.199
68.8235 4.115 0.207
68.8439 3.938 0.203
68.8644 3.708 0.197
68.8849 4.094 0.207
68.9053 4.135 0.208
68.9258 3.938 0.203
68.9463 4.167 0.208
68.9667 4.198 0.209
68.9872 4.365 0.213
69.0076 4.115 0.207
69.0281 4.771 0.223
69.0486 4.750 0.222
69.0690 4.979 0.228
69.0895 5.167 0.232
69.1100 4.688 0.221
69.1304 4.854 0.225
69.1509 4.302 0.212
69.1713 4.510 0.217
69.1918 4.604 0.219
69.2123 4.542 0.218
69.2327 5.063 0.230
69.2532 4.948 0.227
69.2737 5.448 0.238
69.2941 5.260 0.234
69.3146 4.656 0.220
69.3350 4.792 0.223
69.3555 4.604 0.219
69.3760 4.760 0.223
69.3964 4.854 0.225
69.4169 4.240 0.210
69.4374 4.448 0.215
69.4578 4.375 0.213
69.4783 4.500 0.217
69.4988 4.167 0.208
69.5192 3.948 0.203
69.5397 4.104 0.207
69.5601 3.583 0.193
69.5806 3.906 0.202
69.6011 3.781 0.198
69.6215 3.688 0.196
69.6420 3.646 0.195
69.6625 3.531 0.192
69.6829 3.292 0.185
69.7034 3.333 0.186
69.7238 3.438 0.189
69.7443 3.531 0.192
69.7648 3.583 0.193
69.7852 3.823 0.200
69.8057 3.906 0.202
69.8262 3.958 0.203
69.8466 3.292 0.185
69.8671 3.292 0.185
69.8875 3.771 0.198
69.9080 3.542 0.192
69.9285 3.875 0.201
69.9489 3.802 0.199
69.9694 3.469 0.190
69.9899 3.979 0.204
70.0103 3.313 0.186
70.0308 3.667 0.195
70.0512 3.500 0.191
70.0717 3.792 0.199
70.0922 3.521 0.192
70.1126 3.917 0.202
70.1331 3.979 0.204
70.1536 3.500 0.191
70.1740 3.906 0.202
70.1945 3.604 0.194
70.2149 3.635 0.195
70.2354 3.438 0.189
70.2559 3.615 0.194
70.2763 4.000 0.204
70.2968 3.469 0.190
70.3173 3.667 0.195
70.3377 3.781 0.198
70.3582 3.354 0.187
70.3787 4.125 0.207
70.3991 3.948 0.203
70.4196 3.458 0.190
70.4400 3.646 0.195
70.4605 3.844 0.200
70.4810 3.698 0.196
70.5014 3.677 0.196
70.5219 3.625 0.194
70.5424 3.490 0.191
70.5628 3.490 0.191
70.5833 3.385 0.188
70.6037 3.396 0.188
70.6242 3.458 0.190
70.6447 3.635 0.195
70.6651 3.146 0.181
70.6856 3.417 0.189
70.7061 3.677 0.196
70.7265 3.667 0.195
70.7470 3.781 0.198
70.7674 3.688 0.196
70.7879 3.281 0.185
70.8084 3.698 0.196
70.8288 3.542 0.192
70.8493 3.698 0.196
70.8698 3.792 0.199
70.8902 3.375 0.188
70.9107 3.656 0.195
70.9311 3.781 0.198
70.9516 3.552 0.192
70.9721 3.552 0.192
70.9925 3.667 0.195
71.0130 3.688 0.196
71.0335 3.229 0.183
71.0539 3.750 0.198
71.0744 3.521 0.192
71.0948 3.396 0.188
71.1153 3.656 0.195
71.1358 3.635 0.195
71.1562 3.740 0.197
71.1767 3.406 0.188
71.1972 3.708 0.197
71.2176 3.917 0.202
71.2381 3.615 0.194
71.2586 3.781 0.198
71.2790 3.604 0.194
71.2995 3.510 0.191
71.3199 3.479 0.190
71.3404 3.490 0.191
71.3609 3.635 0.195
71.3813 3.156 0.181
71.4018 3.531 0.192
71.4223 3.115 0.180
71.4427 3.406 0.188
71.4632 3.500 0.191
71.4836 3.156 0.181
71.5041 3.677 0.196
71.5246 3.385 0.188
71.5450 3.490 0.191
71.5655 3.500 0.191
71.5860 3.583 0.193
71.6064 3.542 0.192
71.6269 3.615 0.194
71.6473 3.198 0.183
71.6678 2.969 0.176
71.6883 3.229 0.183
71.7087 3.458 0.190
71.7292 3.521 0.192
71.7497 3.156 0.181
71.7701 3.354 0.187
71.7906 3.094 0.180
71.8110 3.188 0.182
71.8315 3.073 0.179
71.8520 3.052 0.178
71.8724 3.458 0.190
71.8929 3.292 0.185
71.9134 3.260 0.184
71.9338 3.656 0.195
71.9543 3.469 0.190
71.9747 3.323 0.186
71.9952 3.406 0.188
72.0157 3.292 0.185
72.0361 3.625 0.194
72.0566 3.521 0.192
72.0771 3.531 0.192
72.0975 3.427 0.189
72.1180 3.646 0.195
72.1385 3.438 0.189
72.1589 3.365 0.187
72.1794 3.656 0.195
72.1998 3.292 0.185
72.2203 3.167 0.182
72.2408 3.198 0.183
72.2612 3.625 0.194
72.2817 3.385 0.188
72.3022 3.385 0.188
72.3226 3.250 0.184
72.3431 3.073 0.179
72.3635 3.438 0.189
72.3840 3.479 0.190
72.4045 3.573 0.193
72.4249 3.552 0.192
72.4454 3.490 0.191
72.4659 3.417 0.189
72.4863 3.469 0.190
72.5068 3.354 0.187
72.5272 3.125 0.180
72.5477 3.333 0.186
72.5682 3.396 0.188
72.5886 3.729 0.197
72.6091 3.740 0.197
72.6296 3.167 0.182
72.6500 3.844 0.200
72.6705 3.563 0.193
72.6909 3.427 0.189
72.7114 3.281 0.185
72.7319 3.385 0.188
72.7523 3.448 0.190
72.7728 3.573 0.193
72.7933 3.719 0.197
72.8137 3.594 0.193
72.8342 3.667 0.195
72.8547 4.031 0.205
72.8751 4.292 0.211
72.8956 3.750 0.198
72.9160 3.792 0.199
72.9365 3.854 0.200
72.9570 3.438 0.189
72.9774 3.625 0.194
72.9979 3.615 0.194
73.0184 3.531 0.192
73.0388 3.583 0.193
73.0593 3.760 0.198
73.0797 3.469 0.190
73.1002 3.594 0.193
73.1207 3.521 0.192
73.1411 3.323 0.186
73.1616 3.344 0.187
73.1821 3.656 0.195
73.2025 3.240 0.184
73.2230 3.083 0.179
73.2434 3.177 0.182
73.2639 2.979 0.176
73.2844 3.250 0.184
73.3048 3.208 0.183
73.3253 3.167 0.182
73.3458 3.188 0.182
73.3662 3.167 0.182
73.3867 3.260 0.184
73.4071 3.563 0.193
73.4276 3.375 0.188
73.4481 3.135 0.181
73.4685 3.000 0.177
73.4890 3.458 0.190
73.5095 3.021 0.177
73.5299 3.396 0.188
73.5504 3.021 0.177
73.5708 3.417 0.189
73.5913 3.042 0.178
73.6118 3.333 0.186
73.6322 3.396 0.188
73.6527 3.396 0.188
73.6732 3.125 0.180
73.6936 3.344 0.187
73.7141 3.229 0.183
73.7346 2.917 0.174
73.7550 3.229 0.183
73.7755 3.406 0.188
73.7959 3.260 0.184
73.8164 3.156 0.181
73.8369 3.031 0.178
73.8573 3.188 0.182
73.8778 3.177 0.182
73.8983 3.219 0.183
73.9187 3.260 0.184
73.9392 3.458 0.190
73.9596 3.031 0.178
73.9801 3.313 0.186
74.0006 3.521 0.192
74.0210 3.646 0.195
74.0415 3.354 0.187
74.0620 3.313 0.186
74.0824 3.583 0.193
74.1029 3.594 0.193
74.1233 3.479 0.190
74.1438 3.375 0.188
74.1643 3.792 0.199
74.1847 3.292 0.185
74.2052 3.521 0.192
74.2257 3.531 0.192
74.2461 3.365 0.187
74.2666 3.323 0.186
74.2870 3.115 0.180
74.3075 3.302 0.185
74.3280 3.479 0.190
74.3484 3.615 0.194
74.3689 3.240 0.184
74.3894 3.219 0.183
74.4098 3.344 0.187
74.4303 2.771 0.170
74.4507 3.156 0.181
74.4712 3.229 0.183
74.4917 3.208 0.183
74.5121 3.198 0.183
74.5326 3.063 0.179
74.5531 3.219 0.183
74.5735 3.333 0.186
74.5940 3.490 0.191
74.6145 3.167 0.182
74.6349 3.219 0.183
74.6554 3.229 0.183
74.6758 3.240 0.184
74.6963 2.979 0.176
74.7168 3.240 0.184
74.7372 3.135 0.181
74.7577 3.167 0.182
74.7782 3.354 0.187
74.7986 3.500 0.191
74.8191 2.927 0.175
74.8395 3.042 0.178
74.8600 3.094 0.180
74.8805 3.281 0.185
74.9009 3.354 0.187
74.9214 3.469 0.190
74.9419 3.177 0.182
74.9623 3.042 0.178
74.9828 3.073 0.179
75.0032 2.958 0.176
75.0237 3.302 0.185
75.0442 3.156 0.181
75.0646 3.167 0.182
75.0851 3.063 0.179
75.1056 3.250 0.184
75.1260 3.229 0.183
75.1465 3.198 0.183
75.1669 3.417 0.189
75.1874 3.240 0.184
75.2079 3.188 0.182
75.2283 3.438 0.189
75.2488 3.219 0.183
75.2693 3.396 0.188
75.2897 3.052 0.178
75.3102 3.063 0.179
75.3306 3.271 0.185
75.3511 3.281 0.185
75.3716 3.500 0.191
75.3920 3.042 0.178
75.4125 3.042 0.178
75.4330 3.260 0.184
75.4534 3.344 0.187
75.4739 3.604 0.194
75.4944 3.031 0.178
75.5148 3.208 0.183
75.5353 3.104 0.180
75.5557 3.250 0.184
75.5762 3.490 0.191
75.5967 3.219 0.183
75.6171 3.865 0.201
75.6376 3.656 0.195
75.6581 3.677 0.196
75.6785 3.490 0.191
75.6990 3.698 0.196
75.7194 3.792 0.199
75.7399 3.542 0.192
75.7604 3.531 0.192
75.7808 3.990 0.204
75.8013 3.896 0.201
75.8218 4.313 0.212
75.8422 4.104 0.207
75.8627 4.260 0.211
75.8831 4.365 0.213
75.9036 4.813 0.224
75.9241 4.188 0.209
75.9445 4.010 0.204
75.9650 4.281 0.211
75.9855 4.177 0.209
76.0059 3.948 0.203
76.0264 4.479 0.216
76.0468 3.990 0.204
76.0673 4.177 0.209
76.0878 3.885 0.201
76.1082 4.010 0.204
76.1287 3.771 0.198
76.1492 3.750 0.198
76.1696 3.771 0.198
76.1901 3.531 0.192
76.2105 3.344 0.187
76.2310 3.542 0.192
76.2515 3.635 0.195
76.2719 3.292 0.185
76.2924 3.396 0.188
76.3129 3.427 0.189
76.3333 3.083 0.179
76.3538 3.063 0.179
76.3743 2.990 0.176
76.3947 3.375 0.188
76.4152 3.365 0.187
76.4356 3.365 0.187
76.4561 3.354 0.187
76.4766 2.958 0.176
76.4970 3.375 0.188
76.5175 3.010 0.177
76.5380 3.313 0.186
76.5584 3.385 0.188
76.5789 3.281 0.185
76.5993 3.448 0.190
76.6198 3.635 0.195
76.6403 2.938 0.175
76.6607 3.146 0.181
76.6812 3.198 0.183
76.7017 2.865 0.173
76.7221 3.000 0.177
76.7426 3.052 0.178
76.7630 3.375 0.188
76.7835 3.177 0.182
76.8040 3.292 0.185
76.8244 3.198 0.183
76.8449 3.313 0.186
76.8654 3.073 0.179
76.8858 3.000 0.177
76.9063 3.115 0.180
76.9267 3.208 0.183
76.9472 3.177 0.182
76.9677 3.125 0.180
76.9881 3.115 0.180
77.0086 3.115 0.180
77.0291 3.198 0.183
77.0495 3.323 0.186
77.0700 3.365 0.187
77.0905 3.146 0.181
77.1109 3.177 0.182
77.1314 3.427 0.189
77.1518 2.885 0.173
77.1723 3.365 0.187
77.1928 2.979 0.176
77.2132 3.219 0.183
77.2337 3.302 0.185
77.2542 2.938 0.175
77.2746 3.250 0.184
77.2951 3.323 0.186
77.3155 3.354 0.187
77.3360 2.917 0.174
77.3565 3.313 0.186
77.3769 3.344 0.187
77.3974 3.260 0.184
77.4179 3.292 0.185
77.4383 3.500 0.191
77.4588 3.917 0.202
77.4792 3.667 0.195
77.4997 3.604 0.194
77.5202 3.740 0.197
77.5406 3.573 0.193
77.5611 3.615 0.194
77.5816 3.458 0.190
77.6020 3.792 0.199
77.6225 3.719 0.197
77.6429 3.542 0.192
77.6634 3.823 0.200
77.6839 3.813 0.199
77.7043 3.906 0.202
77.7248 3.583 0.193
77.7453 3.615 0.194
77.7657 3.563 0.193
77.7862 3.958 0.203
77.8066 4.135 0.208
77.8271 4.146 0.208
77.8476 3.646 0.195
77.8680 4.104 0.207
77.8885 4.083 0.206
77.9090 3.885 0.201
77.9294 3.875 0.201
77.9499 3.344 0.187
77.9704 3.719 0.197
77.9908 3.375 0.188
78.0113 3.365 0.187
78.0317 3.333 0.186
78.0522 3.281 0.185
78.0727 3.354 0.187
78.0931 3.417 0.189
78.1136 3.115 0.180
78.1341 3.313 0.186
78.1545 3.073 0.179
78.1750 3.198 0.183
78.1954 3.740 0.197
78.2159 3.427 0.189
78.2364 3.177 0.182
78.2568 3.427 0.189
78.2773 3.823 0.200
78.2978 3.177 0.182
78.3182 3.448 0.190
78.3387 3.729 0.197
78.3591 3.365 0.187
78.3796 3.677 0.196
78.4001 3.094 0.180
78.4205 3.292 0.185
78.4410 3.573 0.193
78.4615 3.365 0.187
78.4819 3.708 0.197
78.5024 3.500 0.191
78.5228 3.385 0.188
78.5433 4.021 0.205
78.5638 3.260 0.184
78.5842 3.573 0.193
78.6047 3.156 0.181
78.6252 3.740 0.197
78.6456 3.563 0.193
78.6661 3.531 0.192
78.6865 3.833 0.200
78.7070 3.583 0.193
78.7275 3.542 0.192
78.7479 3.438 0.189
78.7684 3.260 0.184
78.7889 3.604 0.194
78.8093 3.375 0.188
78.8298 3.271 0.185
78.8503 3.396 0.188
78.8707 3.271 0.185
78.8912 3.406 0.188
78.9116 3.510 0.191
78.9321 3.292 0.185
78.9526 3.302 0.185
78.9730 3.198 0.183
78.9935 3.510 0.191
79.0140 3.427 0.189
79.0344 3.427 0.189
79.0549 3.490 0.191
79.0753 2.948 0.175
79.0958 3.760 0.198
79.1163 3.448 0.190
79.1367 3.646 0.195
79.1572 3.635 0.195
79.1777 3.458 0.190
79.1981 3.260 0.184
79.2186 3.125 0.180
79.2390 3.260 0.184
79.2595 3.365 0.187
79.2800 3.375 0.188
79.3004 3.177 0.182
79.3209 3.219 0.183
79.3414 3.583 0.193
79.3618 3.385 0.188
79.3823 3.438 0.189
79.4027 3.313 0.186
79.4232 3.573 0.193
79.4437 3.667 0.195
79.4641 3.510 0.191
79.4846 3.333 0.186
79.5051 3.677 0.196
79.5255 3.906 0.202
79.5460 3.521 0.192
79.5664 3.771 0.198
79.5869 3.719 0.197
79.6074 3.615 0.194
79.6278 3.625 0.194
79.6483 3.615 0.194
79.6688 3.583 0.193
79.6892 3.698 0.196
79.7097 3.292 0.185
79.7302 3.479 0.190
79.7506 3.615 0.194
79.7711 3.260 0.184
79.7915 3.438 0.189
79.8120 3.469 0.190
79.8325 3.625 0.194
79.8529 3.646 0.195
79.8734 3.656 0.195
79.8939 3.188 0.182
79.9143 3.010 0.177
79.9348 3.354 0.187
79.9552 3.219 0.183
79.9757 3.375 0.188
79.9962 3.365 0.187
