'Id: "" Comment: "" Operator: "Lab Manager" Anode: "Cu" Scantype: "Locked Coupled" TimePerStep: "96" X: "0" Y: "0" Z: "0" 
5.0000 23.771 0.498
5.0205 23.229 0.492
5.0409 23.146 0.491
5.0614 23.594 0.496
5.0819 23.010 0.490
5.1023 22.406 0.483
5.1228 22.990 0.489
5.1432 23.667 0.497
5.1637 23.781 0.498
5.1842 22.969 0.489
5.2046 23.323 0.493
5.2251 22.896 0.488
5.2456 22.521 0.484
5.2660 23.406 0.494
5.2865 23.031 0.490
5.3069 22.927 0.489
5.3274 23.917 0.499
5.3479 22.750 0.487
5.3683 23.000 0.489
5.3888 22.344 0.482
5.4093 22.375 0.483
5.4297 22.073 0.480
5.4502 22.260 0.482
5.4706 21.792 0.476
5.4911 22.781 0.487
5.5116 21.677 0.475
5.5320 21.656 0.475
5.5525 22.177 0.481
5.5730 21.490 0.473
5.5934 22.104 0.480
5.6139 21.271 0.471
5.6343 22.490 0.484
5.6548 21.865 0.477
5.6753 20.854 0.466
5.6957 22.031 0.479
5.7162 21.573 0.474
5.7367 21.167 0.470
5.7571 21.583 0.474
5.7776 21.010 0.468
5.7980 21.302 0.471
5.8185 21.958 0.478
5.8390 21.698 0.475
5.8594 21.260 0.471
5.8799 20.740 0.465
5.9004 20.833 0.466
5.9208 21.104 0.469
5.9413 22.021 0.479
5.9618 20.188 0.459
5.9822 20.542 0.463
6.0027 20.646 0.464
6.0231 21.385 0.472
6.0436 21.698 0.475
6.0641 21.219 0.470
6.0845 21.063 0.468
6.1050 21.021 0.468
6.1255 20.438 0.461
6.1459 20.906 0.467
6.1664 20.823 0.466
6.1868 21.177 0.470
6.2073 20.635 0.464
6.2278 21.135 0.469
6.2482 21.000 0.468
6.2687 19.969 0.456
6.2892 20.542 0.463
6.3096 20.927 0.467
6.3301 20.677 0.464
6.3505 21.000 0.468
6.3710 20.510 0.462
6.3915 20.729 0.465
6.4119 21.104 0.469
6.4324 20.802 0.465
6.4529 21.354 0.472
6.4733 21.167 0.470
6.4938 21.823 0.477
6.5142 20.146 0.458
6.5347 21.427 0.472
6.5552 21.740 0.476
6.5756 21.875 0.477
6.5961 20.177 0.458
6.6166 20.604 0.463
6.6370 21.365 0.472
6.6575 21.896 0.478
6.6779 20.813 0.466
6.6984 21.802 0.477
6.7189 20.948 0.467
6.7393 21.292 0.471
6.7598 21.313 0.471
6.7803 21.313 0.471
6.8007 20.958 0.467
6.8212 21.479 0.473
6.8417 21.354 0.472
6.8621 21.615 0.475
6.8826 21.969 0.478
6.9030 22.115 0.480
6.9235 22.281 0.482
6.9440 21.823 0.477
6.9644 23.323 0.493
6.9849 23.271 0.492
7.0054 24.479 0.505
7.0258 24.958 0.510
7.0463 23.771 0.498
7.0667 24.750 0.508
7.0872 23.979 0.500
7.1077 23.771 0.498
7.1281 23.490 0.495
7.1486 23.677 0.497
7.1691 24.063 0.501
7.1895 23.063 0.490
7.2100 22.031 0.479
7.2304 22.635 0.486
7.2509 21.896 0.478
7.2714 21.125 0.469
7.2918 21.688 0.475
7.3123 21.479 0.473
7.3328 21.281 0.471
7.3532 21.625 0.475
7.3737 21.354 0.472
7.3941 21.135 0.469
7.4146 22.531 0.484
7.4351 22.000 0.479
7.4555 21.354 0.472
7.4760 21.104 0.469
7.4965 22.125 0.480
7.5169 20.302 0.460
7.5374 21.406 0.472
7.5579 21.000 0.468
7.5783 21.490 0.473
7.5988 21.063 0.468
7.6192 21.271 0.471
7.6397 20.917 0.467
7.6602 21.354 0.472
7.6806 20.625 0.464
7.7011 21.698 0.475
7.7216 21.427 0.472
7.7420 21.646 0.475
7.7625 21.844 0.477
7.7829 20.906 0.467
7.8034 20.906 0.467
7.8239 21.688 0.475
7.8443 21.021 0.468
7.8648 21.510 0.473
7.8853 21.156 0.469
7.9057 21.073 0.469
7.9262 20.344 0.460
7.9466 20.594 0.463
7.9671 21.000 0.468
7.9876 20.802 0.465
8.0080 21.781 0.476
8.0285 20.333 0.460
8.0490 21.583 0.474
8.0694 21.510 0.473
8.0899 21.729 0.476
8.1103 21.927 0.478
8.1308 22.083 0.480
8.1513 21.490 0.473
8.1717 21.875 0.477
8.1922 22.500 0.484
8.2127 21.260 0.471
8.2331 23.000 0.489
8.2536 22.750 0.487
8.2740 22.646 0.486
8.2945 21.552 0.474
8.3150 21.594 0.474
8.3354 21.250 0.470
8.3559 21.031 0.468
8.3764 21.656 0.475
8.3968 21.604 0.474
8.4173 21.823 0.477
8.4378 21.156 0.469
8.4582 21.750 0.476
8.4787 21.677 0.475
8.4991 21.406 0.472
8.5196 21.385 0.472
8.5401 22.167 0.481
8.5605 21.531 0.474
8.5810 22.115 0.480
8.6015 21.531 0.474
8.6219 21.135 0.469
8.6424 21.594 0.474
8.6628 21.958 0.478
8.6833 21.594 0.474
8.7038 21.469 0.473
8.7242 21.177 0.470
8.7447 22.531 0.484
8.7652 23.042 0.490
8.7856 23.625 0.496
8.8061 23.510 0.495
8.8265 23.219 0.492
8.8470 24.958 0.510
8.8675 25.563 0.516
8.8879 26.750 0.528
8.9084 26.885 0.529
8.9289 29.698 0.556
8.9493 31.365 0.572
8.9698 35.646 0.609
8.9902 42.115 0.662
9.0107 55.042 0.757
9.0312 72.104 0.867
9.0516 97.563 1.008
9.0721 114.073 1.090
9.0926 87.615 0.955
9.1130 54.896 0.756
9.1335 38.542 0.634
9.1539 34.729 0.601
9.1744 34.875 0.603
9.1949 37.281 0.623
9.2153 40.906 0.653
9.2358 44.219 0.679
9.2563 48.385 0.710
9.2767 48.042 0.707
9.2972 48.042 0.707
9.3177 46.135 0.693
9.3381 44.250 0.679
9.3586 42.448 0.665
9.3790 42.073 0.662
9.3995 39.823 0.644
9.4200 39.406 0.641
9.4404 39.323 0.640
9.4609 38.396 0.632
9.4814 38.958 0.637
9.5018 39.219 0.639
9.5223 41.531 0.658
9.5427 41.573 0.658
9.5632 44.010 0.677
9.5837 45.271 0.687
9.6041 48.479 0.711
9.6246 48.844 0.713
9.6451 52.896 0.742
9.6655 55.396 0.760
9.6860 60.104 0.791
9.7064 66.052 0.829
9.7269 75.563 0.887
9.7474 88.385 0.960
9.7678 109.802 1.069
9.7883 145.510 1.231
9.8088 197.385 1.434
9.8292 275.385 1.694
9.8497 379.344 1.988
9.8701 419.521 2.090
9.8906 314.323 1.809
9.9111 179.333 1.367
9.9315 100.635 1.024
9.9520 69.010 0.848
9.9725 53.083 0.744
9.9929 47.271 0.702
10.0134 41.635 0.659
10.0338 39.635 0.643
10.0543 36.427 0.616
10.0748 33.979 0.595
10.0952 33.271 0.589
10.1157 30.323 0.562
10.1362 27.208 0.532
10.1566 26.719 0.528
10.1771 25.896 0.519
10.1976 24.573 0.506
10.2180 23.760 0.497
10.2385 23.865 0.499
10.2589 23.344 0.493
10.2794 22.656 0.486
10.2999 23.333 0.493
10.3203 23.417 0.494
10.3408 21.302 0.471
10.3613 22.156 0.480
10.3817 21.365 0.472
10.4022 20.771 0.465
10.4226 20.208 0.459
10.4431 20.104 0.458
10.4636 19.917 0.455
10.4840 19.208 0.447
10.5045 19.719 0.453
10.5250 20.042 0.457
10.5454 20.406 0.461
10.5659 19.313 0.449
10.5863 18.979 0.445
10.6068 19.604 0.452
10.6273 19.271 0.448
10.6477 19.417 0.450
10.6682 18.802 0.443
10.6887 18.729 0.442
10.7091 18.688 0.441
10.7296 19.260 0.448
10.7500 18.135 0.435
10.7705 17.948 0.432
10.7910 18.979 0.445
10.8114 17.896 0.432
10.8319 18.698 0.441
10.8524 17.000 0.421
10.8728 17.740 0.430
10.8933 18.490 0.439
10.9137 17.531 0.427
10.9342 17.813 0.431
10.9547 18.135 0.435
10.9751 17.281 0.424
10.9956 17.479 0.427
11.0161 16.698 0.417
11.0365 17.427 0.426
11.0570 17.458 0.426
11.0775 16.250 0.411
11.0979 16.292 0.412
11.1184 16.396 0.413
11.1388 16.396 0.413
11.1593 16.792 0.418
11.1798 16.802 0.418
11.2002 16.531 0.415
11.2207 16.073 0.409
11.2412 16.521 0.415
11.2616 15.906 0.407
11.2821 15.979 0.408
11.3025 16.729 0.417
11.3230 15.479 0.402
11.3435 16.365 0.413
11.3639 15.792 0.406
11.3844 15.542 0.402
11.4049 15.354 0.400
11.4253 16.115 0.410
11.4458 15.052 0.396
11.4662 15.865 0.407
11.4867 16.604 0.416
11.5072 15.010 0.395
11.5276 15.302 0.399
11.5481 15.740 0.405
11.5686 15.719 0.405
11.5890 16.219 0.411
11.6095 15.125 0.397
11.6299 15.344 0.400
11.6504 15.667 0.404
11.6709 15.333 0.400
11.6913 14.854 0.393
11.7118 14.552 0.389
11.7323 13.906 0.381
11.7527 14.781 0.392
11.7732 14.469 0.388
11.7937 15.365 0.400
11.8141 15.083 0.396
11.8346 15.010 0.395
11.8550 14.844 0.393
11.8755 14.490 0.389
11.8960 15.031 0.396
11.9164 14.427 0.388
11.9369 14.625 0.390
11.9574 14.771 0.392
11.9778 13.906 0.381
11.9983 13.698 0.378
12.0187 14.344 0.387
12.0392 14.281 0.386
12.0597 14.688 0.391
12.0801 14.333 0.386
12.1006 13.427 0.374
12.1211 13.865 0.380
12.1415 14.240 0.385
12.1620 13.521 0.375
12.1824 14.313 0.386
12.2029 13.688 0.378
12.2234 14.104 0.383
12.2438 13.844 0.380
12.2643 13.917 0.381
12.2848 14.021 0.382
12.3052 13.802 0.379
12.3257 13.469 0.375
12.3461 13.896 0.380
12.3666 13.156 0.370
12.3871 13.104 0.369
12.4075 13.083 0.369
12.4280 13.208 0.371
12.4485 13.333 0.373
12.4689 13.802 0.379
12.4894 13.448 0.374
12.5098 13.156 0.370
12.5303 13.042 0.369
12.5508 13.510 0.375
12.5712 13.115 0.370
12.5917 13.135 0.370
12.6122 12.417 0.360
12.6326 13.104 0.369
12.6531 13.375 0.373
12.6736 13.104 0.369
12.6940 12.531 0.361
12.7145 12.531 0.361
12.7349 13.146 0.370
12.7554 13.177 0.370
12.7759 12.823 0.365
12.7963 12.542 0.361
12.8168 11.927 0.352
12.8373 12.573 0.362
12.8577 12.917 0.367
12.8782 12.677 0.363
12.8986 12.698 0.364
12.9191 12.125 0.355
12.9396 12.406 0.359
12.9600 12.229 0.357
12.9805 12.583 0.362
13.0010 12.198 0.356
13.0214 11.844 0.351
13.0419 12.635 0.363
13.0623 11.729 0.350
13.0828 11.865 0.352
13.1033 12.229 0.357
13.1237 12.375 0.359
13.1442 12.708 0.364
13.1647 12.052 0.354
13.1851 12.365 0.359
13.2056 12.052 0.354
13.2260 11.729 0.350
13.2465 11.875 0.352
13.2670 11.354 0.344
13.2874 11.573 0.347
13.3079 11.094 0.340
13.3284 11.125 0.340
13.3488 12.281 0.358
13.3693 12.323 0.358
13.3897 12.406 0.359
13.4102 11.917 0.352
13.4307 11.896 0.352
13.4511 11.833 0.351
13.4716 12.063 0.354
13.4921 11.906 0.352
13.5125 11.688 0.349
13.5330 11.469 0.346
13.5535 11.406 0.345
13.5739 11.292 0.343
13.5944 12.302 0.358
13.6148 11.844 0.351
13.6353 11.771 0.350
13.6558 11.250 0.342
13.6762 11.563 0.347
13.6967 11.813 0.351
13.7172 11.365 0.344
13.7376 11.823 0.351
13.7581 11.583 0.347
13.7785 11.438 0.345
13.7990 11.646 0.348
13.8195 11.375 0.344
13.8399 11.510 0.346
13.8604 11.385 0.344
13.8809 11.271 0.343
13.9013 11.990 0.353
13.9218 11.240 0.342
13.9422 11.792 0.350
13.9627 11.031 0.339
13.9832 11.813 0.351
14.0036 11.885 0.352
14.0241 11.667 0.349
14.0446 11.885 0.352
14.0650 11.813 0.351
14.0855 12.094 0.355
14.1059 12.302 0.358
14.1264 12.115 0.355
14.1469 11.750 0.350
14.1673 12.385 0.359
14.1878 11.490 0.346
14.2083 11.719 0.349
14.2287 11.594 0.348
14.2492 12.302 0.358
14.2696 11.115 0.340
14.2901 11.177 0.341
14.3106 11.677 0.349
14.3310 11.177 0.341
14.3515 10.854 0.336
14.3720 11.135 0.341
14.3924 11.313 0.343
14.4129 11.073 0.340
14.4334 11.208 0.342
14.4538 11.531 0.347
14.4743 11.188 0.341
14.4947 10.552 0.332
14.5152 11.448 0.345
14.5357 11.135 0.341
14.5561 10.802 0.335
14.5766 11.052 0.339
14.5971 10.438 0.330
14.6175 11.063 0.339
14.6380 10.313 0.328
14.6584 10.208 0.326
14.6789 10.615 0.333
14.6994 11.021 0.339
14.7198 10.802 0.335
14.7403 10.823 0.336
14.7608 11.146 0.341
14.7812 10.854 0.336
14.8017 10.938 0.338
14.8221 10.448 0.330
14.8426 10.688 0.334
14.8631 10.260 0.327
14.8835 10.917 0.337
14.9040 10.573 0.332
14.9245 11.344 0.344
14.9449 11.333 0.344
14.9654 10.885 0.337
14.9858 10.177 0.326
15.0063 10.375 0.329
15.0268 10.229 0.326
15.0472 10.365 0.329
15.0677 10.615 0.333
15.0882 10.198 0.326
15.1086 10.688 0.334
15.1291 11.250 0.342
15.1495 10.833 0.336
15.1700 10.354 0.328
15.1905 10.802 0.335
15.2109 10.396 0.329
15.2314 10.750 0.335
15.2519 10.469 0.330
15.2723 11.167 0.341
15.2928 11.188 0.341
15.3133 11.042 0.339
15.3337 12.344 0.359
15.3542 12.073 0.355
15.3746 11.240 0.342
15.3951 11.271 0.343
15.4156 10.792 0.335
15.4360 10.698 0.334
15.4565 10.906 0.337
15.4770 11.781 0.350
15.4974 10.823 0.336
15.5179 11.188 0.341
15.5383 11.167 0.341
15.5588 11.177 0.341
15.5793 10.885 0.337
15.5997 11.375 0.344
15.6202 11.896 0.352
15.6407 11.948 0.353
15.6611 14.240 0.385
15.6816 17.688 0.429
15.7020 23.427 0.494
15.7225 34.354 0.598
15.7430 44.240 0.679
15.7634 39.292 0.640
15.7839 30.042 0.559
15.8044 20.917 0.467
15.8248 13.979 0.382
15.8453 12.177 0.356
15.8657 11.333 0.344
15.8862 11.396 0.345
15.9067 10.844 0.336
15.9271 11.271 0.343
15.9476 10.604 0.332
15.9681 10.969 0.338
15.9885 11.125 0.340
16.0090 10.240 0.327
16.0295 10.260 0.327
16.0499 10.323 0.328
16.0704 9.938 0.322
16.0908 10.823 0.336
16.1113 10.563 0.332
16.1318 10.406 0.329
16.1522 10.385 0.329
16.1727 10.125 0.325
16.1932 10.135 0.325
16.2136 10.802 0.335
16.2341 10.365 0.329
16.2545 10.177 0.326
16.2750 10.313 0.328
16.2955 9.969 0.322
16.3159 10.740 0.334
16.3364 10.688 0.334
16.3569 10.333 0.328
16.3773 10.406 0.329
16.3978 10.021 0.323
16.4182 9.958 0.322
16.4387 10.177 0.326
16.4592 10.698 0.334
16.4796 10.365 0.329
16.5001 10.458 0.330
16.5206 10.583 0.332
16.5410 10.396 0.329
16.5615 10.667 0.333
16.5819 10.354 0.328
16.6024 10.573 0.332
16.6229 10.333 0.328
16.6433 10.292 0.327
16.6638 10.333 0.328
16.6843 10.667 0.333
16.7047 10.625 0.333
16.7252 10.406 0.329
16.7456 11.167 0.341
16.7661 10.188 0.326
16.7866 10.438 0.330
16.8070 10.104 0.324
16.8275 10.146 0.325
16.8480 10.281 0.327
16.8684 10.417 0.329
16.8889 10.729 0.334
16.9094 11.021 0.339
16.9298 10.208 0.326
16.9503 10.719 0.334
16.9707 10.594 0.332
16.9912 10.365 0.329
17.0117 10.167 0.325
17.0321 10.802 0.335
17.0526 10.823 0.336
17.0731 10.865 0.336
17.0935 10.917 0.337
17.1140 11.083 0.340
17.1344 10.948 0.338
17.1549 11.240 0.342
17.1754 11.333 0.344
17.1958 10.854 0.336
17.2163 11.104 0.340
17.2368 11.135 0.341
17.2572 11.219 0.342
17.2777 11.479 0.346
17.2981 11.094 0.340
17.3186 12.292 0.358
17.3391 11.781 0.350
17.3595 12.021 0.354
17.3800 11.813 0.351
17.4005 11.729 0.350
17.4209 11.781 0.350
17.4414 12.094 0.355
17.4618 11.938 0.353
17.4823 12.427 0.360
17.5028 11.917 0.352
17.5232 12.396 0.359
17.5437 12.615 0.362
17.5642 11.594 0.348
17.5846 12.135 0.356
17.6051 12.844 0.366
17.6255 12.646 0.363
17.6460 12.813 0.365
17.6665 13.333 0.373
17.6869 13.250 0.372
17.7074 14.281 0.386
17.7279 15.292 0.399
17.7483 16.177 0.411
17.7688 17.031 0.421
17.7893 18.792 0.442
17.8097 17.792 0.430
17.8302 17.094 0.422
17.8506 16.177 0.411
17.8711 16.844 0.419
17.8916 16.094 0.409
17.9120 15.375 0.400
17.9325 15.802 0.406
17.9530 17.000 0.421
17.9734 16.750 0.418
17.9939 18.292 0.437
18.0143 18.177 0.435
18.0348 20.094 0.458
18.0553 20.938 0.467
18.0757 19.271 0.448
18.0962 19.854 0.455
18.1167 19.542 0.451
18.1371 18.719 0.442
18.1576 20.313 0.460
18.1780 20.271 0.460
18.1985 21.385 0.472
18.2190 21.229 0.470
18.2394 20.969 0.467
18.2599 20.438 0.461
18.2804 20.594 0.463
18.3008 21.604 0.474
18.3213 21.438 0.473
18.3417 21.271 0.471
18.3622 20.677 0.464
18.3827 21.240 0.470
18.4031 22.698 0.486
18.4236 22.250 0.481
18.4441 23.281 0.492
18.4645 22.240 0.481
18.4850 24.010 0.500
18.5054 24.146 0.502
18.5259 23.844 0.498
18.5464 24.531 0.506
18.5668 26.229 0.523
18.5873 26.208 0.522
18.6078 25.729 0.518
18.6282 26.771 0.528
18.6487 25.354 0.514
18.6692 25.438 0.515
18.6896 25.177 0.512
18.7101 23.135 0.491
18.7305 23.198 0.492
18.7510 22.073 0.480
18.7715 21.625 0.475
18.7919 23.177 0.491
18.8124 24.781 0.508
18.8329 26.250 0.523
18.8533 26.667 0.527
18.8738 23.771 0.498
18.8942 22.375 0.483
18.9147 19.979 0.456
18.9352 18.594 0.440
18.9556 17.104 0.422
18.9761 17.354 0.425
18.9966 16.458 0.414
19.0170 16.438 0.414
19.0375 16.813 0.418
19.0579 16.771 0.418
19.0784 16.417 0.414
19.0989 15.990 0.408
19.1193 15.844 0.406
19.1398 15.656 0.404
19.1603 15.073 0.396
19.1807 15.396 0.400
19.2012 15.271 0.399
19.2216 15.792 0.406
19.2421 15.052 0.396
19.2626 15.146 0.397
19.2830 14.396 0.387
19.3035 14.833 0.393
19.3240 14.146 0.384
19.3444 14.240 0.385
19.3649 16.115 0.410
19.3853 15.927 0.407
19.4058 15.510 0.402
19.4263 15.635 0.404
19.4467 15.594 0.403
19.4672 15.375 0.400
19.4877 16.021 0.409
19.5081 16.667 0.417
19.5286 16.979 0.421
19.5491 16.917 0.420
19.5695 18.625 0.440
19.5900 19.042 0.445
19.6104 19.646 0.452
19.6309 19.885 0.455
19.6514 20.615 0.463
19.6718 21.750 0.476
19.6923 24.844 0.509
19.7128 28.313 0.543
19.7332 33.865 0.594
19.7537 47.844 0.706
19.7741 69.604 0.851
19.7946 100.052 1.021
19.8151 120.135 1.119
19.8355 99.625 1.019
19.8560 81.052 0.919
19.8765 60.708 0.795
19.8969 40.177 0.647
19.9174 27.396 0.534
19.9378 23.083 0.490
19.9583 21.323 0.471
19.9788 19.906 0.455
19.9992 18.208 0.436
20.0197 17.708 0.429
20.0402 17.271 0.424
20.0606 17.354 0.425
20.0811 16.531 0.415
20.1015 16.938 0.420
20.1220 16.719 0.417
20.1425 16.198 0.411
20.1629 16.458 0.414
20.1834 16.917 0.420
20.2039 16.302 0.412
20.2243 17.042 0.421
20.2448 16.781 0.418
20.2653 16.469 0.414
20.2857 17.125 0.422
20.3062 17.771 0.430
20.3266 17.802 0.431
20.3471 18.177 0.435
20.3676 17.063 0.422
20.3880 17.365 0.425
20.4085 17.333 0.425
20.4290 17.813 0.431
20.4494 17.229 0.424
20.4699 16.271 0.412
20.4903 15.792 0.406
20.5108 16.875 0.419
20.5313 17.000 0.421
20.5517 15.375 0.400
20.5722 15.771 0.405
20.5927 14.583 0.390
20.6131 14.656 0.391
20.6336 14.594 0.390
20.6540 14.750 0.392
20.6745 14.104 0.383
20.6950 12.854 0.366
20.7154 13.802 0.379
20.7359 13.490 0.375
20.7564 13.792 0.379
20.7768 13.563 0.376
20.7973 12.938 0.367
20.8177 12.479 0.361
20.8382 13.042 0.369
20.8587 12.063 0.354
20.8791 12.490 0.361
20.8996 12.365 0.359
20.9201 12.313 0.358
20.9405 12.990 0.368
20.9610 12.500 0.361
20.9814 12.240 0.357
21.0019 12.063 0.354
21.0224 12.094 0.355
21.0428 11.719 0.349
21.0633 11.885 0.352
21.0838 11.865 0.352
21.1042 11.510 0.346
21.1247 11.979 0.353
21.1452 11.969 0.353
21.1656 12.448 0.360
21.1861 13.750 0.378
21.2065 12.625 0.363
21.2270 13.073 0.369
21.2475 13.063 0.369
21.2679 11.719 0.349
21.2884 12.031 0.354
21.3089 12.948 0.367
21.3293 12.865 0.366
21.3498 12.448 0.360
21.3702 12.396 0.359
21.3907 12.313 0.358
21.4112 11.667 0.349
21.4316 12.135 0.356
21.4521 10.938 0.338
21.4726 11.240 0.342
21.4930 10.750 0.335
21.5135 11.313 0.343
21.5339 11.490 0.346
21.5544 11.594 0.348
21.5749 11.021 0.339
21.5953 10.938 0.338
21.6158 11.188 0.341
21.6363 10.708 0.334
21.6567 11.125 0.340
21.6772 11.708 0.349
21.6976 11.250 0.342
21.7181 10.917 0.337
21.7386 11.823 0.351
21.7590 11.365 0.344
21.7795 11.292 0.343
21.8000 11.729 0.350
21.8204 11.333 0.344
21.8409 10.958 0.338
21.8613 11.156 0.341
21.8818 11.104 0.340
21.9023 11.625 0.348
21.9227 11.604 0.348
21.9432 11.510 0.346
21.9637 11.698 0.349
21.9841 12.104 0.355
22.0046 12.802 0.365
22.0251 13.167 0.370
22.0455 14.823 0.393
22.0660 15.135 0.397
22.0864 17.458 0.426
22.1069 21.958 0.478
22.1274 28.938 0.549
22.1478 36.844 0.620
22.1683 40.875 0.653
22.1888 37.542 0.625
22.2092 33.542 0.591
22.2297 28.813 0.548
22.2501 23.292 0.493
22.2706 19.542 0.451
22.2911 16.740 0.418
22.3115 15.604 0.403
22.3320 14.448 0.388
22.3525 13.792 0.379
22.3729 13.365 0.373
22.3934 12.688 0.364
22.4138 12.719 0.364
22.4343 13.021 0.368
22.4548 11.688 0.349
22.4752 11.750 0.350
22.4957 11.250 0.342
22.5162 11.292 0.343
22.5366 11.490 0.346
22.5571 11.104 0.340
22.5775 11.479 0.346
22.5980 10.979 0.338
22.6185 11.083 0.340
22.6389 11.531 0.347
22.6594 10.552 0.332
22.6799 11.271 0.343
22.7003 10.510 0.331
22.7208 11.458 0.345
22.7412 10.927 0.337
22.7617 11.344 0.344
22.7822 11.917 0.352
22.8026 12.344 0.359
22.8231 13.344 0.373
22.8436 17.448 0.426
22.8640 20.469 0.462
22.8845 20.500 0.462
22.9050 16.646 0.416
22.9254 16.156 0.410
22.9459 15.396 0.400
22.9663 12.188 0.356
22.9868 11.094 0.340
23.0073 10.958 0.338
23.0277 11.427 0.345
23.0482 10.260 0.327
23.0687 10.021 0.323
23.0891 10.125 0.325
23.1096 10.563 0.332
23.1300 10.490 0.331
23.1505 9.844 0.320
23.1710 9.833 0.320
23.1914 10.479 0.330
23.2119 9.990 0.323
23.2324 10.240 0.327
23.2528 10.021 0.323
23.2733 10.448 0.330
23.2937 10.344 0.328
23.3142 9.854 0.320
23.3347 10.135 0.325
23.3551 10.021 0.323
23.3756 10.292 0.327
23.3961 10.563 0.332
23.4165 10.073 0.324
23.4370 10.563 0.332
23.4574 10.406 0.329
23.4779 10.635 0.333
23.4984 10.552 0.332
23.5188 10.781 0.335
23.5393 10.667 0.333
23.5598 11.094 0.340
23.5802 10.948 0.338
23.6007 11.083 0.340
23.6211 11.583 0.347
23.6416 11.979 0.353
23.6621 11.354 0.344
23.6825 12.188 0.356
23.7030 10.719 0.334
23.7235 10.781 0.335
23.7439 10.729 0.334
23.7644 10.323 0.328
23.7849 10.000 0.323
23.8053 9.469 0.314
23.8258 9.958 0.322
23.8462 9.708 0.318
23.8667 9.042 0.307
23.8872 9.469 0.314
23.9076 9.552 0.315
23.9281 9.240 0.310
23.9486 9.656 0.317
23.9690 9.375 0.313
23.9895 9.552 0.315
24.0099 9.021 0.307
24.0304 9.281 0.311
24.0509 9.167 0.309
24.0713 9.365 0.312
24.0918 9.563 0.316
24.1123 9.156 0.309
24.1327 9.615 0.316
24.1532 10.594 0.332
24.1736 10.146 0.325
24.1941 10.510 0.331
24.2146 10.010 0.323
24.2350 10.479 0.330
24.2555 10.385 0.329
24.2760 10.250 0.327
24.2964 11.635 0.348
24.3169 11.844 0.351
24.3373 10.802 0.335
24.3578 11.031 0.339
24.3783 10.490 0.331
24.3987 9.906 0.321
24.4192 10.063 0.324
24.4397 9.073 0.307
24.4601 8.813 0.303
24.4806 9.135 0.308
24.5011 8.990 0.306
24.5215 8.490 0.297
24.5420 9.021 0.307
24.5624 9.042 0.307
24.5829 9.448 0.314
24.6034 9.656 0.317
24.6238 10.063 0.324
24.6443 10.719 0.334
24.6648 10.969 0.338
24.6852 10.104 0.324
24.7057 9.563 0.316
24.7261 10.354 0.328
24.7466 9.594 0.316
24.7671 8.500 0.298
24.7875 8.833 0.303
24.8080 8.188 0.292
24.8285 8.000 0.289
24.8489 8.573 0.299
24.8694 8.573 0.299
24.8898 8.052 0.290
24.9103 8.677 0.301
24.9308 8.021 0.289
24.9512 8.750 0.302
24.9717 8.625 0.300
24.9922 8.104 0.291
25.0126 8.427 0.296
25.0331 8.365 0.295
25.0535 7.917 0.287
25.0740 8.510 0.298
25.0945 8.438 0.296
25.1149 8.115 0.291
25.1354 8.240 0.293
25.1559 9.115 0.308
25.1763 8.667 0.300
25.1968 8.865 0.304
25.2172 8.167 0.292
25.2377 8.167 0.292
25.2582 7.667 0.283
25.2786 8.177 0.292
25.2991 8.229 0.293
25.3196 8.385 0.296
25.3400 8.167 0.292
25.3605 8.594 0.299
25.3810 8.385 0.296
25.4014 8.875 0.304
25.4219 9.219 0.310
25.4423 8.729 0.302
25.4628 8.604 0.299
25.4833 8.948 0.305
25.5037 10.656 0.333
25.5242 11.052 0.339
25.5447 14.021 0.382
25.5651 15.344 0.400
25.5856 12.844 0.366
25.6060 11.958 0.353
25.6265 11.938 0.353
25.6470 9.969 0.322
25.6674 8.906 0.305
25.6879 8.438 0.296
25.7084 8.979 0.306
25.7288 8.854 0.304
25.7493 8.573 0.299
25.7697 8.438 0.296
25.7902 9.052 0.307
25.8107 8.500 0.298
25.8311 7.958 0.288
25.8516 8.521 0.298
25.8721 8.417 0.296
25.8925 8.073 0.290
25.9130 7.917 0.287
25.9334 8.302 0.294
25.9539 8.396 0.296
25.9744 8.656 0.300
25.9948 8.500 0.298
26.0153 8.177 0.292
26.0358 8.313 0.294
26.0562 8.323 0.294
26.0767 8.208 0.292
26.0971 8.063 0.290
26.1176 8.417 0.296
26.1381 8.302 0.294
26.1585 8.479 0.297
26.1790 8.563 0.299
26.1995 8.188 0.292
26.2199 8.271 0.294
26.2404 8.469 0.297
26.2609 8.250 0.293
26.2813 8.625 0.300
26.3018 7.906 0.287
26.3222 8.188 0.292
26.3427 8.208 0.292
26.3632 7.948 0.288
26.3836 8.719 0.301
26.4041 8.063 0.290
26.4246 8.198 0.292
26.4450 8.438 0.296
26.4655 8.740 0.302
26.4859 7.771 0.285
26.5064 8.615 0.300
26.5269 8.250 0.293
26.5473 8.479 0.297
26.5678 8.406 0.296
26.5883 8.042 0.289
26.6087 8.583 0.299
26.6292 8.042 0.289
26.6496 8.760 0.302
26.6701 8.063 0.290
26.6906 8.844 0.304
26.7110 8.563 0.299
26.7315 8.229 0.293
26.7520 7.823 0.285
26.7724 8.542 0.298
26.7929 8.677 0.301
26.8133 8.000 0.289
26.8338 8.865 0.304
26.8543 8.615 0.300
26.8747 8.531 0.298
26.8952 8.375 0.295
26.9157 8.469 0.297
26.9361 8.500 0.298
26.9566 8.667 0.300
26.9770 8.490 0.297
26.9975 8.208 0.292
27.0180 8.594 0.299
27.0384 7.635 0.282
27.0589 7.979 0.288
27.0794 8.688 0.301
27.0998 8.188 0.292
27.1203 8.958 0.305
27.1408 8.500 0.298
27.1612 8.344 0.295
27.1817 8.938 0.305
27.2021 9.458 0.314
27.2226 9.771 0.319
27.2431 8.823 0.303
27.2635 9.104 0.308
27.2840 8.885 0.304
27.3045 8.990 0.306
27.3249 8.677 0.301
27.3454 9.219 0.310
27.3658 8.427 0.296
27.3863 9.219 0.310
27.4068 9.635 0.317
27.4272 11.115 0.340
27.4477 13.552 0.376
27.4682 12.927 0.367
27.4886 11.042 0.339
27.5091 10.927 0.337
27.5295 11.354 0.344
27.5500 10.344 0.328
27.5705 8.854 0.304
27.5909 7.906 0.287
27.6114 8.250 0.293
27.6319 8.427 0.296
27.6523 8.563 0.299
27.6728 8.250 0.293
27.6932 7.760 0.284
27.7137 8.156 0.291
27.7342 8.167 0.292
27.7546 7.979 0.288
27.7751 8.531 0.298
27.7956 8.573 0.299
27.8160 7.958 0.288
27.8365 8.635 0.300
27.8569 8.698 0.301
27.8774 8.219 0.293
27.8979 8.510 0.298
27.9183 8.125 0.291
27.9388 7.979 0.288
27.9593 8.604 0.299
27.9797 8.344 0.295
28.0002 8.250 0.293
28.0207 8.115 0.291
28.0411 8.167 0.292
28.0616 7.896 0.287
28.0820 8.229 0.293
28.1025 8.750 0.302
28.1230 8.188 0.292
28.1434 7.948 0.288
28.1639 8.188 0.292
28.1844 7.958 0.288
28.2048 8.125 0.291
28.2253 7.958 0.288
28.2457 7.698 0.283
28.2662 8.000 0.289
28.2867 8.052 0.290
28.3071 7.823 0.285
28.3276 8.406 0.296
28.3481 7.948 0.288
28.3685 7.635 0.282
28.3890 8.208 0.292
28.4094 7.594 0.281
28.4299 7.323 0.276
28.4504 7.719 0.284
28.4708 7.635 0.282
28.4913 7.719 0.284
28.5118 7.771 0.285
28.5322 7.958 0.288
28.5527 7.802 0.285
28.5731 7.677 0.283
28.5936 8.000 0.289
28.6141 8.344 0.295
28.6345 8.052 0.290
28.6550 8.021 0.289
28.6755 8.344 0.295
28.6959 8.052 0.290
28.7164 7.802 0.285
28.7368 8.458 0.297
28.7573 7.677 0.283
28.7778 7.813 0.285
28.7982 7.615 0.282
28.8187 7.531 0.280
28.8392 7.469 0.279
28.8596 7.542 0.280
28.8801 7.969 0.288
28.9006 7.469 0.279
28.9210 7.156 0.273
28.9415 7.740 0.284
28.9619 7.500 0.280
28.9824 7.323 0.276
29.0029 8.000 0.289
29.0233 7.208 0.274
29.0438 7.698 0.283
29.0643 7.854 0.286
29.0847 7.927 0.287
29.1052 7.844 0.286
29.1256 7.583 0.281
29.1461 7.573 0.281
29.1666 7.688 0.283
29.1870 7.677 0.283
29.2075 7.635 0.282
29.2280 7.948 0.288
29.2484 7.615 0.282
29.2689 7.948 0.288
29.2893 8.083 0.290
29.3098 7.260 0.275
29.3303 7.510 0.280
29.3507 7.260 0.275
29.3712 7.979 0.288
29.3917 8.260 0.293
29.4121 7.958 0.288
29.4326 7.281 0.275
29.4530 7.771 0.285
29.4735 7.625 0.282
29.4940 7.417 0.278
29.5144 8.135 0.291
29.5349 8.219 0.293
29.5554 8.667 0.300
29.5758 7.750 0.284
29.5963 7.688 0.283
29.6168 7.729 0.284
29.6372 7.854 0.286
29.6577 7.771 0.285
29.6781 7.594 0.281
29.6986 7.365 0.277
29.7191 7.021 0.270
29.7395 7.656 0.282
29.7600 7.573 0.281
29.7805 7.313 0.276
29.8009 7.417 0.278
29.8214 7.229 0.274
29.8418 7.667 0.283
29.8623 7.240 0.275
29.8828 7.323 0.276
29.9032 7.708 0.283
29.9237 6.917 0.268
29.9442 7.906 0.287
29.9646 7.385 0.277
29.9851 7.292 0.276
30.0055 7.531 0.280
30.0260 7.490 0.279
30.0465 7.771 0.285
30.0669 7.479 0.279
30.0874 7.469 0.279
30.1079 7.365 0.277
30.1283 7.281 0.275
30.1488 7.719 0.284
30.1692 7.656 0.282
30.1897 7.198 0.274
30.2102 7.021 0.270
30.2306 7.229 0.274
30.2511 7.240 0.275
30.2716 6.750 0.265
30.2920 7.500 0.280
30.3125 7.229 0.274
30.3329 7.208 0.274
30.3534 7.156 0.273
30.3739 7.708 0.283
30.3943 6.865 0.267
30.4148 6.875 0.268
30.4353 7.740 0.284
30.4557 7.188 0.274
30.4762 7.323 0.276
30.4967 7.083 0.272
30.5171 7.333 0.276
30.5376 8.000 0.289
30.5580 7.271 0.275
30.5785 7.885 0.287
30.5990 7.365 0.277
30.6194 8.031 0.289
30.6399 7.333 0.276
30.6604 7.854 0.286
30.6808 7.635 0.282
30.7013 7.875 0.286
30.7217 8.188 0.292
30.7422 7.802 0.285
30.7627 8.573 0.299
30.7831 8.823 0.303
30.8036 8.688 0.301
30.8241 8.896 0.304
30.8445 9.771 0.319
30.8650 10.333 0.328
30.8854 10.958 0.338
30.9059 13.042 0.369
30.9264 16.260 0.412
30.9468 22.208 0.481
30.9673 31.198 0.570
30.9878 40.979 0.653
31.0082 43.354 0.672
31.0287 42.563 0.666
31.0491 40.344 0.648
31.0696 37.781 0.627
31.0901 34.240 0.597
31.1105 26.052 0.521
31.1310 20.958 0.467
31.1515 17.052 0.421
31.1719 14.083 0.383
31.1924 12.135 0.356
31.2128 10.698 0.334
31.2333 9.969 0.322
31.2538 9.458 0.314
31.2742 8.396 0.296
31.2947 9.906 0.321
31.3152 9.354 0.312
31.3356 9.802 0.320
31.3561 8.792 0.303
31.3766 8.771 0.302
31.3970 8.500 0.298
31.4175 8.531 0.298
31.4379 8.323 0.294
31.4584 7.698 0.283
31.4789 7.583 0.281
31.4993 7.646 0.282
31.5198 7.740 0.284
31.5403 7.656 0.282
31.5607 7.990 0.288
31.5812 7.344 0.277
31.6016 7.667 0.283
31.6221 7.198 0.274
31.6426 7.302 0.276
31.6630 7.792 0.285
31.6835 8.167 0.292
31.7040 7.438 0.278
31.7244 7.552 0.280
31.7449 7.344 0.277
31.7653 7.490 0.279
31.7858 8.031 0.289
31.8063 8.615 0.300
31.8267 8.240 0.293
31.8472 8.688 0.301
31.8677 8.219 0.293
31.8881 8.458 0.297
31.9086 7.771 0.285
31.9290 7.823 0.285
31.9495 7.844 0.286
31.9700 8.292 0.294
31.9904 8.302 0.294
32.0109 9.042 0.307
32.0314 8.656 0.300
32.0518 8.563 0.299
32.0723 9.948 0.322
32.0927 10.708 0.334
32.1132 10.958 0.338
32.1337 11.469 0.346
32.1541 12.177 0.356
32.1746 14.740 0.392
32.1951 15.906 0.407
32.2155 13.125 0.370
32.2360 11.781 0.350
32.2565 12.177 0.356
32.2769 12.031 0.354
32.2974 11.021 0.339
32.3178 9.781 0.319
32.3383 9.177 0.309
32.3588 8.958 0.305
32.3792 9.271 0.311
32.3997 9.333 0.312
32.4202 10.281 0.327
32.4406 11.104 0.340
32.4611 11.292 0.343
32.4815 12.458 0.360
32.5020 12.427 0.360
32.5225 13.667 0.377
32.5429 15.896 0.407
32.5634 17.250 0.424
32.5839 20.333 0.460
32.6043 21.521 0.473
32.6248 21.302 0.471
32.6452 18.031 0.433
32.6657 17.365 0.425
32.6862 16.271 0.412
32.7066 13.833 0.380
32.7271 12.000 0.354
32.7476 10.156 0.325
32.7680 9.573 0.316
32.7885 9.479 0.314
32.8089 8.740 0.302
32.8294 8.719 0.301
32.8499 8.281 0.294
32.8703 9.021 0.307
32.8908 8.750 0.302
32.9113 8.396 0.296
32.9317 8.438 0.296
32.9522 8.542 0.298
32.9726 7.896 0.287
32.9931 8.000 0.289
33.0136 7.708 0.283
33.0340 7.896 0.287
33.0545 7.906 0.287
33.0750 7.615 0.282
33.0954 7.813 0.285
33.1159 8.146 0.291
33.1364 9.354 0.312
33.1568 9.417 0.313
33.1773 8.042 0.289
33.1977 7.865 0.286
33.2182 8.448 0.297
33.2387 7.969 0.288
33.2591 7.896 0.287
33.2796 7.573 0.281
33.3001 7.677 0.283
33.3205 8.552 0.298
33.3410 8.344 0.295
33.3614 7.896 0.287
33.3819 8.125 0.291
33.4024 8.052 0.290
33.4228 8.292 0.294
33.4433 7.542 0.280
33.4638 7.604 0.281
33.4842 7.875 0.286
33.5047 6.833 0.267
33.5251 7.510 0.280
33.5456 7.063 0.271
33.5661 7.125 0.272
33.5865 6.854 0.267
33.6070 7.646 0.282
33.6275 7.458 0.279
33.6479 7.802 0.285
33.6684 7.604 0.281
33.6888 7.729 0.284
33.7093 7.948 0.288
33.7298 7.552 0.280
33.7502 7.250 0.275
33.7707 7.250 0.275
33.7912 6.958 0.269
33.8116 7.073 0.271
33.8321 6.813 0.266
33.8526 7.552 0.280
33.8730 6.969 0.269
33.8935 7.073 0.271
33.9139 7.010 0.270
33.9344 7.250 0.275
33.9549 7.854 0.286
33.9753 6.833 0.267
33.9958 7.104 0.272
34.0163 7.448 0.279
34.0367 7.448 0.279
34.0572 7.302 0.276
34.0776 7.521 0.280
34.0981 7.427 0.278
34.1186 8.000 0.289
34.1390 8.552 0.298
34.1595 8.958 0.305
34.1800 10.406 0.329
34.2004 11.667 0.349
34.2209 11.552 0.347
34.2413 10.188 0.326
34.2618 9.552 0.315
34.2823 9.792 0.319
34.3027 9.646 0.317
34.3232 8.990 0.306
34.3437 8.167 0.292
34.3641 8.000 0.289
34.3846 7.875 0.286
34.4050 7.948 0.288
34.4255 7.563 0.281
34.4460 7.271 0.275
34.4664 7.688 0.283
34.4869 7.729 0.284
34.5074 7.740 0.284
34.5278 7.583 0.281
34.5483 7.167 0.273
34.5687 6.958 0.269
34.5892 7.792 0.285
34.6097 6.688 0.264
34.6301 7.260 0.275
34.6506 7.573 0.281
34.6711 7.740 0.284
34.6915 7.125 0.272
34.7120 7.510 0.280
34.7325 7.125 0.272
34.7529 7.740 0.284
34.7734 7.917 0.287
34.7938 7.708 0.283
34.8143 7.573 0.281
34.8348 7.906 0.287
34.8552 8.417 0.296
34.8757 9.969 0.322
34.8962 11.990 0.353
34.9166 15.021 0.396
34.9371 16.135 0.410
34.9575 12.115 0.355
34.9780 10.625 0.333
34.9985 11.604 0.348
35.0189 12.198 0.356
35.0394 10.552 0.332
35.0599 7.990 0.288
35.0803 8.198 0.292
35.1008 7.292 0.276
35.1212 7.906 0.287
35.1417 7.969 0.288
35.1622 7.146 0.273
35.1826 7.500 0.280
35.2031 7.396 0.278
35.2236 7.844 0.286
35.2440 7.708 0.283
35.2645 7.458 0.279
35.2849 7.333 0.276
35.3054 7.104 0.272
35.3259 7.385 0.277
35.3463 7.510 0.280
35.3668 7.646 0.282
35.3873 8.000 0.289
35.4077 7.490 0.279
35.4282 7.917 0.287
35.4486 7.906 0.287
35.4691 7.396 0.278
35.4896 8.240 0.293
35.5100 8.531 0.298
35.5305 8.365 0.295
35.5510 7.729 0.284
35.5714 7.677 0.283
35.5919 7.917 0.287
35.6124 8.083 0.290
35.6328 7.625 0.282
35.6533 7.656 0.282
35.6737 7.625 0.282
35.6942 8.219 0.293
35.7147 8.063 0.290
35.7351 7.833 0.286
35.7556 8.177 0.292
35.7761 8.625 0.300
35.7965 8.917 0.305
35.8170 8.594 0.299
35.8374 8.031 0.289
35.8579 8.479 0.297
35.8784 8.990 0.306
35.8988 8.781 0.302
35.9193 9.771 0.319
35.9398 9.938 0.322
35.9602 9.531 0.315
35.9807 10.667 0.333
36.0011 10.490 0.331
36.0216 11.615 0.348
36.0421 12.125 0.355
36.0625 13.354 0.373
36.0830 13.167 0.370
36.1035 13.865 0.380
36.1239 14.521 0.389
36.1444 14.917 0.394
36.1648 15.552 0.402
36.1853 15.229 0.398
36.2058 14.542 0.389
36.2262 14.292 0.386
36.2467 14.625 0.390
36.2672 14.031 0.382
36.2876 14.490 0.389
36.3081 14.313 0.386
36.3285 15.313 0.399
36.3490 13.885 0.380
36.3695 14.563 0.389
36.3899 14.979 0.395
36.4104 14.521 0.389
36.4309 15.698 0.404
36.4513 15.906 0.407
36.4718 16.948 0.420
36.4923 17.958 0.433
36.5127 19.729 0.453
36.5332 21.083 0.469
36.5536 23.385 0.494
36.5741 26.167 0.522
36.5946 26.125 0.522
36.6150 23.677 0.497
36.6355 21.813 0.477
36.6560 21.719 0.476
36.6764 22.427 0.483
36.6969 20.115 0.458
36.7173 17.823 0.431
36.7378 16.302 0.412
36.7583 14.594 0.390
36.7787 14.719 0.392
36.7992 15.656 0.404
36.8197 15.281 0.399
36.8401 15.031 0.396
36.8606 14.885 0.394
36.8810 15.010 0.395
36.9015 15.698 0.404
36.9220 15.760 0.405
36.9424 16.260 0.412
36.9629 16.698 0.417
36.9834 18.365 0.437
37.0038 21.229 0.470
37.0243 26.156 0.522
37.0447 29.292 0.552
37.0652 31.177 0.570
37.0857 29.208 0.552
37.1061 25.698 0.517
37.1266 23.531 0.495
37.1471 24.542 0.506
37.1675 21.542 0.474
37.1880 20.448 0.462
37.2084 17.375 0.425
37.2289 15.958 0.408
37.2494 14.781 0.392
37.2698 13.990 0.382
37.2903 12.719 0.364
37.3108 12.979 0.368
37.3312 13.260 0.372
37.3517 11.688 0.349
37.3722 11.448 0.345
37.3926 10.990 0.338
37.4131 11.042 0.339
37.4335 11.042 0.339
37.4540 10.208 0.326
37.4745 9.969 0.322
37.4949 10.469 0.330
37.5154 10.875 0.337
37.5359 10.802 0.335
37.5563 9.906 0.321
37.5768 10.354 0.328
37.5972 9.385 0.313
37.6177 9.938 0.322
37.6382 10.323 0.328
37.6586 10.281 0.327
37.6791 10.354 0.328
37.6996 10.656 0.333
37.7200 10.552 0.332
37.7405 10.927 0.337
37.7609 9.927 0.322
37.7814 11.021 0.339
37.8019 11.094 0.340
37.8223 10.292 0.327
37.8428 10.990 0.338
37.8633 10.521 0.331
37.8837 10.906 0.337
37.9042 11.104 0.340
37.9246 11.677 0.349
37.9451 12.479 0.361
37.9656 13.344 0.373
37.9860 15.531 0.402
38.0065 17.167 0.423
38.0270 16.479 0.414
38.0474 16.052 0.409
38.0679 14.490 0.389
38.0884 15.229 0.398
38.1088 14.521 0.389
38.1293 14.740 0.392
38.1497 13.813 0.379
38.1702 12.823 0.365
38.1907 12.594 0.362
38.2111 12.792 0.365
38.2316 13.063 0.369
38.2521 12.333 0.358
38.2725 12.073 0.355
38.2930 12.313 0.358
38.3134 12.260 0.357
38.3339 11.135 0.341
38.3544 12.146 0.356
38.3748 11.875 0.352
38.3953 13.344 0.373
38.4158 13.948 0.381
38.4362 13.729 0.378
38.4567 14.313 0.386
38.4771 14.458 0.388
38.4976 13.125 0.370
38.5181 12.708 0.364
38.5385 12.500 0.361
38.5590 12.271 0.358
38.5795 11.521 0.346
38.5999 11.021 0.339
38.6204 10.708 0.334
38.6408 10.250 0.327
38.6613 9.469 0.314
38.6818 10.188 0.326
38.7022 9.813 0.320
38.7227 9.729 0.318
38.7432 9.969 0.322
38.7636 9.594 0.316
38.7841 9.385 0.313
38.8045 9.531 0.315
38.8250 9.552 0.315
38.8455 9.063 0.307
38.8659 8.865 0.304
38.8864 9.531 0.315
38.9069 9.240 0.310
38.9273 9.646 0.317
38.9478 9.771 0.319
38.9683 9.167 0.309
38.9887 9.292 0.311
39.0092 8.604 0.299
39.0296 9.198 0.310
39.0501 9.375 0.313
39.0706 9.875 0.321
39.0910 9.604 0.316
39.1115 9.375 0.313
39.1320 9.281 0.311
39.1524 9.146 0.309
39.1729 9.531 0.315
39.1933 9.208 0.310
39.2138 9.083 0.308
39.2343 9.417 0.313
39.2547 9.063 0.307
39.2752 9.729 0.318
39.2957 9.271 0.311
39.3161 9.719 0.318
39.3366 8.948 0.305
39.3570 8.896 0.304
39.3775 8.490 0.297
39.3980 9.333 0.312
39.4184 9.813 0.320
39.4389 9.635 0.317
39.4594 9.656 0.317
39.4798 9.510 0.315
39.5003 8.938 0.305
39.5207 9.344 0.312
39.5412 9.385 0.313
39.5617 9.156 0.309
39.5821 9.500 0.315
39.6026 9.313 0.311
39.6231 8.958 0.305
39.6435 9.813 0.320
39.6640 8.875 0.304
39.6844 9.760 0.319
39.7049 9.635 0.317
39.7254 9.885 0.321
39.7458 10.667 0.333
39.7663 11.521 0.346
39.7868 11.563 0.347
39.8072 11.198 0.342
39.8277 10.229 0.326
39.8482 9.896 0.321
39.8686 10.177 0.326
39.8891 10.542 0.331
39.9095 9.427 0.313
39.9300 9.990 0.323
39.9505 8.490 0.297
39.9709 8.083 0.290
39.9914 9.156 0.309
40.0119 8.573 0.299
40.0323 8.750 0.302
40.0528 8.729 0.302
40.0732 8.708 0.301
40.0937 9.313 0.311
40.1142 8.500 0.298
40.1346 9.000 0.306
40.1551 8.219 0.293
40.1756 9.135 0.308
40.1960 9.031 0.307
40.2165 10.135 0.325
40.2369 10.635 0.333
40.2574 11.177 0.341
40.2779 10.823 0.336
40.2983 11.104 0.340
40.3188 10.563 0.332
40.3393 11.833 0.351
40.3597 11.063 0.339
40.3802 10.271 0.327
40.4006 10.125 0.325
40.4211 9.552 0.315
40.4416 9.917 0.321
40.4620 9.438 0.314
40.4825 8.583 0.299
40.5030 8.792 0.303
40.5234 8.292 0.294
40.5439 8.865 0.304
40.5643 8.406 0.296
40.5848 8.396 0.296
40.6053 8.802 0.303
40.6257 8.885 0.304
40.6462 9.406 0.313
40.6667 9.104 0.308
40.6871 8.865 0.304
40.7076 9.542 0.315
40.7281 10.510 0.331
40.7485 12.427 0.360
40.7690 14.510 0.389
40.7894 15.375 0.400
40.8099 11.635 0.348
40.8304 10.479 0.330
40.8508 10.625 0.333
40.8713 11.260 0.342
40.8918 11.635 0.348
40.9122 10.344 0.328
40.9327 9.240 0.310
40.9531 8.729 0.302
40.9736 8.583 0.299
40.9941 8.833 0.303
41.0145 9.333 0.312
41.0350 10.010 0.323
41.0555 10.177 0.326
41.0759 11.771 0.350
41.0964 11.948 0.353
41.1168 13.448 0.374
41.1373 12.385 0.359
41.1578 12.052 0.354
41.1782 11.813 0.351
41.1987 12.010 0.354
41.2192 11.969 0.353
41.2396 11.802 0.351
41.2601 10.385 0.329
41.2805 9.854 0.320
41.3010 9.594 0.316
41.3215 8.510 0.298
41.3419 9.052 0.307
41.3624 8.875 0.304
41.3829 8.146 0.291
41.4033 7.979 0.288
41.4238 7.979 0.288
41.4442 7.656 0.282
41.4647 7.594 0.281
41.4852 7.885 0.287
41.5056 7.688 0.283
41.5261 7.448 0.279
41.5466 7.573 0.281
41.5670 7.865 0.286
41.5875 7.927 0.287
41.6080 7.521 0.280
41.6284 7.927 0.287
41.6489 7.323 0.276
41.6693 7.396 0.278
41.6898 7.781 0.285
41.7103 7.521 0.280
41.7307 8.052 0.290
41.7512 8.010 0.289
41.7717 7.448 0.279
41.7921 8.385 0.296
41.8126 8.885 0.304
41.8330 9.740 0.319
41.8535 10.677 0.333
41.8740 11.625 0.348
41.8944 9.750 0.319
41.9149 9.167 0.309
41.9354 8.500 0.298
41.9558 9.146 0.309
41.9763 9.313 0.311
41.9967 9.313 0.311
42.0172 8.115 0.291
42.0377 7.865 0.286
42.0581 8.156 0.291
42.0786 7.990 0.288
42.0991 8.073 0.290
42.1195 7.729 0.284
42.1400 7.740 0.284
42.1604 7.844 0.286
42.1809 8.010 0.289
42.2014 8.198 0.292
42.2218 8.656 0.300
42.2423 8.500 0.298
42.2628 8.813 0.303
42.2832 8.740 0.302
42.3037 9.427 0.313
42.3242 9.271 0.311
42.3446 9.604 0.316
42.3651 9.719 0.318
42.3855 9.250 0.310
42.4060 9.531 0.315
42.4265 10.000 0.323
42.4469 9.260 0.311
42.4674 9.917 0.321
42.4879 9.698 0.318
42.5083 10.323 0.328
42.5288 9.875 0.321
42.5492 9.521 0.315
42.5697 9.490 0.314
42.5902 10.156 0.325
42.6106 9.865 0.321
42.6311 9.823 0.320
42.6516 9.490 0.314
42.6720 10.063 0.324
42.6925 9.469 0.314
42.7129 9.302 0.311
42.7334 8.927 0.305
42.7539 9.302 0.311
42.7743 8.385 0.296
42.7948 9.156 0.309
42.8153 9.010 0.306
42.8357 8.146 0.291
42.8562 7.521 0.280
42.8766 8.542 0.298
42.8971 8.417 0.296
42.9176 8.010 0.289
42.9380 8.271 0.294
42.9585 8.531 0.298
42.9790 8.063 0.290
42.9994 8.146 0.291
43.0199 8.073 0.290
43.0403 7.990 0.288
43.0608 8.688 0.301
43.0813 8.135 0.291
43.1017 9.010 0.306
43.1222 8.583 0.299
43.1427 8.938 0.305
43.1631 9.313 0.311
43.1836 9.896 0.321
43.2041 9.969 0.322
43.2245 9.802 0.320
43.2450 9.583 0.316
43.2654 9.552 0.315
43.2859 9.375 0.313
43.3064 9.656 0.317
43.3268 9.979 0.322
43.3473 9.531 0.315
43.3678 9.708 0.318
43.3882 10.021 0.323
43.4087 9.438 0.314
43.4291 9.979 0.322
43.4496 10.052 0.324
43.4701 10.833 0.336
43.4905 11.365 0.344
43.5110 11.563 0.347
43.5315 11.917 0.352
43.5519 13.229 0.371
43.5724 15.073 0.396
43.5928 17.219 0.424
43.6133 19.104 0.446
43.6338 19.042 0.445
43.6542 17.458 0.426
43.6747 16.667 0.417
43.6952 15.708 0.405
43.7156 15.083 0.396
43.7361 14.854 0.393
43.7565 13.802 0.379
43.7770 12.781 0.365
43.7975 11.469 0.346
43.8179 11.531 0.347
43.8384 10.604 0.332
43.8589 9.854 0.320
43.8793 9.438 0.314
43.8998 9.156 0.309
43.9202 9.542 0.315
43.9407 8.219 0.293
43.9612 8.854 0.304
43.9816 8.563 0.299
44.0021 8.552 0.298
44.0226 8.146 0.291
44.0430 8.615 0.300
44.0635 8.188 0.292
44.0840 7.917 0.287
44.1044 7.500 0.280
44.1249 7.573 0.281
44.1453 8.406 0.296
44.1658 8.010 0.289
44.1863 7.740 0.284
44.2067 7.844 0.286
44.2272 7.854 0.286
44.2477 7.271 0.275
44.2681 8.344 0.295
44.2886 7.938 0.288
44.3090 7.875 0.286
44.3295 7.719 0.284
44.3500 7.510 0.280
44.3704 8.490 0.297
44.3909 8.167 0.292
44.4114 7.750 0.284
44.4318 8.333 0.295
44.4523 7.635 0.282
44.4727 7.479 0.279
44.4932 7.333 0.276
44.5137 7.979 0.288
44.5341 7.385 0.277
44.5546 7.854 0.286
44.5751 7.833 0.286
44.5955 7.531 0.280
44.6160 8.021 0.289
44.6364 7.448 0.279
44.6569 8.250 0.293
44.6774 7.646 0.282
44.6978 7.792 0.285
44.7183 7.771 0.285
44.7388 7.833 0.286
44.7592 7.875 0.286
44.7797 7.542 0.280
44.8001 8.083 0.290
44.8206 7.792 0.285
44.8411 8.156 0.291
44.8615 7.719 0.284
44.8820 7.938 0.288
44.9025 8.198 0.292
44.9229 7.813 0.285
44.9434 7.938 0.288
44.9639 7.708 0.283
44.9843 7.438 0.278
45.0048 7.917 0.287
45.0252 7.875 0.286
45.0457 8.396 0.296
45.0662 8.073 0.290
45.0866 8.490 0.297
45.1071 8.083 0.290
45.1276 8.365 0.295
45.1480 8.292 0.294
45.1685 8.635 0.300
45.1889 9.135 0.308
45.2094 10.177 0.326
45.2299 9.938 0.322
45.2503 10.615 0.333
45.2708 9.490 0.314
45.2913 8.688 0.301
45.3117 9.302 0.311
45.3322 9.688 0.318
45.3526 9.292 0.311
45.3731 9.521 0.315
45.3936 8.719 0.301
45.4140 7.792 0.285
45.4345 8.115 0.291
45.4550 7.781 0.285
45.4754 7.521 0.280
45.4959 7.208 0.274
45.5163 7.323 0.276
45.5368 7.885 0.287
45.5573 7.406 0.278
45.5777 6.792 0.266
45.5982 7.656 0.282
45.6187 7.125 0.272
45.6391 7.583 0.281
45.6596 7.156 0.273
45.6800 7.542 0.280
45.7005 7.260 0.275
45.7210 7.302 0.276
45.7414 7.250 0.275
45.7619 7.406 0.278
45.7824 7.323 0.276
45.8028 6.885 0.268
45.8233 7.135 0.273
45.8438 7.354 0.277
45.8642 7.802 0.285
45.8847 7.083 0.272
45.9051 6.760 0.265
45.9256 6.531 0.261
45.9461 6.927 0.269
45.9665 7.271 0.275
45.9870 6.906 0.268
46.0075 6.729 0.265
46.0279 7.156 0.273
46.0484 7.094 0.272
46.0688 6.969 0.269
46.0893 6.802 0.266
46.1098 6.688 0.264
46.1302 7.073 0.271
46.1507 6.688 0.264
46.1712 7.146 0.273
46.1916 7.115 0.272
46.2121 6.833 0.267
46.2325 6.510 0.260
46.2530 6.771 0.266
46.2735 6.552 0.261
46.2939 6.969 0.269
46.3144 6.510 0.260
46.3349 7.146 0.273
46.3553 6.760 0.265
46.3758 6.667 0.264
46.3962 7.750 0.284
46.4167 7.271 0.275
46.4372 7.073 0.271
46.4576 6.510 0.260
46.4781 7.323 0.276
46.4986 6.729 0.265
46.5190 6.688 0.264
46.5395 6.896 0.268
46.5600 7.333 0.276
46.5804 8.021 0.289
46.6009 9.063 0.307
46.6213 8.500 0.298
46.6418 8.010 0.289
46.6623 7.646 0.282
46.6827 7.354 0.277
46.7032 7.781 0.285
46.7237 7.958 0.288
46.7441 7.969 0.288
46.7646 7.063 0.271
46.7850 7.104 0.272
46.8055 6.896 0.268
46.8260 7.188 0.274
46.8464 6.469 0.260
46.8669 7.313 0.276
46.8874 6.625 0.263
46.9078 6.490 0.260
46.9283 6.625 0.263
46.9487 6.865 0.267
46.9692 7.031 0.271
46.9897 6.917 0.268
47.0101 6.469 0.260
47.0306 6.396 0.258
47.0511 6.781 0.266
47.0715 6.417 0.259
47.0920 6.573 0.262
47.1124 6.594 0.262
47.1329 6.854 0.267
47.1534 6.750 0.265
47.1738 6.729 0.265
47.1943 6.552 0.261
47.2148 6.594 0.262
47.2352 6.990 0.270
47.2557 6.906 0.268
47.2761 6.771 0.266
47.2966 6.854 0.267
47.3171 6.677 0.264
47.3375 7.396 0.278
47.3580 6.844 0.267
47.3785 6.740 0.265
47.3989 6.865 0.267
47.4194 7.281 0.275
47.4399 7.292 0.276
47.4603 7.323 0.276
47.4808 7.354 0.277
47.5012 7.438 0.278
47.5217 7.656 0.282
47.5422 8.927 0.305
47.5626 9.938 0.322
47.5831 10.563 0.332
47.6036 11.260 0.342
47.6240 10.781 0.335
47.6445 9.177 0.309
47.6649 10.135 0.325
47.6854 9.302 0.311
47.7059 10.302 0.328
47.7263 10.552 0.332
47.7468 9.469 0.314
47.7673 9.281 0.311
47.7877 8.542 0.298
47.8082 8.219 0.293
47.8286 7.771 0.285
47.8491 7.760 0.284
47.8696 7.375 0.277
47.8900 7.604 0.281
47.9105 7.469 0.279
47.9310 7.688 0.283
47.9514 7.438 0.278
47.9719 7.240 0.275
47.9923 7.281 0.275
48.0128 7.573 0.281
48.0333 7.865 0.286
48.0537 7.750 0.284
48.0742 7.302 0.276
48.0947 7.760 0.284
48.1151 7.323 0.276
48.1356 7.385 0.277
48.1560 6.906 0.268
48.1765 7.563 0.281
48.1970 7.229 0.274
48.2174 7.500 0.280
48.2379 7.396 0.278
48.2584 7.823 0.285
48.2788 8.146 0.291
48.2993 8.344 0.295
48.3198 8.677 0.301
48.3402 8.479 0.297
48.3607 8.177 0.292
48.3811 8.521 0.298
48.4016 7.958 0.288
48.4221 7.688 0.283
48.4425 8.156 0.291
48.4630 7.927 0.287
48.4835 8.198 0.292
48.5039 8.010 0.289
48.5244 7.031 0.271
48.5448 7.594 0.281
48.5653 6.917 0.268
48.5858 7.406 0.278
48.6062 7.156 0.273
48.6267 7.781 0.285
48.6472 7.479 0.279
48.6676 8.115 0.291
48.6881 8.302 0.294
48.7085 8.479 0.297
48.7290 7.833 0.286
48.7495 7.354 0.277
48.7699 7.333 0.276
48.7904 7.406 0.278
48.8109 7.135 0.273
48.8313 7.458 0.279
48.8518 6.990 0.270
48.8722 6.896 0.268
48.8927 6.448 0.259
48.9132 6.563 0.261
48.9336 6.906 0.268
48.9541 6.542 0.261
48.9746 6.896 0.268
48.9950 7.333 0.276
49.0155 7.188 0.274
49.0359 6.875 0.268
49.0564 7.177 0.273
49.0769 7.688 0.283
49.0973 7.240 0.275
49.1178 7.115 0.272
49.1383 6.719 0.265
49.1587 6.781 0.266
49.1792 6.823 0.267
49.1997 7.125 0.272
49.2201 6.635 0.263
49.2406 7.125 0.272
49.2610 6.438 0.259
49.2815 6.917 0.268
49.3020 7.438 0.278
49.3224 7.635 0.282
49.3429 7.115 0.272
49.3634 7.396 0.278
49.3838 6.542 0.261
49.4043 6.594 0.262
49.4247 7.031 0.271
49.4452 6.688 0.264
49.4657 7.375 0.277
49.4861 7.271 0.275
49.5066 7.500 0.280
49.5271 6.979 0.270
49.5475 7.677 0.283
49.5680 6.885 0.268
49.5884 7.688 0.283
49.6089 7.969 0.288
49.6294 7.875 0.286
49.6498 7.125 0.272
49.6703 7.354 0.277
49.6908 8.146 0.291
49.7112 8.552 0.298
49.7317 9.510 0.315
49.7521 9.573 0.316
49.7726 11.333 0.344
49.7931 12.958 0.367
49.8135 13.510 0.375
49.8340 15.031 0.396
49.8545 14.688 0.391
49.8749 13.583 0.376
49.8954 12.583 0.362
49.9158 12.656 0.363
49.9363 12.198 0.356
49.9568 12.469 0.360
49.9772 12.458 0.360
49.9977 11.271 0.343
50.0182 11.000 0.339
50.0386 10.083 0.324
50.0591 10.240 0.327
50.0796 9.073 0.307
50.1000 9.625 0.317
50.1205 9.115 0.308
50.1409 9.073 0.307
50.1614 9.885 0.321
50.1819 9.969 0.322
50.2023 9.802 0.320
50.2228 9.615 0.316
50.2433 9.302 0.311
50.2637 9.500 0.315
50.2842 9.271 0.311
50.3046 9.292 0.311
50.3251 9.146 0.309
50.3456 8.813 0.303
50.3660 8.510 0.298
50.3865 8.146 0.291
50.4070 7.906 0.287
50.4274 7.958 0.288
50.4479 7.844 0.286
50.4683 8.031 0.289
50.4888 8.188 0.292
50.5093 7.615 0.282
50.5297 7.635 0.282
50.5502 7.594 0.281
50.5707 8.031 0.289
50.5911 8.208 0.292
50.6116 7.865 0.286
50.6320 7.833 0.286
50.6525 7.969 0.288
50.6730 7.719 0.284
50.6934 7.656 0.282
50.7139 6.969 0.269
50.7344 7.917 0.287
50.7548 7.458 0.279
50.7753 7.146 0.273
50.7958 7.083 0.272
50.8162 7.396 0.278
50.8367 7.469 0.279
50.8571 7.781 0.285
50.8776 6.792 0.266
50.8981 7.781 0.285
50.9185 8.010 0.289
50.9390 8.656 0.300
50.9595 8.094 0.290
50.9799 8.208 0.292
51.0004 8.156 0.291
51.0208 8.510 0.298
51.0413 7.938 0.288
51.0618 7.479 0.279
51.0822 7.281 0.275
51.1027 7.479 0.279
51.1232 7.438 0.278
51.1436 7.365 0.277
51.1641 7.052 0.271
51.1845 7.083 0.272
51.2050 6.760 0.265
51.2255 6.823 0.267
51.2459 7.052 0.271
51.2664 7.198 0.274
51.2869 6.917 0.268
51.3073 7.167 0.273
51.3278 6.677 0.264
51.3482 6.969 0.269
51.3687 6.719 0.265
51.3892 6.406 0.258
51.4096 6.479 0.260
51.4301 6.646 0.263
51.4506 6.708 0.264
51.4710 6.542 0.261
51.4915 6.615 0.262
51.5119 6.438 0.259
51.5324 6.531 0.261
51.5529 6.656 0.263
51.5733 6.542 0.261
51.5938 7.302 0.276
51.6143 8.083 0.290
51.6347 8.052 0.290
51.6552 7.729 0.284
51.6757 7.281 0.275
51.6961 7.458 0.279
51.7166 7.396 0.278
51.7370 7.250 0.275
51.7575 7.094 0.272
51.7780 7.052 0.271
51.7984 7.521 0.280
51.8189 7.042 0.271
51.8394 6.875 0.268
51.8598 6.469 0.260
51.8803 6.865 0.267
51.9007 6.833 0.267
51.9212 6.302 0.256
51.9417 6.760 0.265
51.9621 6.323 0.257
51.9826 6.708 0.264
52.0031 6.406 0.258
52.0235 6.448 0.259
52.0440 6.167 0.253
52.0644 6.677 0.264
52.0849 5.760 0.245
52.1054 5.750 0.245
52.1258 6.135 0.253
52.1463 6.281 0.256
52.1668 6.021 0.250
52.1872 5.479 0.239
52.2077 5.521 0.240
52.2281 6.146 0.253
52.2486 6.646 0.263
52.2691 6.594 0.262
52.2895 6.167 0.253
52.3100 6.406 0.258
52.3305 6.250 0.255
52.3509 6.000 0.250
52.3714 5.906 0.248
52.3918 6.563 0.261
52.4123 6.344 0.257
52.4328 6.281 0.256
52.4532 6.083 0.252
52.4737 5.802 0.246
52.4942 6.375 0.258
52.5146 6.083 0.252
52.5351 6.250 0.255
52.5556 5.969 0.249
52.5760 6.104 0.252
52.5965 5.854 0.247
52.6169 5.646 0.243
52.6374 5.688 0.243
52.6579 5.854 0.247
52.6783 5.583 0.241
52.6988 5.563 0.241
52.7193 5.188 0.232
52.7397 5.760 0.245
52.7602 5.615 0.242
52.7806 5.740 0.245
52.8011 5.396 0.237
52.8216 5.740 0.245
52.8420 5.771 0.245
52.8625 6.177 0.254
52.8830 5.927 0.248
52.9034 5.885 0.248
52.9239 5.771 0.245
52.9443 5.729 0.244
52.9648 5.844 0.247
52.9853 5.719 0.244
53.0057 6.354 0.257
53.0262 5.875 0.247
53.0467 5.990 0.250
53.0671 5.698 0.244
53.0876 5.656 0.243
53.1080 5.531 0.240
53.1285 5.740 0.245
53.1490 6.042 0.251
53.1694 6.042 0.251
53.1899 6.000 0.250
53.2104 5.635 0.242
53.2308 6.406 0.258
53.2513 5.521 0.240
53.2717 6.250 0.255
53.2922 5.594 0.241
53.3127 5.760 0.245
53.3331 5.844 0.247
53.3536 5.615 0.242
53.3741 5.750 0.245
53.3945 5.458 0.238
53.4150 5.406 0.237
53.4355 5.427 0.238
53.4559 5.281 0.235
53.4764 5.833 0.247
53.4968 5.563 0.241
53.5173 5.740 0.245
53.5378 5.427 0.238
53.5582 5.667 0.243
53.5787 5.781 0.245
53.5992 5.865 0.247
53.6196 6.156 0.253
53.6401 6.104 0.252
53.6605 5.594 0.241
53.6810 6.083 0.252
53.7015 6.427 0.259
53.7219 5.927 0.248
53.7424 5.865 0.247
53.7629 5.646 0.243
53.7833 5.885 0.248
53.8038 5.771 0.245
53.8242 5.792 0.246
53.8447 5.615 0.242
53.8652 5.958 0.249
53.8856 5.250 0.234
53.9061 5.760 0.245
53.9266 5.729 0.244
53.9470 5.365 0.236
53.9675 5.813 0.246
53.9879 5.552 0.240
54.0084 5.948 0.249
54.0289 6.094 0.252
54.0493 5.688 0.243
54.0698 6.146 0.253
54.0903 5.792 0.246
54.1107 5.885 0.248
54.1312 5.969 0.249
54.1516 5.615 0.242
54.1721 5.938 0.249
54.1926 5.635 0.242
54.2130 5.708 0.244
54.2335 5.531 0.240
54.2540 5.490 0.239
54.2744 6.010 0.250
54.2949 5.990 0.250
54.3154 5.417 0.238
54.3358 5.740 0.245
54.3563 5.573 0.241
54.3767 5.500 0.239
54.3972 5.479 0.239
54.4177 5.813 0.246
54.4381 5.469 0.239
54.4586 5.552 0.240
54.4791 5.688 0.243
54.4995 5.865 0.247
54.5200 5.708 0.244
54.5404 6.750 0.265
54.5609 6.250 0.255
54.5814 6.146 0.253
54.6018 5.938 0.249
54.6223 5.479 0.239
54.6428 5.156 0.232
54.6632 5.375 0.237
54.6837 5.479 0.239
54.7041 5.521 0.240
54.7246 5.542 0.240
54.7451 5.823 0.246
54.7655 5.583 0.241
54.7860 5.521 0.240
54.8065 5.677 0.243
54.8269 5.885 0.248
54.8474 5.719 0.244
54.8678 5.875 0.247
54.8883 5.396 0.237
54.9088 5.771 0.245
54.9292 5.729 0.244
54.9497 6.438 0.259
54.9702 6.146 0.253
54.9906 6.771 0.266
55.0111 7.833 0.286
55.0316 8.146 0.291
55.0520 9.281 0.311
55.0725 10.521 0.331
55.0929 11.396 0.345
55.1134 12.479 0.361
55.1339 13.698 0.378
55.1543 14.052 0.383
55.1748 13.615 0.377
55.1953 13.708 0.378
55.2157 14.333 0.386
55.2362 13.792 0.379
55.2566 12.604 0.362
55.2771 12.260 0.357
55.2976 12.313 0.358
55.3180 12.521 0.361
55.3385 10.625 0.333
55.3590 9.333 0.312
55.3794 9.385 0.313
55.3999 8.833 0.303
55.4203 8.688 0.301
55.4408 8.000 0.289
55.4613 7.260 0.275
55.4817 6.750 0.265
55.5022 6.375 0.258
55.5227 6.333 0.257
55.5431 5.979 0.250
55.5636 5.813 0.246
55.5840 6.177 0.254
55.6045 6.021 0.250
55.6250 6.208 0.254
55.6454 6.167 0.253
55.6659 5.875 0.247
55.6864 6.271 0.256
55.7068 5.844 0.247
55.7273 6.135 0.253
55.7477 6.177 0.254
55.7682 6.281 0.256
55.7887 6.604 0.262
55.8091 6.708 0.264
55.8296 6.948 0.269
55.8501 6.781 0.266
55.8705 6.969 0.269
55.8910 6.635 0.263
55.9115 6.938 0.269
55.9319 6.583 0.262
55.9524 6.438 0.259
55.9728 6.813 0.266
55.9933 6.927 0.269
56.0138 6.844 0.267
56.0342 6.813 0.266
56.0547 7.781 0.285
56.0752 7.500 0.280
56.0956 8.052 0.290
56.1161 8.635 0.300
56.1365 9.906 0.321
56.1570 10.313 0.328
56.1775 10.781 0.335
56.1979 10.708 0.334
56.2184 10.333 0.328
56.2389 9.396 0.313
56.2593 9.396 0.313
56.2798 8.646 0.300
56.3002 8.594 0.299
56.3207 9.104 0.308
56.3412 8.188 0.292
56.3616 8.365 0.295
56.3821 7.469 0.279
56.4026 7.313 0.276
56.4230 6.958 0.269
56.4435 6.990 0.270
56.4639 6.458 0.259
56.4844 5.750 0.245
56.5049 5.865 0.247
56.5253 5.625 0.242
56.5458 5.313 0.235
56.5663 5.260 0.234
56.5867 5.792 0.246
56.6072 5.531 0.240
56.6276 6.073 0.252
56.6481 6.698 0.264
56.6686 7.063 0.271
56.6890 6.844 0.267
56.7095 6.365 0.257
56.7300 6.323 0.257
56.7504 5.875 0.247
56.7709 5.344 0.236
56.7914 5.521 0.240
56.8118 6.052 0.251
56.8323 6.313 0.256
56.8527 6.021 0.250
56.8732 5.469 0.239
56.8937 5.385 0.237
56.9141 5.667 0.243
56.9346 5.156 0.232
56.9551 5.406 0.237
56.9755 5.406 0.237
56.9960 5.083 0.230
57.0164 5.010 0.228
57.0369 5.719 0.244
57.0574 5.802 0.246
57.0778 5.417 0.238
57.0983 5.115 0.231
57.1188 4.979 0.228
57.1392 5.375 0.237
57.1597 5.063 0.230
57.1801 4.844 0.225
57.2006 4.896 0.226
57.2211 5.438 0.238
57.2415 5.458 0.238
57.2620 5.010 0.228
57.2825 5.823 0.246
57.3029 5.208 0.233
57.3234 5.281 0.235
57.3438 5.604 0.242
57.3643 5.396 0.237
57.3848 5.083 0.230
57.4052 5.500 0.239
57.4257 5.188 0.232
57.4462 5.708 0.244
57.4666 5.292 0.235
57.4871 4.854 0.225
57.5075 5.854 0.247
57.5280 5.458 0.238
57.5485 5.542 0.240
57.5689 5.354 0.236
57.5894 5.125 0.231
57.6099 5.146 0.232
57.6303 5.781 0.245
57.6508 5.688 0.243
57.6713 6.135 0.253
57.6917 6.563 0.261
57.7122 5.677 0.243
57.7326 6.125 0.253
57.7531 5.781 0.245
57.7736 5.750 0.245
57.7940 6.031 0.251
57.8145 5.990 0.250
57.8350 6.854 0.267
57.8554 7.104 0.272
57.8759 7.979 0.288
57.8963 8.646 0.300
57.9168 8.010 0.289
57.9373 8.302 0.294
57.9577 8.281 0.294
57.9782 7.344 0.277
57.9987 7.417 0.278
58.0191 7.677 0.283
58.0396 7.510 0.280
58.0600 7.938 0.288
58.0805 6.938 0.269
58.1010 7.375 0.277
58.1214 7.260 0.275
58.1419 7.219 0.274
58.1624 6.771 0.266
58.1828 6.781 0.266
58.2033 6.792 0.266
58.2237 6.490 0.260
58.2442 6.719 0.265
58.2647 6.281 0.256
58.2851 5.948 0.249
58.3056 5.958 0.249
58.3261 5.667 0.243
58.3465 5.813 0.246
58.3670 5.719 0.244
58.3874 6.240 0.255
58.4079 5.740 0.245
58.4284 6.156 0.253
58.4488 5.969 0.249
58.4693 6.448 0.259
58.4898 6.167 0.253
58.5102 6.313 0.256
58.5307 6.188 0.254
58.5512 5.969 0.249
58.5716 6.104 0.252
58.5921 6.146 0.253
58.6125 5.635 0.242
58.6330 5.448 0.238
58.6535 5.771 0.245
58.6739 5.865 0.247
58.6944 6.021 0.250
58.7149 5.833 0.247
58.7353 5.865 0.247
58.7558 6.365 0.257
58.7762 5.646 0.243
58.7967 5.406 0.237
58.8172 6.021 0.250
58.8376 5.563 0.241
58.8581 6.406 0.258
58.8786 5.802 0.246
58.8990 6.021 0.250
58.9195 5.750 0.245
58.9399 5.927 0.248
58.9604 6.250 0.255
58.9809 6.063 0.251
59.0013 6.219 0.255
59.0218 6.135 0.253
59.0423 6.448 0.259
59.0627 6.823 0.267
59.0832 6.885 0.268
59.1036 6.104 0.252
59.1241 6.552 0.261
59.1446 6.885 0.268
59.1650 7.688 0.283
59.1855 7.271 0.275
59.2060 7.281 0.275
59.2264 7.542 0.280
59.2469 7.313 0.276
59.2674 6.813 0.266
59.2878 7.073 0.271
59.3083 6.688 0.264
59.3287 7.146 0.273
59.3492 6.094 0.252
59.3697 6.552 0.261
59.3901 6.188 0.254
59.4106 6.010 0.250
59.4311 5.865 0.247
59.4515 5.542 0.240
59.4720 5.615 0.242
59.4924 5.198 0.233
59.5129 5.927 0.248
59.5334 5.333 0.236
59.5538 5.188 0.232
59.5743 4.781 0.223
59.5948 5.385 0.237
59.6152 5.125 0.231
59.6357 5.635 0.242
59.6561 5.385 0.237
59.6766 5.802 0.246
59.6971 5.427 0.238
59.7175 5.240 0.234
59.7380 5.667 0.243
59.7585 4.969 0.228
59.7789 5.052 0.229
59.7994 6.208 0.254
59.8198 6.844 0.267
59.8403 6.823 0.267
59.8608 6.979 0.270
59.8812 7.208 0.274
59.9017 7.000 0.270
59.9222 6.552 0.261
59.9426 6.417 0.259
59.9631 6.271 0.256
59.9835 6.313 0.256
60.0040 6.177 0.254
60.0245 6.552 0.261
60.0449 6.344 0.257
60.0654 5.719 0.244
60.0859 6.000 0.250
60.1063 5.875 0.247
60.1268 5.469 0.239
60.1473 5.365 0.236
60.1677 5.417 0.238
60.1882 5.333 0.236
60.2086 4.854 0.225
60.2291 5.583 0.241
60.2496 5.188 0.232
60.2700 5.010 0.228
60.2905 4.885 0.226
60.3110 5.115 0.231
60.3314 5.208 0.233
60.3519 5.438 0.238
60.3723 5.240 0.234
60.3928 4.823 0.224
60.4133 5.104 0.231
60.4337 5.010 0.228
60.4542 5.438 0.238
60.4747 4.906 0.226
60.4951 4.948 0.227
60.5156 5.063 0.230
60.5360 5.260 0.234
60.5565 5.135 0.231
60.5770 5.365 0.236
60.5974 5.167 0.232
60.6179 5.031 0.229
60.6384 5.031 0.229
60.6588 5.458 0.238
60.6793 5.000 0.228
60.6997 5.115 0.231
60.7202 5.042 0.229
60.7407 4.688 0.221
60.7611 5.302 0.235
60.7816 5.219 0.233
60.8021 5.406 0.237
60.8225 5.250 0.234
60.8430 5.510 0.240
60.8634 5.260 0.234
60.8839 5.146 0.232
60.9044 5.354 0.236
60.9248 5.344 0.236
60.9453 5.510 0.240
60.9658 5.469 0.239
60.9862 5.396 0.237
61.0067 5.427 0.238
61.0272 5.063 0.230
61.0476 4.990 0.228
61.0681 4.813 0.224
61.0885 4.906 0.226
61.1090 5.302 0.235
61.1295 4.583 0.219
61.1499 4.979 0.228
61.1704 4.573 0.218
61.1909 4.771 0.223
61.2113 5.010 0.228
61.2318 4.740 0.222
61.2522 4.396 0.214
61.2727 4.875 0.225
61.2932 5.125 0.231
61.3136 5.208 0.233
61.3341 5.250 0.234
61.3546 5.344 0.236
61.3750 5.010 0.228
61.3955 5.271 0.234
61.4159 5.010 0.228
61.4364 5.177 0.232
61.4569 4.740 0.222
61.4773 4.302 0.212
61.4978 5.104 0.231
61.5183 4.938 0.227
61.5387 4.760 0.223
61.5592 4.698 0.221
61.5796 4.708 0.221
61.6001 5.271 0.234
61.6206 4.656 0.220
61.6410 5.042 0.229
61.6615 4.875 0.225
61.6820 4.240 0.210
61.7024 4.333 0.212
61.7229 4.521 0.217
61.7433 4.448 0.215
61.7638 4.458 0.216
61.7843 4.229 0.210
61.8047 4.615 0.219
61.8252 4.448 0.215
61.8457 4.656 0.220
61.8661 4.865 0.225
61.8866 4.771 0.223
61.9071 4.656 0.220
61.9275 4.958 0.227
61.9480 4.885 0.226
61.9684 4.667 0.220
61.9889 4.698 0.221
62.0094 5.021 0.229
62.0298 4.917 0.226
62.0503 5.042 0.229
62.0708 5.198 0.233
62.0912 5.323 0.235
62.1117 5.573 0.241
62.1321 6.115 0.252
62.1526 5.521 0.240
62.1731 5.573 0.241
62.1935 5.167 0.232
62.2140 5.375 0.237
62.2345 5.135 0.231
62.2549 5.000 0.228
62.2754 5.281 0.235
62.2958 4.844 0.225
62.3163 4.969 0.228
62.3368 5.458 0.238
62.3572 4.813 0.224
62.3777 5.177 0.232
62.3982 4.990 0.228
62.4186 4.281 0.211
62.4391 4.750 0.222
62.4595 4.969 0.228
62.4800 4.521 0.217
62.5005 5.313 0.235
62.5209 4.500 0.217
62.5414 4.458 0.216
62.5619 4.646 0.220
62.5823 4.490 0.216
62.6028 4.542 0.218
62.6232 5.083 0.230
62.6437 4.333 0.212
62.6642 4.990 0.228
62.6846 4.677 0.221
62.7051 5.000 0.228
62.7256 4.656 0.220
62.7460 4.521 0.217
62.7665 4.781 0.223
62.7870 4.781 0.223
62.8074 4.167 0.208
62.8279 4.510 0.217
62.8483 4.865 0.225
62.8688 4.427 0.215
62.8893 4.781 0.223
62.9097 4.979 0.228
62.9302 4.344 0.213
62.9507 4.427 0.215
62.9711 4.667 0.220
62.9916 5.031 0.229
63.0120 4.635 0.220
63.0325 5.260 0.234
63.0530 4.781 0.223
63.0734 5.156 0.232
63.0939 4.781 0.223
63.1144 4.490 0.216
63.1348 4.625 0.219
63.1553 4.917 0.226
63.1757 5.490 0.239
63.1962 5.135 0.231
63.2167 4.656 0.220
63.2371 5.052 0.229
63.2576 5.135 0.231
63.2781 4.729 0.222
63.2985 4.990 0.228
63.3190 4.688 0.221
63.3394 5.510 0.240
63.3599 4.563 0.218
63.3804 5.135 0.231
63.4008 4.594 0.219
63.4213 5.406 0.237
63.4418 5.208 0.233
63.4622 5.115 0.231
63.4827 5.135 0.231
63.5032 5.229 0.233
63.5236 5.302 0.235
63.5441 5.219 0.233
63.5645 5.146 0.232
63.5850 4.938 0.227
63.6055 5.625 0.242
63.6259 5.542 0.240
63.6464 5.625 0.242
63.6669 5.198 0.233
63.6873 5.396 0.237
63.7078 5.344 0.236
63.7282 5.406 0.237
63.7487 5.344 0.236
63.7692 5.094 0.230
63.7896 5.729 0.244
63.8101 5.333 0.236
63.8306 5.177 0.232
63.8510 5.458 0.238
63.8715 5.542 0.240
63.8919 5.677 0.243
63.9124 5.438 0.238
63.9329 5.292 0.235
63.9533 5.573 0.241
63.9738 5.313 0.235
63.9943 5.760 0.245
64.0147 5.656 0.243
64.0352 5.302 0.235
64.0556 5.271 0.234
64.0761 5.396 0.237
64.0966 5.458 0.238
64.1170 5.490 0.239
64.1375 5.438 0.238
64.1580 5.833 0.247
64.1784 5.115 0.231
64.1989 5.438 0.238
64.2193 6.188 0.254
64.2398 5.573 0.241
64.2603 5.396 0.237
64.2807 5.313 0.235
64.3012 5.344 0.236
64.3217 5.625 0.242
64.3421 5.615 0.242
64.3626 5.240 0.234
64.3831 5.542 0.240
64.4035 5.417 0.238
64.4240 5.677 0.243
64.4444 5.156 0.232
64.4649 5.531 0.240
64.4854 5.656 0.243
64.5058 5.594 0.241
64.5263 6.052 0.251
64.5468 6.438 0.259
64.5672 6.531 0.261
64.5877 6.719 0.265
64.6081 6.948 0.269
64.6286 7.719 0.284
64.6491 7.813 0.285
64.6695 6.823 0.267
64.6900 7.031 0.271
64.7105 7.031 0.271
64.7309 7.198 0.274
64.7514 6.833 0.267
64.7718 6.438 0.259
64.7923 7.146 0.273
64.8128 6.594 0.262
64.8332 6.333 0.257
64.8537 6.323 0.257
64.8742 6.021 0.250
64.8946 6.021 0.250
64.9151 6.146 0.253
64.9355 5.656 0.243
64.9560 5.750 0.245
64.9765 5.333 0.236
64.9969 5.271 0.234
65.0174 5.073 0.230
65.0379 5.354 0.236
65.0583 4.594 0.219
65.0788 4.490 0.216
65.0992 4.938 0.227
65.1197 5.167 0.232
65.1402 4.948 0.227
65.1606 4.469 0.216
65.1811 5.135 0.231
65.2016 5.188 0.232
65.2220 4.875 0.225
65.2425 4.917 0.226
65.2630 5.021 0.229
65.2834 5.052 0.229
65.3039 4.708 0.221
65.3243 5.167 0.232
65.3448 5.000 0.228
65.3653 4.792 0.223
65.3857 5.042 0.229
65.4062 5.063 0.230
65.4267 4.823 0.224
65.4471 5.031 0.229
65.4676 5.510 0.240
65.4880 5.438 0.238
65.5085 5.573 0.241
65.5290 5.563 0.241
65.5494 6.073 0.252
65.5699 6.188 0.254
65.5904 5.500 0.239
65.6108 5.865 0.247
65.6313 5.750 0.245
65.6517 5.865 0.247
65.6722 5.125 0.231
65.6927 5.969 0.249
65.7131 5.990 0.250
65.7336 5.260 0.234
65.7541 5.115 0.231
65.7745 5.740 0.245
65.7950 5.198 0.233
65.8154 5.135 0.231
65.8359 4.854 0.225
65.8564 4.563 0.218
65.8768 4.990 0.228
65.8973 4.792 0.223
65.9178 4.896 0.226
65.9382 4.635 0.220
65.9587 4.583 0.219
65.9791 4.688 0.221
65.9996 4.698 0.221
66.0201 4.875 0.225
66.0405 4.427 0.215
66.0610 4.531 0.217
66.0815 4.792 0.223
66.1019 4.625 0.219
66.1224 4.740 0.222
66.1429 4.542 0.218
66.1633 4.563 0.218
66.1838 4.813 0.224
66.2042 4.854 0.225
66.2247 4.208 0.209
66.2452 4.604 0.219
66.2656 4.396 0.214
66.2861 4.771 0.223
66.3066 4.510 0.217
66.3270 4.677 0.221
66.3475 4.500 0.217
66.3679 4.740 0.222
66.3884 4.229 0.210
66.4089 4.969 0.228
66.4293 4.417 0.214
66.4498 4.740 0.222
66.4703 4.531 0.217
66.4907 4.760 0.223
66.5112 4.594 0.219
66.5316 4.813 0.224
66.5521 4.885 0.226
66.5726 4.625 0.219
66.5930 5.115 0.231
66.6135 4.750 0.222
66.6340 4.688 0.221
66.6544 4.625 0.219
66.6749 4.552 0.218
66.6953 4.688 0.221
66.7158 4.844 0.225
66.7363 4.250 0.210
66.7567 4.375 0.213
66.7772 4.708 0.221
66.7977 4.490 0.216
66.8181 4.281 0.211
66.8386 4.615 0.219
66.8590 4.531 0.217
66.8795 4.771 0.223
66.9000 4.906 0.226
66.9204 5.167 0.232
66.9409 5.104 0.231
66.9614 5.146 0.232
66.9818 5.490 0.239
67.0023 5.656 0.243
67.0228 5.438 0.238
67.0432 6.000 0.250
67.0637 6.615 0.262
67.0841 6.115 0.252
67.1046 7.115 0.272
67.1251 7.906 0.287
67.1455 7.885 0.287
67.1660 8.125 0.291
67.1865 6.990 0.270
67.2069 7.219 0.274
67.2274 7.104 0.272
67.2478 6.625 0.263
67.2683 6.406 0.258
67.2888 6.750 0.265
67.3092 6.688 0.264
67.3297 6.729 0.265
67.3502 7.010 0.270
67.3706 6.406 0.258
67.3911 6.156 0.253
67.4115 6.271 0.256
67.4320 5.938 0.249
67.4525 6.146 0.253
67.4729 5.323 0.235
67.4934 5.292 0.235
67.5139 5.125 0.231
67.5343 5.240 0.234
67.5548 5.281 0.235
67.5752 5.104 0.231
67.5957 4.573 0.218
67.6162 5.354 0.236
67.6366 4.760 0.223
67.6571 4.542 0.218
67.6776 5.573 0.241
67.6980 5.167 0.232
67.7185 5.250 0.234
67.7389 5.500 0.239
67.7594 5.333 0.236
67.7799 5.240 0.234
67.8003 4.635 0.220
67.8208 4.854 0.225
67.8413 5.427 0.238
67.8617 5.167 0.232
67.8822 5.052 0.229
67.9027 5.333 0.236
67.9231 5.198 0.233
67.9436 5.271 0.234
67.9640 5.385 0.237
67.9845 5.323 0.235
68.0050 5.177 0.232
68.0254 5.375 0.237
68.0459 5.135 0.231
68.0664 5.240 0.234
68.0868 4.990 0.228
68.1073 5.260 0.234
68.1277 4.677 0.221
68.1482 5.198 0.233
68.1687 5.385 0.237
68.1891 4.854 0.225
68.2096 5.542 0.240
68.2301 5.396 0.237
68.2505 5.563 0.241
68.2710 5.198 0.233
68.2914 5.750 0.245
68.3119 5.844 0.247
68.3324 6.115 0.252
68.3528 5.865 0.247
68.3733 5.156 0.232
68.3938 5.188 0.232
68.4142 5.635 0.242
68.4347 5.156 0.232
68.4551 4.885 0.226
68.4756 4.677 0.221
68.4961 5.260 0.234
68.5165 5.448 0.238
68.5370 5.094 0.230
68.5575 5.063 0.230
68.5779 4.698 0.221
68.5984 4.521 0.217
68.6189 4.646 0.220
68.6393 4.760 0.223
68.6598 4.688 0.221
68.6802 4.417 0.214
68.7007 4.385 0.214
68.7212 4.438 0.215
68.7416 4.531 0.217
68.7621 4.677 0.221
68.7826 4.823 0.224
68.8030 4.635 0.220
68.8235 4.469 0.216
68.8439 4.938 0.227
68.8644 4.521 0.217
68.8849 4.469 0.216
68.9053 4.438 0.215
68.9258 5.188 0.232
68.9463 4.719 0.222
68.9667 4.958 0.227
68.9872 4.781 0.223
69.0076 5.646 0.243
69.0281 5.490 0.239
69.0486 5.667 0.243
69.0690 5.250 0.234
69.0895 4.823 0.224
69.1100 4.552 0.218
69.1304 4.896 0.226
69.1509 5.052 0.229
69.1713 5.302 0.235
69.1918 5.031 0.229
69.2123 5.438 0.238
69.2327 5.188 0.232
69.2532 5.240 0.234
69.2737 5.146 0.232
69.2941 4.656 0.220
69.3146 4.688 0.221
69.3350 4.729 0.222
69.3555 4.625 0.219
69.3760 4.479 0.216
69.3964 4.781 0.223
69.4169 4.802 0.224
69.4374 4.781 0.223
69.4578 4.760 0.223
69.4783 4.396 0.214
69.4988 4.563 0.218
69.5192 4.698 0.221
69.5397 4.229 0.210
69.5601 4.240 0.210
69.5806 4.260 0.211
69.6011 4.313 0.212
69.6215 4.510 0.217
69.6420 4.406 0.214
69.6625 4.479 0.216
69.6829 4.292 0.211
69.7034 4.271 0.211
69.7238 4.010 0.204
69.7443 3.906 0.202
69.7648 4.135 0.208
69.7852 3.698 0.196
69.8057 3.958 0.203
69.8262 4.229 0.210
69.8466 4.188 0.209
69.8671 3.771 0.198
69.8875 3.833 0.200
69.9080 4.188 0.209
69.9285 4.302 0.212
69.9489 4.365 0.213
69.9694 4.156 0.208
69.9899 4.313 0.212
70.0103 4.042 0.205
70.0308 3.896 0.201
70.0512 4.240 0.210
70.0717 4.333 0.212
70.0922 4.177 0.209
70.1126 4.250 0.210
70.1331 4.156 0.208
70.1536 4.010 0.204
70.1740 4.260 0.211
70.1945 4.583 0.219
70.2149 4.573 0.218
70.2354 4.635 0.220
70.2559 4.375 0.213
70.2763 4.063 0.206
70.2968 4.135 0.208
70.3173 4.188 0.209
70.3377 4.083 0.206
70.3582 4.094 0.207
70.3787 4.250 0.210
70.3991 4.125 0.207
70.4196 4.208 0.209
70.4400 4.156 0.208
70.4605 4.052 0.205
70.4810 4.313 0.212
70.5014 4.229 0.210
70.5219 4.042 0.205
70.5424 3.667 0.195
70.5628 4.313 0.212
70.5833 4.000 0.204
70.6037 4.208 0.209
70.6242 3.896 0.201
70.6447 3.771 0.198
70.6651 4.094 0.207
70.6856 3.792 0.199
70.7061 4.000 0.204
70.7265 4.260 0.211
70.7470 4.240 0.210
70.7674 4.208 0.209
70.7879 3.698 0.196
70.8084 4.125 0.207
70.8288 3.990 0.204
70.8493 3.771 0.198
70.8698 3.844 0.200
70.8902 4.281 0.211
70.9107 3.802 0.199
70.9311 3.927 0.202
70.9516 3.854 0.200
70.9721 4.479 0.216
70.9925 4.375 0.213
71.0130 3.885 0.201
71.0335 3.875 0.201
71.0539 4.313 0.212
71.0744 4.146 0.208
71.0948 4.115 0.207
71.1153 4.125 0.207
71.1358 4.656 0.220
71.1562 3.781 0.198
71.1767 3.771 0.198
71.1972 3.958 0.203
71.2176 4.000 0.204
71.2381 3.521 0.192
71.2586 3.583 0.193
71.2790 3.667 0.195
71.2995 3.740 0.197
71.3199 3.719 0.197
71.3404 3.979 0.204
71.3609 4.063 0.206
71.3813 3.708 0.197
71.4018 4.031 0.205
71.4223 4.198 0.209
71.4427 4.125 0.207
71.4632 3.656 0.195
71.4836 3.969 0.203
71.5041 3.990 0.204
71.5246 4.292 0.211
71.5450 3.792 0.199
71.5655 3.917 0.202
71.5860 3.740 0.197
71.6064 3.781 0.198
71.6269 3.781 0.198
71.6473 3.938 0.203
71.6678 3.927 0.202
71.6883 3.802 0.199
71.7087 4.031 0.205
71.7292 3.646 0.195
71.7497 3.583 0.193
71.7701 3.948 0.203
71.7906 3.719 0.197
71.8110 3.802 0.199
71.8315 3.229 0.183
71.8520 3.896 0.201
71.8724 3.802 0.199
71.8929 3.458 0.190
71.9134 4.083 0.206
71.9338 3.823 0.200
71.9543 3.740 0.197
71.9747 3.656 0.195
71.9952 3.583 0.193
72.0157 4.094 0.207
72.0361 3.885 0.201
72.0566 3.948 0.203
72.0771 3.885 0.201
72.0975 3.646 0.195
72.1180 3.896 0.201
72.1385 3.688 0.196
72.1589 4.333 0.212
72.1794 3.823 0.200
72.1998 4.000 0.204
72.2203 4.229 0.210
72.2408 3.958 0.203
72.2612 3.917 0.202
72.2817 3.594 0.193
72.3022 3.760 0.198
72.3226 3.740 0.197
72.3431 4.000 0.204
72.3635 4.104 0.207
72.3840 3.563 0.193
72.4045 3.771 0.198
72.4249 3.740 0.197
72.4454 3.990 0.204
72.4659 3.875 0.201
72.4863 3.646 0.195
72.5068 3.833 0.200
72.5272 3.958 0.203
72.5477 3.813 0.199
72.5682 3.750 0.198
72.5886 3.927 0.202
72.6091 3.635 0.195
72.6296 4.031 0.205
72.6500 3.646 0.195
72.6705 3.698 0.196
72.6909 3.813 0.199
72.7114 3.802 0.199
72.7319 4.010 0.204
72.7523 3.875 0.201
72.7728 3.781 0.198
72.7933 3.844 0.200
72.8137 3.802 0.199
72.8342 4.188 0.209
72.8547 4.052 0.205
72.8751 4.021 0.205
72.8956 3.823 0.200
72.9160 3.958 0.203
72.9365 4.188 0.209
72.9570 3.969 0.203
72.9774 4.083 0.206
72.9979 3.958 0.203
73.0184 3.927 0.202
73.0388 3.979 0.204
73.0593 3.698 0.196
73.0797 4.083 0.206
73.1002 3.302 0.185
73.1207 3.833 0.200
73.1411 3.719 0.197
73.1616 3.969 0.203
73.1821 3.698 0.196
73.2025 3.563 0.193
73.2230 3.635 0.195
73.2434 3.385 0.188
73.2639 3.719 0.197
73.2844 3.875 0.201
73.3048 3.771 0.198
73.3253 3.781 0.198
73.3458 4.021 0.205
73.3662 3.781 0.198
73.3867 3.750 0.198
73.4071 3.802 0.199
73.4276 3.635 0.195
73.4481 3.448 0.190
73.4685 3.583 0.193
73.4890 3.365 0.187
73.5095 4.021 0.205
73.5299 3.750 0.198
73.5504 3.552 0.192
73.5708 3.469 0.190
73.5913 3.604 0.194
73.6118 3.854 0.200
73.6322 3.698 0.196
73.6527 3.604 0.194
73.6732 3.896 0.201
73.6936 4.250 0.210
73.7141 3.490 0.191
73.7346 3.781 0.198
73.7550 3.646 0.195
73.7755 3.427 0.189
73.7959 3.771 0.198
73.8164 3.948 0.203
73.8369 3.531 0.192
73.8573 3.396 0.188
73.8778 3.896 0.201
73.8983 3.490 0.191
73.9187 3.729 0.197
73.9392 4.167 0.208
73.9596 3.625 0.194
73.9801 4.313 0.212
74.0006 3.667 0.195
74.0210 3.906 0.202
74.0415 3.594 0.193
74.0620 3.813 0.199
74.0824 3.802 0.199
74.1029 3.677 0.196
74.1233 4.104 0.207
74.1438 3.969 0.203
74.1643 4.115 0.207
74.1847 3.635 0.195
74.2052 4.042 0.205
74.2257 3.719 0.197
74.2461 3.885 0.201
74.2666 3.729 0.197
74.2870 3.802 0.199
74.3075 3.760 0.198
74.3280 3.719 0.197
74.3484 3.781 0.198
74.3689 3.427 0.189
74.3894 3.906 0.202
74.4098 3.750 0.198
74.4303 3.677 0.196
74.4507 3.344 0.187
74.4712 3.792 0.199
74.4917 3.510 0.191
74.5121 3.802 0.199
74.5326 3.667 0.195
74.5531 3.740 0.197
74.5735 3.615 0.194
74.5940 3.469 0.190
74.6145 3.542 0.192
74.6349 3.396 0.188
74.6554 3.531 0.192
74.6758 3.792 0.199
74.6963 3.615 0.194
74.7168 3.406 0.188
74.7372 3.865 0.201
74.7577 3.927 0.202
74.7782 3.438 0.189
74.7986 3.500 0.191
74.8191 3.646 0.195
74.8395 3.531 0.192
74.8600 3.938 0.203
74.8805 3.438 0.189
74.9009 3.573 0.193
74.9214 4.010 0.204
74.9419 3.521 0.192
74.9623 3.958 0.203
74.9828 3.958 0.203
75.0032 3.531 0.192
75.0237 3.906 0.202
75.0442 3.677 0.196
75.0646 3.385 0.188
75.0851 3.615 0.194
75.1056 3.406 0.188
75.1260 3.615 0.194
75.1465 3.573 0.193
75.1669 3.698 0.196
75.1874 3.594 0.193
75.2079 3.667 0.195
75.2283 3.344 0.187
75.2488 3.906 0.202
75.2693 3.594 0.193
75.2897 3.396 0.188
75.3102 3.521 0.192
75.3306 3.958 0.203
75.3511 3.500 0.191
75.3716 3.625 0.194
75.3920 3.719 0.197
75.4125 3.969 0.203
75.4330 3.635 0.195
75.4534 4.031 0.205
75.4739 4.000 0.204
75.4944 3.781 0.198
75.5148 3.635 0.195
75.5353 3.469 0.190
75.5557 4.115 0.207
75.5762 3.823 0.200
75.5967 3.896 0.201
75.6171 3.750 0.198
75.6376 4.281 0.211
75.6581 3.990 0.204
75.6785 3.802 0.199
75.6990 4.500 0.217
75.7194 4.229 0.210
75.7399 4.208 0.209
75.7604 4.510 0.217
75.7808 5.323 0.235
75.8013 5.240 0.234
75.8218 5.198 0.233
75.8422 4.875 0.225
75.8627 4.958 0.227
75.8831 5.042 0.229
75.9036 4.583 0.219
75.9241 4.594 0.219
75.9445 4.354 0.213
75.9650 4.208 0.209
75.9855 4.760 0.223
76.0059 4.573 0.218
76.0264 4.594 0.219
76.0468 4.135 0.208
76.0673 4.531 0.217
76.0878 4.125 0.207
76.1082 4.510 0.217
76.1287 4.208 0.209
76.1492 3.917 0.202
76.1696 4.031 0.205
76.1901 3.635 0.195
76.2105 3.865 0.201
76.2310 4.323 0.212
76.2515 4.042 0.205
76.2719 3.781 0.198
76.2924 4.094 0.207
76.3129 3.760 0.198
76.3333 3.750 0.198
76.3538 3.729 0.197
76.3743 3.813 0.199
76.3947 3.458 0.190
76.4152 4.208 0.209
76.4356 3.469 0.190
76.4561 3.635 0.195
76.4766 4.010 0.204
76.4970 3.760 0.198
76.5175 3.573 0.193
76.5380 3.323 0.186
76.5584 3.458 0.190
76.5789 3.875 0.201
76.5993 4.115 0.207
76.6198 3.094 0.180
76.6403 3.792 0.199
76.6607 3.708 0.197
76.6812 3.854 0.200
76.7017 3.688 0.196
76.7221 3.667 0.195
76.7426 3.750 0.198
76.7630 3.427 0.189
76.7835 3.625 0.194
76.8040 3.844 0.200
76.8244 3.510 0.191
76.8449 3.719 0.197
76.8654 3.563 0.193
76.8858 3.385 0.188
76.9063 3.656 0.195
76.9267 3.740 0.197
76.9472 3.990 0.204
76.9677 3.698 0.196
76.9881 3.885 0.201
77.0086 3.615 0.194
77.0291 3.500 0.191
77.0495 3.729 0.197
77.0700 3.458 0.190
77.0905 3.521 0.192
77.1109 3.708 0.197
77.1314 3.604 0.194
77.1518 3.813 0.199
77.1723 3.323 0.186
77.1928 3.625 0.194
77.2132 3.875 0.201
77.2337 3.625 0.194
77.2542 3.438 0.189
77.2746 3.417 0.189
77.2951 3.813 0.199
77.3155 3.396 0.188
77.3360 3.490 0.191
77.3565 3.708 0.197
77.3769 3.646 0.195
77.3974 4.031 0.205
77.4179 4.073 0.206
77.4383 3.813 0.199
77.4588 3.823 0.200
77.4792 4.125 0.207
77.4997 4.156 0.208
77.5202 4.260 0.211
77.5406 3.875 0.201
77.5611 4.021 0.205
77.5816 3.927 0.202
77.6020 4.260 0.211
77.6225 4.323 0.212
77.6429 4.365 0.213
77.6634 4.094 0.207
77.6839 3.854 0.200
77.7043 4.406 0.214
77.7248 4.135 0.208
77.7453 4.073 0.206
77.7657 4.302 0.212
77.7862 4.208 0.209
77.8066 4.365 0.213
77.8271 4.490 0.216
77.8476 4.229 0.210
77.8680 4.375 0.213
77.8885 4.010 0.204
77.9090 3.979 0.204
77.9294 4.125 0.207
77.9499 4.042 0.205
77.9704 4.031 0.205
77.9908 3.917 0.202
78.0113 4.250 0.210
78.0317 4.146 0.208
78.0522 3.990 0.204
78.0727 4.146 0.208
78.0931 3.865 0.201
78.1136 4.000 0.204
78.1341 3.708 0.197
78.1545 3.896 0.201
78.1750 3.906 0.202
78.1954 3.854 0.200
78.2159 3.979 0.204
78.2364 3.875 0.201
78.2568 3.906 0.202
78.2773 3.917 0.202
78.2978 3.594 0.193
78.3182 3.635 0.195
78.3387 3.854 0.200
78.3591 3.583 0.193
78.3796 3.906 0.202
78.4001 3.760 0.198
78.4205 3.875 0.201
78.4410 4.094 0.207
78.4615 3.813 0.199
78.4819 3.615 0.194
78.5024 4.167 0.208
78.5228 3.635 0.195
78.5433 4.010 0.204
78.5638 3.885 0.201
78.5842 3.813 0.199
78.6047 4.052 0.205
78.6252 3.948 0.203
78.6456 4.115 0.207
78.6661 3.833 0.200
78.6865 3.875 0.201
78.7070 3.948 0.203
78.7275 3.729 0.197
78.7479 3.823 0.200
78.7684 3.667 0.195
78.7889 3.719 0.197
78.8093 3.698 0.196
78.8298 3.865 0.201
78.8503 4.167 0.208
78.8707 3.781 0.198
78.8912 3.896 0.201
78.9116 3.885 0.201
78.9321 3.719 0.197
78.9526 3.813 0.199
78.9730 4.010 0.204
78.9935 3.771 0.198
79.0140 3.490 0.191
79.0344 3.635 0.195
79.0549 3.729 0.197
79.0753 3.646 0.195
79.0958 3.646 0.195
79.1163 3.823 0.200
79.1367 3.865 0.201
79.1572 3.604 0.194
79.1777 3.719 0.197
79.1981 3.625 0.194
79.2186 3.948 0.203
79.2390 3.771 0.198
79.2595 3.708 0.197
79.2800 4.104 0.207
79.3004 3.552 0.192
79.3209 3.781 0.198
79.3414 3.875 0.201
79.3618 3.438 0.189
79.3823 3.427 0.189
79.4027 3.625 0.194
79.4232 3.854 0.200
79.4437 4.260 0.211
79.4641 3.813 0.199
79.4846 4.135 0.208
79.5051 3.625 0.194
79.5255 3.833 0.200
79.5460 4.031 0.205
79.5664 4.156 0.208
79.5869 3.740 0.197
79.6074 3.698 0.196
79.6278 3.552 0.192
79.6483 3.771 0.198
79.6688 4.073 0.206
79.6892 4.042 0.205
79.7097 4.146 0.208
79.7302 3.875 0.201
79.7506 4.167 0.208
79.7711 3.802 0.199
79.7915 3.646 0.195
79.8120 3.615 0.194
79.8325 3.927 0.202
79.8529 3.990 0.204
79.8734 3.906 0.202
79.8939 3.677 0.196
79.9143 3.458 0.190
79.9348 3.646 0.195
79.9552 3.875 0.201
79.9757 3.708 0.197
79.9962 3.771 0.198
