'Id: "" Comment: "" Operator: "Lab Manager" Anode: "Cu" Scantype: "Locked Coupled" TimePerStep: "96" X: "0" Y: "0" Z: "0" 
5.0000 19.885 0.455
5.0205 20.344 0.460
5.0409 20.083 0.457
5.0614 20.740 0.465
5.0819 20.354 0.460
5.1023 20.115 0.458
5.1228 20.438 0.461
5.1432 20.156 0.458
5.1637 20.406 0.461
5.1842 20.188 0.459
5.2046 20.365 0.461
5.2251 19.729 0.453
5.2456 20.354 0.460
5.2660 19.698 0.453
5.2865 19.146 0.447
5.3069 20.031 0.457
5.3274 19.896 0.455
5.3479 19.792 0.454
5.3683 19.938 0.456
5.3888 19.146 0.447
5.4093 19.333 0.449
5.4297 18.427 0.438
5.4502 18.083 0.434
5.4706 18.792 0.442
5.4911 19.542 0.451
5.5116 18.729 0.442
5.5320 19.052 0.445
5.5525 19.031 0.445
5.5730 18.906 0.444
5.5934 18.875 0.443
5.6139 18.292 0.437
5.6343 18.448 0.438
5.6548 18.667 0.441
5.6753 18.740 0.442
5.6957 18.750 0.442
5.7162 18.542 0.439
5.7367 18.521 0.439
5.7571 17.854 0.431
5.7776 17.656 0.429
5.7980 18.052 0.434
5.8185 18.844 0.443
5.8390 18.823 0.443
5.8594 17.760 0.430
5.8799 18.094 0.434
5.9004 17.938 0.432
5.9208 18.063 0.434
5.9413 17.688 0.429
5.9618 17.958 0.433
5.9822 17.917 0.432
6.0027 17.260 0.424
6.0231 17.563 0.428
6.0436 17.990 0.433
6.0641 17.896 0.432
6.0845 17.333 0.425
6.1050 16.958 0.420
6.1255 17.479 0.427
6.1459 18.365 0.437
6.1664 16.927 0.420
6.1868 16.771 0.418
6.2073 18.385 0.438
6.2278 17.646 0.429
6.2482 17.021 0.421
6.2687 17.052 0.421
6.2892 17.354 0.425
6.3096 17.583 0.428
6.3301 17.844 0.431
6.3505 18.083 0.434
6.3710 17.521 0.427
6.3915 17.552 0.428
6.4119 17.771 0.430
6.4324 18.469 0.439
6.4529 17.563 0.428
6.4733 17.313 0.425
6.4938 17.083 0.422
6.5142 17.792 0.430
6.5347 17.917 0.432
6.5552 17.063 0.422
6.5756 16.948 0.420
6.5961 17.927 0.432
6.6166 18.010 0.433
6.6370 17.750 0.430
6.6575 16.885 0.419
6.6779 17.573 0.428
6.6984 17.135 0.422
6.7189 17.344 0.425
6.7393 18.063 0.434
6.7598 17.448 0.426
6.7803 18.073 0.434
6.8007 18.313 0.437
6.8212 18.250 0.436
6.8417 18.396 0.438
6.8621 19.083 0.446
6.8826 19.146 0.447
6.9030 20.167 0.458
6.9235 20.458 0.462
6.9440 21.323 0.471
6.9644 21.885 0.477
6.9849 23.135 0.491
7.0054 25.677 0.517
7.0258 28.188 0.542
7.0463 31.427 0.572
7.0667 36.271 0.615
7.0872 39.677 0.643
7.1077 40.969 0.653
7.1281 39.354 0.640
7.1486 32.823 0.585
7.1691 29.156 0.551
7.1895 26.188 0.522
7.2100 25.375 0.514
7.2304 23.635 0.496
7.2509 22.177 0.481
7.2714 20.979 0.467
7.2918 21.010 0.468
7.3123 19.573 0.452
7.3328 19.771 0.454
7.3532 19.948 0.456
7.3737 18.875 0.443
7.3941 19.188 0.447
7.4146 18.656 0.441
7.4351 18.656 0.441
7.4555 18.281 0.436
7.4760 17.885 0.432
7.4965 18.427 0.438
7.5169 18.208 0.436
7.5374 18.333 0.437
7.5579 18.031 0.433
7.5783 17.531 0.427
7.5988 18.219 0.436
7.6192 17.615 0.428
7.6397 17.958 0.433
7.6602 17.698 0.429
7.6806 17.427 0.426
7.7011 19.240 0.448
7.7216 17.510 0.427
7.7420 18.115 0.434
7.7625 18.542 0.439
7.7829 17.458 0.426
7.8034 17.948 0.432
7.8239 17.740 0.430
7.8443 17.646 0.429
7.8648 18.115 0.434
7.8853 17.813 0.431
7.9057 17.969 0.433
7.9262 18.510 0.439
7.9466 18.667 0.441
7.9671 18.125 0.435
7.9876 18.365 0.437
8.0080 17.417 0.426
8.0285 18.573 0.440
8.0490 18.177 0.435
8.0694 17.865 0.431
8.0899 18.292 0.437
8.1103 18.000 0.433
8.1308 18.135 0.435
8.1513 18.396 0.438
8.1717 17.698 0.429
8.1922 19.135 0.446
8.2127 19.521 0.451
8.2331 19.115 0.446
8.2536 18.615 0.440
8.2740 18.979 0.445
8.2945 18.969 0.445
8.3150 18.896 0.444
8.3354 19.135 0.446
8.3559 18.698 0.441
8.3764 18.563 0.440
8.3968 18.396 0.438
8.4173 19.417 0.450
8.4378 19.854 0.455
8.4582 18.688 0.441
8.4787 19.333 0.449
8.4991 20.448 0.462
8.5196 19.771 0.454
8.5401 20.354 0.460
8.5605 20.479 0.462
8.5810 20.604 0.463
8.6015 20.875 0.466
8.6219 20.083 0.457
8.6424 20.354 0.460
8.6628 19.771 0.454
8.6833 19.854 0.455
8.7038 20.313 0.460
8.7242 20.802 0.465
8.7447 20.302 0.460
8.7652 20.073 0.457
8.7856 20.771 0.465
8.8061 20.396 0.461
8.8265 20.896 0.467
8.8470 21.917 0.478
8.8675 23.333 0.493
8.8879 23.250 0.492
8.9084 24.729 0.508
8.9289 25.167 0.512
8.9493 27.438 0.535
8.9698 28.646 0.546
8.9902 31.229 0.570
9.0107 37.865 0.628
9.0312 45.427 0.688
9.0516 55.771 0.762
9.0721 70.396 0.856
9.0926 81.583 0.922
9.1130 81.698 0.923
9.1335 61.583 0.801
9.1539 39.531 0.642
9.1744 28.031 0.540
9.1949 25.969 0.520
9.2153 24.719 0.507
9.2358 25.802 0.518
9.2563 25.021 0.511
9.2767 26.729 0.528
9.2972 26.896 0.529
9.3177 28.250 0.542
9.3381 27.906 0.539
9.3586 26.656 0.527
9.3790 28.219 0.542
9.3995 27.740 0.538
9.4200 28.760 0.547
9.4404 31.010 0.568
9.4609 30.563 0.564
9.4814 32.448 0.581
9.5018 35.708 0.610
9.5223 38.156 0.630
9.5427 41.635 0.659
9.5632 46.198 0.694
9.5837 50.573 0.726
9.6041 54.406 0.753
9.6246 60.219 0.792
9.6451 67.063 0.836
9.6655 71.813 0.865
9.6860 79.865 0.912
9.7064 89.927 0.968
9.7269 104.927 1.045
9.7474 125.375 1.143
9.7678 156.469 1.277
9.7883 206.167 1.465
9.8088 283.719 1.719
9.8292 408.771 2.063
9.8497 569.688 2.436
9.8701 785.875 2.861
9.8906 957.708 3.159
9.9111 970.052 3.179
9.9315 728.750 2.755
9.9520 413.760 2.076
9.9725 216.292 1.501
9.9929 142.042 1.216
10.0134 106.885 1.055
10.0338 89.229 0.964
10.0543 79.521 0.910
10.0748 70.896 0.859
10.0952 65.927 0.829
10.1157 59.521 0.787
10.1362 53.396 0.746
10.1566 47.146 0.701
10.1771 43.865 0.676
10.1976 38.969 0.637
10.2180 37.521 0.625
10.2385 36.000 0.612
10.2589 33.031 0.587
10.2794 32.635 0.583
10.2999 31.479 0.573
10.3203 29.531 0.555
10.3408 29.188 0.551
10.3613 28.719 0.547
10.3817 25.552 0.516
10.4022 26.469 0.525
10.4226 26.344 0.524
10.4431 24.625 0.506
10.4636 24.885 0.509
10.4840 23.177 0.491
10.5045 22.656 0.486
10.5250 23.490 0.495
10.5454 23.833 0.498
10.5659 22.385 0.483
10.5863 21.938 0.478
10.6068 21.521 0.473
10.6273 20.625 0.464
10.6477 21.979 0.478
10.6682 20.198 0.459
10.6887 19.698 0.453
10.7091 20.250 0.459
10.7296 19.906 0.455
10.7500 20.083 0.457
10.7705 19.698 0.453
10.7910 19.490 0.451
10.8114 19.198 0.447
10.8319 18.979 0.445
10.8524 18.688 0.441
10.8728 18.938 0.444
10.8933 18.708 0.441
10.9137 17.813 0.431
10.9342 18.094 0.434
10.9547 17.813 0.431
10.9751 17.760 0.430
10.9956 17.365 0.425
11.0161 17.750 0.430
11.0365 17.083 0.422
11.0570 17.073 0.422
11.0775 16.646 0.416
11.0979 15.813 0.406
11.1184 16.167 0.410
11.1388 15.031 0.396
11.1593 15.990 0.408
11.1798 15.115 0.397
11.2002 15.667 0.404
11.2207 15.260 0.399
11.2412 16.115 0.410
11.2616 15.688 0.404
11.2821 15.198 0.398
11.3025 15.042 0.396
11.3230 15.250 0.399
11.3435 14.938 0.394
11.3639 14.448 0.388
11.3844 15.042 0.396
11.4049 14.823 0.393
11.4253 14.177 0.384
11.4458 15.010 0.395
11.4662 14.365 0.387
11.4867 14.219 0.385
11.5072 14.438 0.388
11.5276 13.875 0.380
11.5481 13.521 0.375
11.5686 14.083 0.383
11.5890 14.115 0.383
11.6095 13.594 0.376
11.6299 13.667 0.377
11.6504 13.406 0.374
11.6709 13.531 0.375
11.6913 14.094 0.383
11.7118 13.698 0.378
11.7323 13.125 0.370
11.7527 13.115 0.370
11.7732 14.302 0.386
11.7937 13.188 0.371
11.8141 13.292 0.372
11.8346 12.875 0.366
11.8550 12.917 0.367
11.8755 12.354 0.359
11.8960 13.052 0.369
11.9164 12.573 0.362
11.9369 13.063 0.369
11.9574 12.469 0.360
11.9778 12.750 0.364
11.9983 12.156 0.356
12.0187 12.604 0.362
12.0392 12.000 0.354
12.0597 12.740 0.364
12.0801 12.844 0.366
12.1006 12.031 0.354
12.1211 13.073 0.369
12.1415 12.458 0.360
12.1620 12.063 0.354
12.1824 12.260 0.357
12.2029 12.427 0.360
12.2234 12.115 0.355
12.2438 12.948 0.367
12.2643 13.000 0.368
12.2848 12.333 0.358
12.3052 12.323 0.358
12.3257 12.104 0.355
12.3461 11.865 0.352
12.3666 11.156 0.341
12.3871 12.135 0.356
12.4075 11.854 0.351
12.4280 12.229 0.357
12.4485 11.667 0.349
12.4689 12.344 0.359
12.4894 11.281 0.343
12.5098 11.667 0.349
12.5303 11.594 0.348
12.5508 11.292 0.343
12.5712 10.594 0.332
12.5917 11.917 0.352
12.6122 11.490 0.346
12.6326 11.729 0.350
12.6531 11.792 0.350
12.6736 10.792 0.335
12.6940 11.302 0.343
12.7145 11.583 0.347
12.7349 11.219 0.342
12.7554 10.729 0.334
12.7759 10.521 0.331
12.7963 11.500 0.346
12.8168 10.677 0.333
12.8373 10.573 0.332
12.8577 10.948 0.338
12.8782 10.521 0.331
12.8986 10.760 0.335
12.9191 10.354 0.328
12.9396 10.573 0.332
12.9600 10.979 0.338
12.9805 10.521 0.331
13.0010 10.823 0.336
13.0214 10.792 0.335
13.0419 10.938 0.338
13.0623 10.417 0.329
13.0828 10.635 0.333
13.1033 11.031 0.339
13.1237 10.698 0.334
13.1442 10.385 0.329
13.1647 11.500 0.346
13.1851 10.510 0.331
13.2056 9.938 0.322
13.2260 10.760 0.335
13.2465 11.260 0.342
13.2670 10.823 0.336
13.2874 10.000 0.323
13.3079 10.240 0.327
13.3284 10.604 0.332
13.3488 10.188 0.326
13.3693 10.406 0.329
13.3897 10.396 0.329
13.4102 10.396 0.329
13.4307 10.146 0.325
13.4511 10.260 0.327
13.4716 9.906 0.321
13.4921 10.635 0.333
13.5125 10.469 0.330
13.5330 9.823 0.320
13.5535 10.281 0.327
13.5739 9.781 0.319
13.5944 10.281 0.327
13.6148 10.906 0.337
13.6353 10.396 0.329
13.6558 10.042 0.323
13.6762 10.365 0.329
13.6967 9.990 0.323
13.7172 10.094 0.324
13.7376 10.010 0.323
13.7581 10.927 0.337
13.7785 10.271 0.327
13.7990 10.750 0.335
13.8195 9.719 0.318
13.8399 10.135 0.325
13.8604 10.156 0.325
13.8809 9.927 0.322
13.9013 10.260 0.327
13.9218 10.240 0.327
13.9422 9.979 0.322
13.9627 9.875 0.321
13.9832 9.740 0.319
14.0036 9.583 0.316
14.0241 10.781 0.335
14.0446 10.531 0.331
14.0650 10.375 0.329
14.0855 11.177 0.341
14.1059 11.448 0.345
14.1264 12.323 0.358
14.1469 12.781 0.365
14.1673 13.667 0.377
14.1878 13.927 0.381
14.2083 14.042 0.382
14.2287 13.802 0.379
14.2492 12.917 0.367
14.2696 12.000 0.354
14.2901 12.104 0.355
14.3106 10.583 0.332
14.3310 10.896 0.337
14.3515 10.667 0.333
14.3720 10.698 0.334
14.3924 10.667 0.333
14.4129 10.344 0.328
14.4334 10.354 0.328
14.4538 9.917 0.321
14.4743 10.146 0.325
14.4947 10.010 0.323
14.5152 10.031 0.323
14.5357 9.417 0.313
14.5561 10.031 0.323
14.5766 8.625 0.300
14.5971 9.313 0.311
14.6175 9.417 0.313
14.6380 9.083 0.308
14.6584 9.604 0.316
14.6789 9.844 0.320
14.6994 9.792 0.319
14.7198 9.406 0.313
14.7403 9.750 0.319
14.7608 9.344 0.312
14.7812 9.115 0.308
14.8017 9.469 0.314
14.8221 9.271 0.311
14.8426 9.688 0.318
14.8631 9.010 0.306
14.8835 9.490 0.314
14.9040 9.240 0.310
14.9245 9.521 0.315
14.9449 9.052 0.307
14.9654 9.260 0.311
14.9858 9.417 0.313
15.0063 9.188 0.309
15.0268 9.667 0.317
15.0472 9.208 0.310
15.0677 9.250 0.310
15.0882 9.646 0.317
15.1086 9.729 0.318
15.1291 9.417 0.313
15.1495 8.542 0.298
15.1700 9.500 0.315
15.1905 9.667 0.317
15.2109 9.156 0.309
15.2314 9.063 0.307
15.2519 9.115 0.308
15.2723 9.646 0.317
15.2928 10.135 0.325
15.3133 9.792 0.319
15.3337 9.844 0.320
15.3542 10.292 0.327
15.3746 9.906 0.321
15.3951 9.948 0.322
15.4156 9.229 0.310
15.4360 9.719 0.318
15.4565 9.667 0.317
15.4770 9.427 0.313
15.4974 9.500 0.315
15.5179 9.573 0.316
15.5383 10.219 0.326
15.5588 9.208 0.310
15.5793 9.813 0.320
15.5997 10.052 0.324
15.6202 10.094 0.324
15.6407 10.333 0.328
15.6611 10.625 0.333
15.6816 11.844 0.351
15.7020 12.823 0.365
15.7225 15.896 0.407
15.7430 20.917 0.467
15.7634 28.406 0.544
15.7839 32.885 0.585
15.8044 29.698 0.556
15.8248 22.448 0.484
15.8453 16.427 0.414
15.8657 11.875 0.352
15.8862 11.031 0.339
15.9067 10.375 0.329
15.9271 9.844 0.320
15.9476 9.865 0.321
15.9681 9.729 0.318
15.9885 9.698 0.318
16.0090 9.156 0.309
16.0295 9.406 0.313
16.0499 9.760 0.319
16.0704 9.500 0.315
16.0908 9.073 0.307
16.1113 8.854 0.304
16.1318 9.823 0.320
16.1522 8.365 0.295
16.1727 8.896 0.304
16.1932 8.792 0.303
16.2136 8.979 0.306
16.2341 9.719 0.318
16.2545 9.104 0.308
16.2750 8.552 0.298
16.2955 8.688 0.301
16.3159 9.042 0.307
16.3364 8.667 0.300
16.3569 8.823 0.303
16.3773 8.823 0.303
16.3978 9.188 0.309
16.4182 8.865 0.304
16.4387 9.094 0.308
16.4592 9.010 0.306
16.4796 9.104 0.308
16.5001 9.052 0.307
16.5206 8.760 0.302
16.5410 8.969 0.306
16.5615 9.052 0.307
16.5819 9.167 0.309
16.6024 8.625 0.300
16.6229 9.135 0.308
16.6433 9.479 0.314
16.6638 9.396 0.313
16.6843 9.063 0.307
16.7047 9.313 0.311
16.7252 8.958 0.305
16.7456 8.708 0.301
16.7661 8.823 0.303
16.7866 9.656 0.317
16.8070 9.052 0.307
16.8275 9.719 0.318
16.8480 9.208 0.310
16.8684 9.354 0.312
16.8889 9.094 0.308
16.9094 10.052 0.324
16.9298 9.604 0.316
16.9503 9.708 0.318
16.9707 9.729 0.318
16.9912 10.406 0.329
17.0117 9.917 0.321
17.0321 9.281 0.311
17.0526 10.438 0.330
17.0731 10.302 0.328
17.0935 10.219 0.326
17.1140 10.292 0.327
17.1344 9.042 0.307
17.1549 9.708 0.318
17.1754 9.917 0.321
17.1958 9.708 0.318
17.2163 9.563 0.316
17.2368 9.760 0.319
17.2572 10.427 0.330
17.2777 10.313 0.328
17.2981 10.531 0.331
17.3186 10.563 0.332
17.3391 10.385 0.329
17.3595 9.979 0.322
17.3800 10.219 0.326
17.4005 10.656 0.333
17.4209 10.729 0.334
17.4414 10.656 0.333
17.4618 10.229 0.326
17.4823 10.604 0.332
17.5028 10.625 0.333
17.5232 10.646 0.333
17.5437 10.813 0.336
17.5642 10.948 0.338
17.5846 11.177 0.341
17.6051 10.604 0.332
17.6255 11.385 0.344
17.6460 11.490 0.346
17.6665 11.313 0.343
17.6869 11.208 0.342
17.7074 12.031 0.354
17.7279 11.906 0.352
17.7483 12.302 0.358
17.7688 13.260 0.372
17.7893 14.240 0.385
17.8097 16.115 0.410
17.8302 17.083 0.422
17.8506 15.875 0.407
17.8711 14.781 0.392
17.8916 14.375 0.387
17.9120 14.813 0.393
17.9325 14.479 0.388
17.9530 14.125 0.384
17.9734 13.531 0.375
17.9939 13.917 0.381
18.0143 13.698 0.378
18.0348 14.510 0.389
18.0553 15.188 0.398
18.0757 15.719 0.405
18.0962 15.813 0.406
18.1167 16.906 0.420
18.1371 17.052 0.421
18.1576 16.156 0.410
18.1780 15.406 0.401
18.1985 16.354 0.413
18.2190 16.219 0.411
18.2394 16.938 0.420
18.2599 17.531 0.427
18.2804 17.135 0.422
18.3008 16.531 0.415
18.3213 16.615 0.416
18.3417 16.938 0.420
18.3622 17.458 0.426
18.3827 17.708 0.429
18.4031 18.740 0.442
18.4236 17.510 0.427
18.4441 17.594 0.428
18.4645 18.229 0.436
18.4850 18.073 0.434
18.5054 17.802 0.431
18.5259 17.958 0.433
18.5464 17.073 0.422
18.5668 17.708 0.429
18.5873 18.073 0.434
18.6078 17.635 0.429
18.6282 17.240 0.424
18.6487 17.115 0.422
18.6692 17.115 0.422
18.6896 17.281 0.424
18.7101 16.500 0.415
18.7305 16.885 0.419
18.7510 16.063 0.409
18.7715 16.063 0.409
18.7919 16.885 0.419
18.8124 17.031 0.421
18.8329 17.323 0.425
18.8533 18.563 0.440
18.8738 20.792 0.465
18.8942 21.010 0.468
18.9147 20.146 0.458
18.9352 18.969 0.445
18.9556 17.469 0.427
18.9761 14.521 0.389
18.9966 14.010 0.382
19.0170 13.792 0.379
19.0375 13.198 0.371
19.0579 14.094 0.383
19.0784 13.521 0.375
19.0989 13.198 0.371
19.1193 13.844 0.380
19.1398 12.635 0.363
19.1603 14.448 0.388
19.1807 13.323 0.373
19.2012 14.844 0.393
19.2216 13.927 0.381
19.2421 14.177 0.384
19.2626 14.771 0.392
19.2830 13.823 0.379
19.3035 13.365 0.373
19.3240 13.490 0.375
19.3444 13.510 0.375
19.3649 14.281 0.386
19.3853 14.365 0.387
19.4058 14.146 0.384
19.4263 14.240 0.385
19.4467 14.500 0.389
19.4672 14.740 0.392
19.4877 15.052 0.396
19.5081 15.990 0.408
19.5286 16.375 0.413
19.5491 17.188 0.423
19.5695 17.885 0.432
19.5900 19.469 0.450
19.6104 20.979 0.467
19.6309 20.698 0.464
19.6514 23.260 0.492
19.6718 23.646 0.496
19.6923 26.125 0.522
19.7128 28.771 0.547
19.7332 33.583 0.591
19.7537 41.958 0.661
19.7741 55.458 0.760
19.7946 77.427 0.898
19.8151 115.271 1.096
19.8355 168.688 1.326
19.8560 199.010 1.440
19.8765 168.125 1.323
19.8969 137.385 1.196
19.9174 104.135 1.042
19.9378 64.750 0.821
19.9583 43.875 0.676
19.9788 33.823 0.594
19.9992 29.135 0.551
20.0197 26.302 0.523
20.0402 23.990 0.500
20.0606 22.938 0.489
20.0811 20.813 0.466
20.1015 20.063 0.457
20.1220 19.260 0.448
20.1425 18.021 0.433
20.1629 17.688 0.429
20.1834 18.250 0.436
20.2039 17.438 0.426
20.2243 16.969 0.420
20.2448 17.010 0.421
20.2653 16.813 0.418
20.2857 16.854 0.419
20.3062 16.010 0.408
20.3266 16.969 0.420
20.3471 16.521 0.415
20.3676 16.042 0.409
20.3880 16.896 0.420
20.4085 16.583 0.416
20.4290 16.979 0.421
20.4494 16.135 0.410
20.4699 15.677 0.404
20.4903 15.750 0.405
20.5108 15.760 0.405
20.5313 15.990 0.408
20.5517 15.698 0.404
20.5722 15.073 0.396
20.5927 15.229 0.398
20.6131 14.396 0.387
20.6336 14.510 0.389
20.6540 13.729 0.378
20.6745 13.323 0.373
20.6950 13.792 0.379
20.7154 13.750 0.378
20.7359 12.688 0.364
20.7564 13.188 0.371
20.7768 13.302 0.372
20.7973 12.156 0.356
20.8177 12.813 0.365
20.8382 11.698 0.349
20.8587 11.604 0.348
20.8791 11.885 0.352
20.8996 11.104 0.340
20.9201 11.417 0.345
20.9405 12.031 0.354
20.9610 10.979 0.338
20.9814 11.688 0.349
21.0019 11.219 0.342
21.0224 11.115 0.340
21.0428 11.500 0.346
21.0633 10.667 0.333
21.0838 10.469 0.330
21.1042 10.750 0.335
21.1247 11.542 0.347
21.1452 10.813 0.336
21.1656 11.292 0.343
21.1861 10.719 0.334
21.2065 10.573 0.332
21.2270 11.333 0.344
21.2475 12.063 0.354
21.2679 11.365 0.344
21.2884 12.052 0.354
21.3089 13.354 0.373
21.3293 14.698 0.391
21.3498 14.417 0.388
21.3702 13.802 0.379
21.3907 14.240 0.385
21.4112 13.854 0.380
21.4316 13.323 0.373
21.4521 12.969 0.368
21.4726 12.792 0.365
21.4930 12.771 0.365
21.5135 11.427 0.345
21.5339 11.500 0.346
21.5544 11.302 0.343
21.5749 11.146 0.341
21.5953 10.510 0.331
21.6158 10.146 0.325
21.6363 10.729 0.334
21.6567 10.083 0.324
21.6772 10.292 0.327
21.6976 10.323 0.328
21.7181 9.521 0.315
21.7386 9.833 0.320
21.7590 9.646 0.317
21.7795 9.208 0.310
21.8000 10.021 0.323
21.8204 9.396 0.313
21.8409 9.625 0.317
21.8613 9.688 0.318
21.8818 10.125 0.325
21.9023 9.979 0.322
21.9227 10.531 0.331
21.9432 9.885 0.321
21.9637 10.417 0.329
21.9841 10.448 0.330
22.0046 10.625 0.333
22.0251 11.177 0.341
22.0455 11.948 0.353
22.0660 12.448 0.360
22.0864 14.354 0.387
22.1069 15.615 0.403
22.1274 16.740 0.418
22.1478 20.240 0.459
22.1683 25.073 0.511
22.1888 30.521 0.564
22.2092 34.906 0.603
22.2297 33.094 0.587
22.2501 30.823 0.567
22.2706 27.406 0.534
22.2911 21.615 0.475
22.3115 17.917 0.432
22.3320 15.969 0.408
22.3525 14.135 0.384
22.3729 13.594 0.376
22.3934 11.896 0.352
22.4138 11.990 0.353
22.4343 11.208 0.342
22.4548 11.615 0.348
22.4752 10.313 0.328
22.4957 10.500 0.331
22.5162 10.396 0.329
22.5366 10.448 0.330
22.5571 10.063 0.324
22.5775 9.479 0.314
22.5980 9.750 0.319
22.6185 9.563 0.316
22.6389 9.458 0.314
22.6594 10.083 0.324
22.6799 9.458 0.314
22.7003 9.844 0.320
22.7208 9.438 0.314
22.7412 9.167 0.309
22.7617 9.458 0.314
22.7822 9.479 0.314
22.8026 9.927 0.322
22.8231 10.344 0.328
22.8436 10.594 0.332
22.8640 12.365 0.359
22.8845 14.927 0.394
22.9050 18.750 0.442
22.9254 18.760 0.442
22.9459 16.073 0.409
22.9663 14.740 0.392
22.9868 14.198 0.385
23.0073 11.042 0.339
23.0277 9.667 0.317
23.0482 9.646 0.317
23.0687 9.323 0.312
23.0891 8.969 0.306
23.1096 9.510 0.315
23.1300 8.938 0.305
23.1505 8.875 0.304
23.1710 8.542 0.298
23.1914 9.208 0.310
23.2119 8.021 0.289
23.2324 8.323 0.294
23.2528 8.458 0.297
23.2733 8.031 0.289
23.2937 8.573 0.299
23.3142 7.906 0.287
23.3347 8.385 0.296
23.3551 7.323 0.276
23.3756 7.990 0.288
23.3961 8.302 0.294
23.4165 8.250 0.293
23.4370 7.896 0.287
23.4574 8.104 0.291
23.4779 8.000 0.289
23.4984 8.396 0.296
23.5188 8.542 0.298
23.5393 8.708 0.301
23.5598 8.125 0.291
23.5802 8.219 0.293
23.6007 8.396 0.296
23.6211 8.646 0.300
23.6416 8.708 0.301
23.6621 9.240 0.310
23.6825 11.375 0.344
23.7030 12.042 0.354
23.7235 11.177 0.341
23.7439 10.948 0.338
23.7644 9.896 0.321
23.7849 9.146 0.309
23.8053 7.750 0.284
23.8258 8.115 0.291
23.8462 7.656 0.282
23.8667 8.500 0.298
23.8872 7.688 0.283
23.9076 7.521 0.280
23.9281 7.896 0.287
23.9486 8.052 0.290
23.9690 8.375 0.295
23.9895 7.448 0.279
24.0099 7.771 0.285
24.0304 7.813 0.285
24.0509 7.760 0.284
24.0713 8.229 0.293
24.0918 7.792 0.285
24.1123 7.802 0.285
24.1327 7.885 0.287
24.1532 7.781 0.285
24.1736 8.688 0.301
24.1941 8.917 0.305
24.2146 8.271 0.294
24.2350 8.792 0.303
24.2555 8.448 0.297
24.2760 9.198 0.310
24.2964 9.198 0.310
24.3169 9.323 0.312
24.3373 9.885 0.321
24.3578 10.448 0.330
24.3783 9.625 0.317
24.3987 10.135 0.325
24.4192 9.760 0.319
24.4397 8.531 0.298
24.4601 8.531 0.298
24.4806 8.865 0.304
24.5011 7.969 0.288
24.5215 8.219 0.293
24.5420 8.333 0.295
24.5624 7.854 0.286
24.5829 7.781 0.285
24.6034 8.229 0.293
24.6238 8.281 0.294
24.6443 8.542 0.298
24.6648 8.583 0.299
24.6852 9.750 0.319
24.7057 8.896 0.304
24.7261 8.760 0.302
24.7466 8.531 0.298
24.7671 8.458 0.297
24.7875 8.031 0.289
24.8080 7.271 0.275
24.8285 7.448 0.279
24.8489 7.302 0.276
24.8694 7.333 0.276
24.8898 7.104 0.272
24.9103 6.729 0.265
24.9308 7.792 0.285
24.9512 6.854 0.267
24.9717 7.635 0.282
24.9922 7.344 0.277
25.0126 7.469 0.279
25.0331 7.125 0.272
25.0535 7.552 0.280
25.0740 7.396 0.278
25.0945 7.552 0.280
25.1149 7.531 0.280
25.1354 7.417 0.278
25.1559 7.438 0.278
25.1763 7.448 0.279
25.1968 6.708 0.264
25.2172 7.063 0.271
25.2377 7.333 0.276
25.2582 7.229 0.274
25.2786 7.281 0.275
25.2991 6.969 0.269
25.3196 7.083 0.272
25.3400 7.094 0.272
25.3605 7.958 0.288
25.3810 7.667 0.283
25.4014 7.125 0.272
25.4219 7.281 0.275
25.4423 7.510 0.280
25.4628 7.531 0.280
25.4833 8.042 0.289
25.5037 7.948 0.288
25.5242 8.125 0.291
25.5447 9.104 0.308
25.5651 10.438 0.330
25.5856 12.823 0.365
25.6060 12.083 0.355
25.6265 11.135 0.341
25.6470 10.750 0.335
25.6674 10.781 0.335
25.6879 9.250 0.310
25.7084 8.792 0.303
25.7288 7.875 0.286
25.7493 7.927 0.287
25.7697 7.583 0.281
25.7902 7.521 0.280
25.8107 6.708 0.264
25.8311 7.396 0.278
25.8516 7.625 0.282
25.8721 7.646 0.282
25.8925 7.240 0.275
25.9130 7.198 0.274
25.9334 6.927 0.269
25.9539 7.365 0.277
25.9744 7.250 0.275
25.9948 7.417 0.278
26.0153 7.135 0.273
26.0358 7.271 0.275
26.0562 7.156 0.273
26.0767 7.552 0.280
26.0971 7.844 0.286
26.1176 7.635 0.282
26.1381 6.948 0.269
26.1585 7.563 0.281
26.1790 7.146 0.273
26.1995 7.635 0.282
26.2199 7.729 0.284
26.2404 7.531 0.280
26.2609 7.021 0.270
26.2813 7.052 0.271
26.3018 7.448 0.279
26.3222 7.010 0.270
26.3427 6.948 0.269
26.3632 7.333 0.276
26.3836 7.219 0.274
26.4041 7.500 0.280
26.4246 7.167 0.273
26.4450 6.792 0.266
26.4655 7.094 0.272
26.4859 7.531 0.280
26.5064 6.948 0.269
26.5269 6.917 0.268
26.5473 7.000 0.270
26.5678 7.427 0.278
26.5883 7.354 0.277
26.6087 6.885 0.268
26.6292 7.063 0.271
26.6496 7.156 0.273
26.6701 6.500 0.260
26.6906 6.760 0.265
26.7110 7.115 0.272
26.7315 7.135 0.273
26.7520 7.208 0.274
26.7724 6.760 0.265
26.7929 7.417 0.278
26.8133 6.844 0.267
26.8338 7.375 0.277
26.8543 7.135 0.273
26.8747 7.510 0.280
26.8952 7.417 0.278
26.9157 6.688 0.264
26.9361 7.208 0.274
26.9566 6.792 0.266
26.9770 7.219 0.274
26.9975 7.510 0.280
27.0180 6.927 0.269
27.0384 7.271 0.275
27.0589 6.979 0.270
27.0794 6.885 0.268
27.0998 7.250 0.275
27.1203 6.979 0.270
27.1408 6.938 0.269
27.1612 6.969 0.269
27.1817 6.833 0.267
27.2021 7.073 0.271
27.2226 7.781 0.285
27.2431 8.063 0.290
27.2635 7.688 0.283
27.2840 7.656 0.282
27.3045 8.167 0.292
27.3249 7.979 0.288
27.3454 8.000 0.289
27.3658 7.854 0.286
27.3863 7.708 0.283
27.4068 7.646 0.282
27.4272 8.406 0.296
27.4477 9.146 0.309
27.4682 9.708 0.318
27.4886 11.031 0.339
27.5091 10.229 0.326
27.5295 9.833 0.320
27.5500 9.563 0.316
27.5705 9.208 0.310
27.5909 8.302 0.294
27.6114 7.281 0.275
27.6319 7.354 0.277
27.6523 7.146 0.273
27.6728 7.219 0.274
27.6932 6.792 0.266
27.7137 7.219 0.274
27.7342 6.958 0.269
27.7546 7.177 0.273
27.7751 7.177 0.273
27.7956 7.125 0.272
27.8160 7.344 0.277
27.8365 7.010 0.270
27.8569 6.698 0.264
27.8774 6.958 0.269
27.8979 7.563 0.281
27.9183 7.167 0.273
27.9388 6.833 0.267
27.9593 6.760 0.265
27.9797 6.948 0.269
28.0002 7.167 0.273
28.0207 7.198 0.274
28.0411 6.875 0.268
28.0616 6.875 0.268
28.0820 7.104 0.272
28.1025 6.479 0.260
28.1230 7.177 0.273
28.1434 6.406 0.258
28.1639 7.031 0.271
28.1844 7.073 0.271
28.2048 7.333 0.276
28.2253 6.229 0.255
28.2457 6.552 0.261
28.2662 6.573 0.262
28.2867 6.458 0.259
28.3071 6.885 0.268
28.3276 6.229 0.255
28.3481 6.385 0.258
28.3685 7.313 0.276
28.3890 6.969 0.269
28.4094 6.604 0.262
28.4299 6.781 0.266
28.4504 6.458 0.259
28.4708 6.552 0.261
28.4913 6.719 0.265
28.5118 6.833 0.267
28.5322 6.563 0.261
28.5527 6.750 0.265
28.5731 7.063 0.271
28.5936 6.990 0.270
28.6141 6.656 0.263
28.6345 6.531 0.261
28.6550 6.615 0.262
28.6755 6.927 0.269
28.6959 7.021 0.270
28.7164 6.604 0.262
28.7368 6.365 0.257
28.7573 6.917 0.268
28.7778 6.740 0.265
28.7982 6.219 0.255
28.8187 7.063 0.271
28.8392 6.792 0.266
28.8596 6.792 0.266
28.8801 6.490 0.260
28.9006 6.760 0.265
28.9210 6.073 0.252
28.9415 6.698 0.264
28.9619 6.552 0.261
28.9824 6.917 0.268
29.0029 6.896 0.268
29.0233 6.646 0.263
29.0438 6.552 0.261
29.0643 6.781 0.266
29.0847 7.063 0.271
29.1052 6.781 0.266
29.1256 6.583 0.262
29.1461 6.156 0.253
29.1666 6.479 0.260
29.1870 7.125 0.272
29.2075 6.448 0.259
29.2280 6.479 0.260
29.2484 6.615 0.262
29.2689 6.917 0.268
29.2893 6.719 0.265
29.3098 6.865 0.267
29.3303 6.833 0.267
29.3507 6.771 0.266
29.3712 6.938 0.269
29.3917 6.719 0.265
29.4121 6.688 0.264
29.4326 6.490 0.260
29.4530 6.969 0.269
29.4735 6.917 0.268
29.4940 6.385 0.258
29.5144 6.281 0.256
29.5349 6.635 0.263
29.5554 7.083 0.272
29.5758 7.427 0.278
29.5963 7.323 0.276
29.6168 7.979 0.288
29.6372 6.979 0.270
29.6577 7.229 0.274
29.6781 7.073 0.271
29.6986 7.240 0.275
29.7191 6.500 0.260
29.7395 6.552 0.261
29.7600 6.573 0.262
29.7805 6.802 0.266
29.8009 6.844 0.267
29.8214 7.031 0.271
29.8418 6.302 0.256
29.8623 6.469 0.260
29.8828 6.573 0.262
29.9032 6.667 0.264
29.9237 6.229 0.255
29.9442 6.740 0.265
29.9646 6.542 0.261
29.9851 6.688 0.264
30.0055 7.010 0.270
30.0260 6.375 0.258
30.0465 7.021 0.270
30.0669 6.615 0.262
30.0874 6.510 0.260
30.1079 6.177 0.254
30.1283 6.458 0.259
30.1488 6.083 0.252
30.1692 6.479 0.260
30.1897 6.542 0.261
30.2102 6.365 0.257
30.2306 6.208 0.254
30.2511 6.240 0.255
30.2716 6.521 0.261
30.2920 5.990 0.250
30.3125 6.125 0.253
30.3329 5.948 0.249
30.3534 5.823 0.246
30.3739 6.208 0.254
30.3943 6.229 0.255
30.4148 6.542 0.261
30.4353 6.573 0.262
30.4557 6.729 0.265
30.4762 6.281 0.256
30.4967 6.927 0.269
30.5171 5.823 0.246
30.5376 6.042 0.251
30.5580 6.448 0.259
30.5785 6.417 0.259
30.5990 5.844 0.247
30.6194 6.448 0.259
30.6399 6.688 0.264
30.6604 6.500 0.260
30.6808 7.000 0.270
30.7013 6.521 0.261
30.7217 6.969 0.269
30.7422 7.458 0.279
30.7627 6.531 0.261
30.7831 7.240 0.275
30.8036 6.875 0.268
30.8241 7.354 0.277
30.8445 7.427 0.278
30.8650 7.917 0.287
30.8854 8.646 0.300
30.9059 8.708 0.301
30.9264 9.573 0.316
30.9468 11.354 0.344
30.9673 12.729 0.364
30.9878 17.271 0.424
31.0082 21.969 0.478
31.0287 26.958 0.530
31.0491 28.531 0.545
31.0696 27.521 0.535
31.0901 24.990 0.510
31.1105 23.135 0.491
31.1310 20.604 0.463
31.1515 16.854 0.419
31.1719 14.677 0.391
31.1924 11.948 0.353
31.2128 10.479 0.330
31.2333 9.260 0.311
31.2538 9.063 0.307
31.2742 8.531 0.298
31.2947 7.969 0.288
31.3152 7.760 0.284
31.3356 8.323 0.294
31.3561 8.573 0.299
31.3766 7.948 0.288
31.3970 8.292 0.294
31.4175 7.354 0.277
31.4379 6.625 0.263
31.4584 7.573 0.281
31.4789 7.385 0.277
31.4993 7.083 0.272
31.5198 6.948 0.269
31.5403 6.635 0.263
31.5607 6.792 0.266
31.5812 6.135 0.253
31.6016 6.448 0.259
31.6221 6.708 0.264
31.6426 6.323 0.257
31.6630 6.563 0.261
31.6835 6.365 0.257
31.7040 6.573 0.262
31.7244 6.448 0.259
31.7449 6.823 0.267
31.7653 6.802 0.266
31.7858 6.552 0.261
31.8063 7.208 0.274
31.8267 7.813 0.285
31.8472 7.875 0.286
31.8677 7.260 0.275
31.8881 7.302 0.276
31.9086 7.333 0.276
31.9290 7.073 0.271
31.9495 7.375 0.277
31.9700 7.094 0.272
31.9904 7.427 0.278
32.0109 6.990 0.270
32.0314 7.740 0.284
32.0518 8.385 0.296
32.0723 8.760 0.302
32.0927 9.208 0.310
32.1132 8.958 0.305
32.1337 10.083 0.324
32.1541 10.740 0.334
32.1746 11.021 0.339
32.1951 12.354 0.359
32.2155 14.188 0.384
32.2360 14.635 0.390
32.2565 13.177 0.370
32.2769 12.042 0.354
32.2974 11.323 0.343
32.3178 11.521 0.346
32.3383 9.844 0.320
32.3588 8.802 0.303
32.3792 7.906 0.287
32.3997 8.271 0.294
32.4202 7.750 0.284
32.4406 7.990 0.288
32.4611 8.552 0.298
32.4815 8.229 0.293
32.5020 8.156 0.291
32.5225 8.698 0.301
32.5429 9.104 0.308
32.5634 10.073 0.324
32.5839 11.417 0.345
32.6043 14.198 0.385
32.6248 13.781 0.379
32.6452 15.417 0.401
32.6657 14.594 0.390
32.6862 14.365 0.387
32.7066 13.625 0.377
32.7271 12.708 0.364
32.7476 11.708 0.349
32.7680 10.240 0.327
32.7885 9.448 0.314
32.8089 9.198 0.310
32.8294 8.000 0.289
32.8499 7.802 0.285
32.8703 7.854 0.286
32.8908 7.354 0.277
32.9113 7.635 0.282
32.9317 7.688 0.283
32.9522 7.417 0.278
32.9726 7.240 0.275
32.9931 7.688 0.283
33.0136 7.188 0.274
33.0340 7.094 0.272
33.0545 7.177 0.273
33.0750 6.854 0.267
33.0954 7.302 0.276
33.1159 7.625 0.282
33.1364 6.615 0.262
33.1568 7.896 0.287
33.1773 7.083 0.272
33.1977 6.969 0.269
33.2182 7.406 0.278
33.2387 7.188 0.274
33.2591 6.896 0.268
33.2796 7.396 0.278
33.3001 6.833 0.267
33.3205 6.823 0.267
33.3410 6.844 0.267
33.3614 7.479 0.279
33.3819 6.927 0.269
33.4024 7.417 0.278
33.4228 7.323 0.276
33.4433 7.510 0.280
33.4638 7.125 0.272
33.4842 7.292 0.276
33.5047 6.604 0.262
33.5251 6.875 0.268
33.5456 6.208 0.254
33.5661 6.281 0.256
33.5865 6.698 0.264
33.6070 6.198 0.254
33.6275 6.417 0.259
33.6479 6.000 0.250
33.6684 6.323 0.257
33.6888 6.292 0.256
33.7093 6.646 0.263
33.7298 6.969 0.269
33.7502 7.219 0.274
33.7707 7.281 0.275
33.7912 6.865 0.267
33.8116 6.375 0.258
33.8321 6.844 0.267
33.8526 6.708 0.264
33.8730 6.135 0.253
33.8935 6.510 0.260
33.9139 6.615 0.262
33.9344 6.135 0.253
33.9549 6.802 0.266
33.9753 6.052 0.251
33.9958 6.573 0.262
34.0163 6.615 0.262
34.0367 6.042 0.251
34.0572 6.438 0.259
34.0776 6.344 0.257
34.0981 6.531 0.261
34.1186 6.813 0.266
34.1390 6.615 0.262
34.1595 6.813 0.266
34.1800 7.188 0.274
34.2004 8.479 0.297
34.2209 9.490 0.314
34.2413 10.927 0.337
34.2618 10.396 0.329
34.2823 9.229 0.310
34.3027 9.417 0.313
34.3232 10.073 0.324
34.3437 9.240 0.310
34.3641 8.802 0.303
34.3846 7.625 0.282
34.4050 7.667 0.283
34.4255 7.490 0.279
34.4460 7.115 0.272
34.4664 6.469 0.260
34.4869 6.677 0.264
34.5074 6.396 0.258
34.5278 6.417 0.259
34.5483 6.208 0.254
34.5687 6.250 0.255
34.5892 6.875 0.268
34.6097 6.135 0.253
34.6301 6.927 0.269
34.6506 6.323 0.257
34.6711 6.188 0.254
34.6915 6.490 0.260
34.7120 6.302 0.256
34.7325 6.365 0.257
34.7529 6.844 0.267
34.7734 6.604 0.262
34.7938 6.156 0.253
34.8143 6.656 0.263
34.8348 7.073 0.271
34.8552 6.688 0.264
34.8757 7.177 0.273
34.8962 7.708 0.283
34.9166 8.760 0.302
34.9371 11.250 0.342
34.9575 13.635 0.377
34.9780 14.031 0.382
34.9985 12.177 0.356
35.0189 10.219 0.326
35.0394 11.125 0.340
35.0599 10.844 0.336
35.0803 9.448 0.314
35.1008 8.469 0.297
35.1212 7.385 0.277
35.1417 7.292 0.276
35.1622 6.646 0.263
35.1826 6.833 0.267
35.2031 7.031 0.271
35.2236 6.875 0.268
35.2440 6.594 0.262
35.2645 6.333 0.257
35.2849 6.635 0.263
35.3054 6.792 0.266
35.3259 6.625 0.263
35.3463 6.250 0.255
35.3668 5.844 0.247
35.3873 6.531 0.261
35.4077 6.490 0.260
35.4282 6.833 0.267
35.4486 6.417 0.259
35.4691 6.708 0.264
35.4896 6.125 0.253
35.5100 7.083 0.272
35.5305 7.208 0.274
35.5510 6.677 0.264
35.5714 6.875 0.268
35.5919 7.000 0.270
35.6124 6.677 0.264
35.6328 6.854 0.267
35.6533 6.635 0.263
35.6737 7.052 0.271
35.6942 6.427 0.259
35.7147 7.188 0.274
35.7351 6.417 0.259
35.7556 6.958 0.269
35.7761 6.927 0.269
35.7965 7.115 0.272
35.8170 7.125 0.272
35.8374 7.208 0.274
35.8579 7.938 0.288
35.8784 7.375 0.277
35.8988 7.979 0.288
35.9193 7.990 0.288
35.9398 7.938 0.288
35.9602 7.833 0.286
35.9807 8.104 0.291
36.0011 8.667 0.300
36.0216 8.313 0.294
36.0421 9.073 0.307
36.0625 10.354 0.328
36.0830 10.458 0.330
36.1035 10.354 0.328
36.1239 9.323 0.312
36.1444 10.427 0.330
36.1648 10.135 0.325
36.1853 10.781 0.335
36.2058 9.719 0.318
36.2262 9.563 0.316
36.2467 9.938 0.322
36.2672 10.271 0.327
36.2876 9.948 0.322
36.3081 9.646 0.317
36.3285 9.906 0.321
36.3490 9.969 0.322
36.3695 9.844 0.320
36.3899 10.146 0.325
36.4104 9.521 0.315
36.4309 10.260 0.327
36.4513 11.458 0.345
36.4718 10.406 0.329
36.4923 11.125 0.340
36.5127 11.354 0.344
36.5332 12.677 0.363
36.5536 13.865 0.380
36.5741 15.396 0.400
36.5946 16.844 0.419
36.6150 18.396 0.438
36.6355 19.167 0.447
36.6560 18.365 0.437
36.6764 16.573 0.415
36.6969 16.313 0.412
36.7173 15.938 0.407
36.7378 15.229 0.398
36.7583 14.531 0.389
36.7787 13.000 0.368
36.7992 12.021 0.354
36.8197 11.844 0.351
36.8401 11.521 0.346
36.8606 11.417 0.345
36.8810 12.219 0.357
36.9015 11.635 0.348
36.9220 12.635 0.363
36.9424 13.385 0.373
36.9629 12.729 0.364
36.9834 13.708 0.378
37.0038 16.094 0.409
37.0243 16.385 0.413
37.0447 19.729 0.453
37.0652 21.802 0.477
37.0857 23.490 0.495
37.1061 25.615 0.517
37.1266 24.573 0.506
37.1471 23.771 0.498
37.1675 20.750 0.465
37.1880 20.854 0.466
37.2084 18.948 0.444
37.2289 17.875 0.432
37.2494 16.635 0.416
37.2698 15.333 0.400
37.2903 14.365 0.387
37.3108 13.135 0.370
37.3312 12.250 0.357
37.3517 12.573 0.362
37.3722 11.646 0.348
37.3926 11.052 0.339
37.4131 11.271 0.343
37.4335 11.052 0.339
37.4540 10.052 0.324
37.4745 10.365 0.329
37.4949 9.375 0.313
37.5154 8.948 0.305
37.5359 9.292 0.311
37.5563 9.469 0.314
37.5768 8.917 0.305
37.5972 8.604 0.299
37.6177 8.469 0.297
37.6382 8.875 0.304
37.6586 9.104 0.308
37.6791 8.802 0.303
37.6996 8.844 0.304
37.7200 8.896 0.304
37.7405 8.823 0.303
37.7609 8.938 0.305
37.7814 8.979 0.306
37.8019 9.417 0.313
37.8223 8.875 0.304
37.8428 9.177 0.309
37.8633 9.969 0.322
37.8837 10.500 0.331
37.9042 10.313 0.328
37.9246 9.958 0.322
37.9451 10.146 0.325
37.9656 11.969 0.353
37.9860 12.208 0.357
38.0065 13.635 0.377
38.0270 15.500 0.402
38.0474 17.010 0.421
38.0679 15.948 0.408
38.0884 16.125 0.410
38.1088 15.333 0.400
38.1293 15.281 0.399
38.1497 13.958 0.381
38.1702 14.552 0.389
38.1907 12.375 0.359
38.2111 12.188 0.356
38.2316 10.698 0.334
38.2521 10.792 0.335
38.2725 10.583 0.332
38.2930 10.708 0.334
38.3134 9.854 0.320
38.3339 9.896 0.321
38.3544 9.490 0.314
38.3748 9.885 0.321
38.3953 9.875 0.321
38.4158 10.938 0.338
38.4362 10.635 0.333
38.4567 11.260 0.342
38.4771 12.323 0.358
38.4976 11.438 0.345
38.5181 11.385 0.344
38.5385 11.167 0.341
38.5590 10.583 0.332
38.5795 10.854 0.336
38.5999 10.385 0.329
38.6204 10.021 0.323
38.6408 9.594 0.316
38.6613 9.323 0.312
38.6818 8.635 0.300
38.7022 8.802 0.303
38.7227 7.750 0.284
38.7432 8.073 0.290
38.7636 7.771 0.285
38.7841 8.094 0.290
38.8045 7.875 0.286
38.8250 7.813 0.285
38.8455 7.479 0.279
38.8659 8.146 0.291
38.8864 8.010 0.289
38.9069 7.521 0.280
38.9273 7.438 0.278
38.9478 7.667 0.283
38.9683 7.115 0.272
38.9887 7.542 0.280
39.0092 7.542 0.280
39.0296 7.438 0.278
39.0501 7.031 0.271
39.0706 7.375 0.277
39.0910 7.823 0.285
39.1115 8.302 0.294
39.1320 7.708 0.283
39.1524 7.719 0.284
39.1729 8.052 0.290
39.1933 7.333 0.276
39.2138 7.448 0.279
39.2343 7.510 0.280
39.2547 7.323 0.276
39.2752 7.677 0.283
39.2957 7.646 0.282
39.3161 7.635 0.282
39.3366 7.688 0.283
39.3570 7.229 0.274
39.3775 7.396 0.278
39.3980 7.427 0.278
39.4184 7.458 0.279
39.4389 7.833 0.286
39.4594 7.948 0.288
39.4798 7.458 0.279
39.5003 7.458 0.279
39.5207 7.406 0.278
39.5412 7.417 0.278
39.5617 7.677 0.283
39.5821 7.958 0.288
39.6026 7.750 0.284
39.6231 6.813 0.266
39.6435 7.677 0.283
39.6640 7.156 0.273
39.6844 7.719 0.284
39.7049 7.469 0.279
39.7254 8.448 0.297
39.7458 8.354 0.295
39.7663 8.615 0.300
39.7868 9.000 0.306
39.8072 9.208 0.310
39.8277 10.781 0.335
39.8482 9.083 0.308
39.8686 8.979 0.306
39.8891 8.740 0.302
39.9095 9.292 0.311
39.9300 8.771 0.302
39.9505 9.031 0.307
39.9709 8.250 0.293
39.9914 8.792 0.303
40.0119 8.448 0.297
40.0323 8.281 0.294
40.0528 7.875 0.286
40.0732 8.021 0.289
40.0937 8.146 0.291
40.1142 7.552 0.280
40.1346 7.979 0.288
40.1551 7.979 0.288
40.1756 8.135 0.291
40.1960 7.938 0.288
40.2165 7.990 0.288
40.2369 9.146 0.309
40.2574 9.750 0.319
40.2779 11.135 0.341
40.2983 11.656 0.348
40.3188 11.271 0.343
40.3393 10.813 0.336
40.3597 10.333 0.328
40.3802 10.521 0.331
40.4006 10.958 0.338
40.4211 9.771 0.319
40.4416 9.125 0.308
40.4620 9.573 0.316
40.4825 8.594 0.299
40.5030 8.052 0.290
40.5234 8.375 0.295
40.5439 7.667 0.283
40.5643 7.573 0.281
40.5848 8.510 0.298
40.6053 7.313 0.276
40.6257 7.635 0.282
40.6462 7.927 0.287
40.6667 7.563 0.281
40.6871 7.979 0.288
40.7076 8.323 0.294
40.7281 8.625 0.300
40.7485 9.292 0.311
40.7690 10.000 0.323
40.7894 11.771 0.350
40.8099 12.823 0.365
40.8304 13.156 0.370
40.8508 10.906 0.337
40.8713 10.208 0.326
40.8918 10.625 0.333
40.9122 11.521 0.346
40.9327 11.281 0.343
40.9531 9.531 0.315
40.9736 9.063 0.307
40.9941 8.260 0.293
41.0145 8.375 0.295
41.0350 8.740 0.302
41.0555 9.146 0.309
41.0759 9.656 0.317
41.0964 10.375 0.329
41.1168 11.573 0.347
41.1373 13.344 0.373
41.1578 13.427 0.374
41.1782 13.448 0.374
41.1987 12.219 0.357
41.2192 11.792 0.350
41.2396 12.438 0.360
41.2601 12.375 0.359
41.2805 11.677 0.349
41.3010 10.698 0.334
41.3215 9.500 0.315
41.3419 9.260 0.311
41.3624 8.865 0.304
41.3829 8.365 0.295
41.4033 8.313 0.294
41.4238 7.646 0.282
41.4442 7.177 0.273
41.4647 7.219 0.274
41.4852 6.927 0.269
41.5056 6.990 0.270
41.5261 6.594 0.262
41.5466 6.938 0.269
41.5670 6.885 0.268
41.5875 6.917 0.268
41.6080 8.083 0.290
41.6284 8.042 0.289
41.6489 7.188 0.274
41.6693 7.427 0.278
41.6898 7.573 0.281
41.7103 7.063 0.271
41.7307 6.875 0.268
41.7512 7.646 0.282
41.7717 7.021 0.270
41.7921 7.292 0.276
41.8126 7.521 0.280
41.8330 7.208 0.274
41.8535 7.708 0.283
41.8740 9.167 0.309
41.8944 9.281 0.311
41.9149 9.563 0.316
41.9354 8.500 0.298
41.9558 7.302 0.276
41.9763 8.177 0.292
41.9967 8.021 0.289
42.0172 8.396 0.296
42.0377 8.302 0.294
42.0581 7.323 0.276
42.0786 7.042 0.271
42.0991 7.396 0.278
42.1195 6.760 0.265
42.1400 6.531 0.261
42.1604 6.990 0.270
42.1809 7.500 0.280
42.2014 6.583 0.262
42.2218 6.615 0.262
42.2423 6.208 0.254
42.2628 6.188 0.254
42.2832 6.990 0.270
42.3037 6.802 0.266
42.3242 6.500 0.260
42.3446 6.615 0.262
42.3651 7.135 0.273
42.3855 6.958 0.269
42.4060 6.667 0.264
42.4265 7.021 0.270
42.4469 6.865 0.267
42.4674 7.052 0.271
42.4879 7.115 0.272
42.5083 7.781 0.285
42.5288 7.802 0.285
42.5492 7.771 0.285
42.5697 7.625 0.282
42.5902 7.542 0.280
42.6106 7.802 0.285
42.6311 8.365 0.295
42.6516 8.208 0.292
42.6720 7.969 0.288
42.6925 7.813 0.285
42.7129 8.271 0.294
42.7334 7.698 0.283
42.7539 7.865 0.286
42.7743 7.594 0.281
42.7948 7.656 0.282
42.8153 8.021 0.289
42.8357 6.813 0.266
42.8562 6.948 0.269
42.8766 7.146 0.273
42.8971 6.927 0.269
42.9176 7.021 0.270
42.9380 7.271 0.275
42.9585 7.531 0.280
42.9790 6.771 0.266
42.9994 6.979 0.270
43.0199 6.927 0.269
43.0403 6.948 0.269
43.0608 7.146 0.273
43.0813 6.833 0.267
43.1017 7.063 0.271
43.1222 7.417 0.278
43.1427 7.552 0.280
43.1631 7.625 0.282
43.1836 7.906 0.287
43.2041 8.000 0.289
43.2245 7.792 0.285
43.2450 8.083 0.290
43.2654 8.292 0.294
43.2859 8.656 0.300
43.3064 8.583 0.299
43.3268 8.344 0.295
43.3473 8.458 0.297
43.3678 9.125 0.308
43.3882 8.552 0.298
43.4087 9.229 0.310
43.4291 8.646 0.300
43.4496 9.063 0.307
43.4701 9.198 0.310
43.4905 9.656 0.317
43.5110 9.594 0.316
43.5315 10.146 0.325
43.5519 10.094 0.324
43.5724 11.135 0.341
43.5928 12.563 0.362
43.6133 14.385 0.387
43.6338 15.885 0.407
43.6542 17.198 0.423
43.6747 15.854 0.406
43.6952 15.542 0.402
43.7156 15.458 0.401
43.7361 14.458 0.388
43.7565 13.885 0.380
43.7770 13.510 0.375
43.7975 12.438 0.360
43.8179 11.240 0.342
43.8384 10.354 0.328
43.8589 10.396 0.329
43.8793 9.542 0.315
43.8998 9.500 0.315
43.9202 8.802 0.303
43.9407 8.208 0.292
43.9612 7.677 0.283
43.9816 8.156 0.291
44.0021 7.823 0.285
44.0226 7.677 0.283
44.0430 7.333 0.276
44.0635 7.625 0.282
44.0840 7.271 0.275
44.1044 6.760 0.265
44.1249 7.135 0.273
44.1453 6.635 0.263
44.1658 7.198 0.274
44.1863 6.781 0.266
44.2067 7.323 0.276
44.2272 7.219 0.274
44.2477 7.198 0.274
44.2681 7.354 0.277
44.2886 6.542 0.261
44.3090 6.885 0.268
44.3295 6.927 0.269
44.3500 6.760 0.265
44.3704 7.052 0.271
44.3909 6.688 0.264
44.4114 7.281 0.275
44.4318 6.990 0.270
44.4523 6.677 0.264
44.4727 7.240 0.275
44.4932 6.833 0.267
44.5137 6.771 0.266
44.5341 6.604 0.262
44.5546 6.885 0.268
44.5751 7.031 0.271
44.5955 6.615 0.262
44.6160 6.677 0.264
44.6364 6.906 0.268
44.6569 6.760 0.265
44.6774 6.698 0.264
44.6978 6.438 0.259
44.7183 6.385 0.258
44.7388 7.219 0.274
44.7592 7.240 0.275
44.7797 6.292 0.256
44.8001 6.969 0.269
44.8206 6.958 0.269
44.8411 7.302 0.276
44.8615 7.063 0.271
44.8820 6.885 0.268
44.9025 6.979 0.270
44.9229 7.208 0.274
44.9434 7.240 0.275
44.9639 6.708 0.264
44.9843 7.250 0.275
45.0048 7.427 0.278
45.0252 6.917 0.268
45.0457 6.760 0.265
45.0662 7.208 0.274
45.0866 7.135 0.273
45.1071 6.844 0.267
45.1276 7.458 0.279
45.1480 7.229 0.274
45.1685 7.698 0.283
45.1889 7.896 0.287
45.2094 8.125 0.291
45.2299 8.865 0.304
45.2503 9.031 0.307
45.2708 8.698 0.301
45.2913 8.802 0.303
45.3117 9.396 0.313
45.3322 8.490 0.297
45.3526 8.146 0.291
45.3731 8.188 0.292
45.3936 8.365 0.295
45.4140 8.531 0.298
45.4345 7.938 0.288
45.4550 7.823 0.285
45.4754 7.229 0.274
45.4959 7.177 0.273
45.5163 6.510 0.260
45.5368 6.708 0.264
45.5573 6.656 0.263
45.5777 6.698 0.264
45.5982 6.646 0.263
45.6187 6.792 0.266
45.6391 6.802 0.266
45.6596 7.135 0.273
45.6800 6.698 0.264
45.7005 6.198 0.254
45.7210 6.323 0.257
45.7414 6.802 0.266
45.7619 6.354 0.257
45.7824 7.208 0.274
45.8028 6.667 0.264
45.8233 6.438 0.259
45.8438 6.438 0.259
45.8642 6.479 0.260
45.8847 6.729 0.265
45.9051 6.604 0.262
45.9256 6.594 0.262
45.9461 6.708 0.264
45.9665 6.083 0.252
45.9870 6.896 0.268
46.0075 6.635 0.263
46.0279 6.292 0.256
46.0484 6.542 0.261
46.0688 6.292 0.256
46.0893 5.917 0.248
46.1098 5.906 0.248
46.1302 6.365 0.257
46.1507 6.073 0.252
46.1712 6.125 0.253
46.1916 5.573 0.241
46.2121 5.573 0.241
46.2325 6.271 0.256
46.2530 6.594 0.262
46.2735 6.354 0.257
46.2939 6.063 0.251
46.3144 6.042 0.251
46.3349 6.115 0.252
46.3553 6.052 0.251
46.3758 5.740 0.245
46.3962 5.542 0.240
46.4167 5.958 0.249
46.4372 5.615 0.242
46.4576 6.094 0.252
46.4781 6.542 0.261
46.4986 6.292 0.256
46.5190 5.635 0.242
46.5395 6.125 0.253
46.5600 6.354 0.257
46.5804 6.458 0.259
46.6009 7.448 0.279
46.6213 7.344 0.277
46.6418 8.042 0.289
46.6623 6.865 0.267
46.6827 6.948 0.269
46.7032 6.458 0.259
46.7237 6.563 0.261
46.7441 6.229 0.255
46.7646 6.688 0.264
46.7850 6.531 0.261
46.8055 6.958 0.269
46.8260 6.250 0.255
46.8464 6.052 0.251
46.8669 5.927 0.248
46.8874 6.490 0.260
46.9078 6.354 0.257
46.9283 5.979 0.250
46.9487 5.896 0.248
46.9692 6.021 0.250
46.9897 6.292 0.256
47.0101 5.604 0.242
47.0306 5.958 0.249
47.0511 5.531 0.240
47.0715 6.104 0.252
47.0920 5.740 0.245
47.1124 5.948 0.249
47.1329 6.271 0.256
47.1534 6.219 0.255
47.1738 6.052 0.251
47.1943 6.281 0.256
47.2148 5.563 0.241
47.2352 6.250 0.255
47.2557 6.146 0.253
47.2761 5.469 0.239
47.2966 5.927 0.248
47.3171 6.365 0.257
47.3375 6.167 0.253
47.3580 6.135 0.253
47.3785 5.938 0.249
47.3989 6.135 0.253
47.4194 5.875 0.247
47.4399 5.938 0.249
47.4603 6.708 0.264
47.4808 6.542 0.261
47.5012 6.333 0.257
47.5217 7.260 0.275
47.5422 7.000 0.270
47.5626 8.313 0.294
47.5831 8.906 0.305
47.6036 9.740 0.319
47.6240 10.021 0.323
47.6445 10.490 0.331
47.6649 10.146 0.325
47.6854 9.385 0.313
47.7059 9.323 0.312
47.7263 9.021 0.307
47.7468 8.906 0.305
47.7673 9.208 0.310
47.7877 8.083 0.290
47.8082 8.094 0.290
47.8286 7.844 0.286
47.8491 7.688 0.283
47.8696 7.240 0.275
47.8900 6.781 0.266
47.9105 6.771 0.266
47.9310 6.729 0.265
47.9514 6.208 0.254
47.9719 6.198 0.254
47.9923 6.094 0.252
48.0128 6.646 0.263
48.0333 6.031 0.251
48.0537 6.406 0.258
48.0742 6.031 0.251
48.0947 6.135 0.253
48.1151 6.354 0.257
48.1356 5.948 0.249
48.1560 6.760 0.265
48.1765 5.938 0.249
48.1970 6.115 0.252
48.2174 6.125 0.253
48.2379 6.438 0.259
48.2584 6.167 0.253
48.2788 6.250 0.255
48.2993 5.729 0.244
48.3198 7.250 0.275
48.3402 6.385 0.258
48.3607 6.667 0.264
48.3811 6.667 0.264
48.4016 6.552 0.261
48.4221 6.417 0.259
48.4425 6.729 0.265
48.4630 6.333 0.257
48.4835 6.823 0.267
48.5039 7.021 0.270
48.5244 6.521 0.261
48.5448 6.417 0.259
48.5653 6.604 0.262
48.5858 6.031 0.251
48.6062 5.781 0.245
48.6267 6.167 0.253
48.6472 6.083 0.252
48.6676 6.323 0.257
48.6881 6.573 0.262
48.7085 6.844 0.267
48.7290 6.927 0.269
48.7495 6.646 0.263
48.7699 6.354 0.257
48.7904 7.115 0.272
48.8109 6.646 0.263
48.8313 6.583 0.262
48.8518 6.292 0.256
48.8722 6.604 0.262
48.8927 6.490 0.260
48.9132 5.958 0.249
48.9336 5.698 0.244
48.9541 5.938 0.249
48.9746 5.281 0.235
48.9950 5.823 0.246
49.0155 5.938 0.249
49.0359 5.854 0.247
49.0564 6.479 0.260
49.0769 6.219 0.255
49.0973 6.302 0.256
49.1178 7.396 0.278
49.1383 6.479 0.260
49.1587 6.260 0.255
49.1792 6.229 0.255
49.1997 5.917 0.248
49.2201 6.177 0.254
49.2406 6.042 0.251
49.2610 6.156 0.253
49.2815 5.698 0.244
49.3020 6.344 0.257
49.3224 6.323 0.257
49.3429 6.625 0.263
49.3634 6.625 0.263
49.3838 6.625 0.263
49.4043 6.427 0.259
49.4247 6.354 0.257
49.4452 6.667 0.264
49.4657 5.917 0.248
49.4861 6.469 0.260
49.5066 6.385 0.258
49.5271 6.719 0.265
49.5475 6.490 0.260
49.5680 6.625 0.263
49.5884 6.625 0.263
49.6089 6.573 0.262
49.6294 6.781 0.266
49.6498 6.531 0.261
49.6703 6.771 0.266
49.6908 7.000 0.270
49.7112 7.354 0.277
49.7317 7.677 0.283
49.7521 8.083 0.290
49.7726 8.521 0.298
49.7931 9.646 0.317
49.8135 10.063 0.324
49.8340 11.031 0.339
49.8545 11.781 0.350
49.8749 11.865 0.352
49.8954 12.135 0.356
49.9158 12.146 0.356
49.9363 12.031 0.354
49.9568 11.104 0.340
49.9772 11.552 0.347
49.9977 10.698 0.334
50.0182 10.125 0.325
50.0386 9.927 0.322
50.0591 9.656 0.317
50.0796 9.198 0.310
50.1000 8.563 0.299
50.1205 8.229 0.293
50.1409 8.073 0.290
50.1614 8.125 0.291
50.1819 7.771 0.285
50.2023 8.792 0.303
50.2228 8.260 0.293
50.2433 8.281 0.294
50.2637 8.313 0.294
50.2842 8.135 0.291
50.3046 8.063 0.290
50.3251 7.260 0.275
50.3456 7.438 0.278
50.3660 7.802 0.285
50.3865 7.677 0.283
50.4070 7.635 0.282
50.4274 7.083 0.272
50.4479 6.927 0.269
50.4683 6.615 0.262
50.4888 7.167 0.273
50.5093 6.260 0.255
50.5297 6.219 0.255
50.5502 6.167 0.253
50.5707 6.396 0.258
50.5911 6.604 0.262
50.6116 6.521 0.261
50.6320 6.688 0.264
50.6525 6.198 0.254
50.6730 5.990 0.250
50.6934 6.063 0.251
50.7139 5.906 0.248
50.7344 6.094 0.252
50.7548 5.896 0.248
50.7753 5.865 0.247
50.7958 5.458 0.238
50.8162 5.844 0.247
50.8367 6.000 0.250
50.8571 5.615 0.242
50.8776 5.938 0.249
50.8981 6.500 0.260
50.9185 6.271 0.256
50.9390 6.469 0.260
50.9595 6.938 0.269
50.9799 6.594 0.262
51.0004 7.313 0.276
51.0208 7.250 0.275
51.0413 7.260 0.275
51.0618 6.750 0.265
51.0822 6.750 0.265
51.1027 6.906 0.268
51.1232 6.552 0.261
51.1436 5.958 0.249
51.1641 6.688 0.264
51.1845 6.385 0.258
51.2050 6.323 0.257
51.2255 6.646 0.263
51.2459 6.073 0.252
51.2664 6.083 0.252
51.2869 6.354 0.257
51.3073 6.854 0.267
51.3278 6.531 0.261
51.3482 6.573 0.262
51.3687 6.146 0.253
51.3892 5.698 0.244
51.4096 5.583 0.241
51.4301 6.375 0.258
51.4506 5.792 0.246
51.4710 5.865 0.247
51.4915 6.000 0.250
51.5119 5.719 0.244
51.5324 5.510 0.240
51.5529 5.719 0.244
51.5733 6.438 0.259
51.5938 6.542 0.261
51.6143 6.521 0.261
51.6347 6.979 0.270
51.6552 6.750 0.265
51.6757 6.656 0.263
51.6961 6.708 0.264
51.7166 6.406 0.258
51.7370 6.573 0.262
51.7575 6.281 0.256
51.7780 6.969 0.269
51.7984 6.469 0.260
51.8189 6.302 0.256
51.8394 6.229 0.255
51.8598 6.042 0.251
51.8803 5.969 0.249
51.9007 6.115 0.252
51.9212 6.521 0.261
51.9417 6.104 0.252
51.9621 5.510 0.240
51.9826 5.656 0.243
52.0031 5.979 0.250
52.0235 6.083 0.252
52.0440 5.354 0.236
52.0644 5.615 0.242
52.0849 5.490 0.239
52.1054 5.667 0.243
52.1258 6.000 0.250
52.1463 5.448 0.238
52.1668 5.667 0.243
52.1872 5.469 0.239
52.2077 5.531 0.240
52.2281 5.354 0.236
52.2486 5.344 0.236
52.2691 5.542 0.240
52.2895 5.573 0.241
52.3100 5.771 0.245
52.3305 5.885 0.248
52.3509 5.427 0.238
52.3714 5.594 0.241
52.3918 5.708 0.244
52.4123 5.823 0.246
52.4328 5.917 0.248
52.4532 5.875 0.247
52.4737 5.104 0.231
52.4942 5.510 0.240
52.5146 5.375 0.237
52.5351 5.417 0.238
52.5556 5.750 0.245
52.5760 5.323 0.235
52.5965 5.323 0.235
52.6169 4.896 0.226
52.6374 5.125 0.231
52.6579 5.500 0.239
52.6783 4.979 0.228
52.6988 5.344 0.236
52.7193 4.823 0.224
52.7397 5.031 0.229
52.7602 5.063 0.230
52.7806 4.510 0.217
52.8011 5.104 0.231
52.8216 5.104 0.231
52.8420 5.104 0.231
52.8625 4.802 0.224
52.8830 5.271 0.234
52.9034 4.885 0.226
52.9239 5.167 0.232
52.9443 4.604 0.219
52.9648 5.083 0.230
52.9853 4.979 0.228
53.0057 5.792 0.246
53.0262 5.635 0.242
53.0467 5.271 0.234
53.0671 5.104 0.231
53.0876 5.219 0.233
53.1080 5.292 0.235
53.1285 5.219 0.233
53.1490 5.313 0.235
53.1694 5.146 0.232
53.1899 4.979 0.228
53.2104 5.219 0.233
53.2308 5.198 0.233
53.2513 5.208 0.233
53.2717 4.604 0.219
53.2922 5.021 0.229
53.3127 5.219 0.233
53.3331 4.979 0.228
53.3536 5.229 0.233
53.3741 5.031 0.229
53.3945 4.938 0.227
53.4150 5.115 0.231
53.4355 4.833 0.224
53.4559 4.646 0.220
53.4764 5.052 0.229
53.4968 4.781 0.223
53.5173 4.635 0.220
53.5378 4.979 0.228
53.5582 4.938 0.227
53.5787 4.938 0.227
53.5992 5.031 0.229
53.6196 4.792 0.223
53.6401 5.396 0.237
53.6605 4.615 0.219
53.6810 5.198 0.233
53.7015 5.688 0.243
53.7219 5.490 0.239
53.7424 5.323 0.235
53.7629 5.490 0.239
53.7833 4.792 0.223
53.8038 5.260 0.234
53.8242 5.198 0.233
53.8447 5.052 0.229
53.8652 5.156 0.232
53.8856 5.146 0.232
53.9061 4.938 0.227
53.9266 4.490 0.216
53.9470 4.833 0.224
53.9675 4.677 0.221
53.9879 4.781 0.223
54.0084 5.313 0.235
54.0289 5.240 0.234
54.0493 4.708 0.221
54.0698 4.656 0.220
54.0903 4.792 0.223
54.1107 4.781 0.223
54.1312 5.250 0.234
54.1516 5.042 0.229
54.1721 4.927 0.227
54.1926 4.969 0.228
54.2130 5.292 0.235
54.2335 5.313 0.235
54.2540 5.229 0.233
54.2744 5.635 0.242
54.2949 4.833 0.224
54.3154 4.615 0.219
54.3358 4.906 0.226
54.3563 5.354 0.236
54.3767 4.979 0.228
54.3972 4.854 0.225
54.4177 4.802 0.224
54.4381 4.990 0.228
54.4586 4.854 0.225
54.4791 4.802 0.224
54.4995 5.260 0.234
54.5200 5.438 0.238
54.5404 5.156 0.232
54.5609 5.063 0.230
54.5814 5.760 0.245
54.6018 6.052 0.251
54.6223 5.094 0.230
54.6428 5.125 0.231
54.6632 5.031 0.229
54.6837 4.927 0.227
54.7041 5.333 0.236
54.7246 4.760 0.223
54.7451 5.240 0.234
54.7655 5.406 0.237
54.7860 5.219 0.233
54.8065 5.073 0.230
54.8269 5.146 0.232
54.8474 4.583 0.219
54.8678 5.042 0.229
54.8883 5.042 0.229
54.9088 5.250 0.234
54.9292 4.833 0.224
54.9497 5.333 0.236
54.9702 4.990 0.228
54.9906 5.521 0.240
55.0111 5.958 0.249
55.0316 6.406 0.258
55.0520 6.615 0.262
55.0725 6.833 0.267
55.0929 8.292 0.294
55.1134 8.604 0.299
55.1339 9.333 0.312
55.1543 10.219 0.326
55.1748 10.698 0.334
55.1953 11.031 0.339
55.2157 11.917 0.352
55.2362 11.438 0.345
55.2566 10.771 0.335
55.2771 10.063 0.324
55.2976 9.406 0.313
55.3180 9.552 0.315
55.3385 9.635 0.317
55.3590 9.260 0.311
55.3794 8.740 0.302
55.3999 7.958 0.288
55.4203 7.292 0.276
55.4408 6.896 0.268
55.4613 6.833 0.267
55.4817 6.135 0.253
55.5022 5.729 0.244
55.5227 5.688 0.243
55.5431 6.073 0.252
55.5636 5.708 0.244
55.5840 5.979 0.250
55.6045 5.542 0.240
55.6250 4.948 0.227
55.6454 5.063 0.230
55.6659 5.469 0.239
55.6864 5.625 0.242
55.7068 5.854 0.247
55.7273 5.271 0.234
55.7477 5.500 0.239
55.7682 5.344 0.236
55.7887 5.427 0.238
55.8091 5.615 0.242
55.8296 5.510 0.240
55.8501 5.563 0.241
55.8705 5.396 0.237
55.8910 5.719 0.244
55.9115 6.583 0.262
55.9319 6.375 0.258
55.9524 6.052 0.251
55.9728 5.396 0.237
55.9933 5.781 0.245
56.0138 5.760 0.245
56.0342 5.917 0.248
56.0547 6.250 0.255
56.0752 6.594 0.262
56.0956 6.323 0.257
56.1161 6.490 0.260
56.1365 6.740 0.265
56.1570 7.031 0.271
56.1775 7.729 0.284
56.1979 7.719 0.284
56.2184 7.990 0.288
56.2389 8.646 0.300
56.2593 8.302 0.294
56.2798 7.573 0.281
56.3002 7.167 0.273
56.3207 7.135 0.273
56.3412 6.927 0.269
56.3616 7.125 0.272
56.3821 6.490 0.260
56.4026 7.188 0.274
56.4230 6.542 0.261
56.4435 5.906 0.248
56.4639 5.490 0.239
56.4844 5.719 0.244
56.5049 6.073 0.252
56.5253 5.198 0.233
56.5458 4.906 0.226
56.5663 5.375 0.237
56.5867 5.104 0.231
56.6072 5.448 0.238
56.6276 4.958 0.227
56.6481 5.188 0.232
56.6686 5.865 0.247
56.6890 5.500 0.239
56.7095 5.854 0.247
56.7300 5.958 0.249
56.7504 5.302 0.235
56.7709 5.604 0.242
56.7914 4.917 0.226
56.8118 4.865 0.225
56.8323 5.792 0.246
56.8527 5.427 0.238
56.8732 5.250 0.234
56.8937 5.208 0.233
56.9141 5.063 0.230
56.9346 5.073 0.230
56.9551 5.125 0.231
56.9755 4.490 0.216
56.9960 4.708 0.221
57.0164 4.635 0.220
57.0369 4.917 0.226
57.0574 4.688 0.221
57.0778 4.406 0.214
57.0983 4.698 0.221
57.1188 4.365 0.213
57.1392 4.469 0.216
57.1597 4.490 0.216
57.1801 4.500 0.217
57.2006 4.667 0.220
57.2211 5.219 0.233
57.2415 4.802 0.224
57.2620 4.833 0.224
57.2825 4.979 0.228
57.3029 4.552 0.218
57.3234 5.031 0.229
57.3438 4.740 0.222
57.3643 4.958 0.227
57.3848 4.302 0.212
57.4052 4.708 0.221
57.4257 4.615 0.219
57.4462 4.729 0.222
57.4666 4.698 0.221
57.4871 4.875 0.225
57.5075 4.438 0.215
57.5280 5.031 0.229
57.5485 4.625 0.219
57.5689 4.958 0.227
57.5894 4.615 0.219
57.6099 4.969 0.228
57.6303 4.938 0.227
57.6508 4.615 0.219
57.6713 5.042 0.229
57.6917 4.979 0.228
57.7122 4.854 0.225
57.7326 4.656 0.220
57.7531 5.073 0.230
57.7736 5.240 0.234
57.7940 5.240 0.234
57.8145 5.573 0.241
57.8350 5.927 0.248
57.8554 6.219 0.255
57.8759 6.417 0.259
57.8963 6.969 0.269
57.9168 7.188 0.274
57.9373 7.271 0.275
57.9577 7.885 0.287
57.9782 7.135 0.273
57.9987 7.385 0.277
58.0191 7.344 0.277
58.0396 6.896 0.268
58.0600 6.521 0.261
58.0805 6.885 0.268
58.1010 6.646 0.263
58.1214 6.500 0.260
58.1419 6.281 0.256
58.1624 5.875 0.247
58.1828 5.656 0.243
58.2033 5.604 0.242
58.2237 5.677 0.243
58.2442 5.927 0.248
58.2647 5.448 0.238
58.2851 5.594 0.241
58.3056 5.031 0.229
58.3261 4.969 0.228
58.3465 4.948 0.227
58.3670 5.365 0.236
58.3874 4.740 0.222
58.4079 5.208 0.233
58.4284 4.969 0.228
58.4488 5.438 0.238
58.4693 5.490 0.239
58.4898 5.354 0.236
58.5102 5.479 0.239
58.5307 5.156 0.232
58.5512 5.344 0.236
58.5716 5.229 0.233
58.5921 5.031 0.229
58.6125 5.281 0.235
58.6330 4.906 0.226
58.6535 5.625 0.242
58.6739 5.156 0.232
58.6944 4.979 0.228
58.7149 4.635 0.220
58.7353 4.729 0.222
58.7558 4.906 0.226
58.7762 4.906 0.226
58.7967 4.792 0.223
58.8172 4.917 0.226
58.8376 4.875 0.225
58.8581 4.656 0.220
58.8786 5.188 0.232
58.8990 5.469 0.239
58.9195 4.594 0.219
58.9399 4.750 0.222
58.9604 4.844 0.225
58.9809 4.875 0.225
59.0013 4.844 0.225
59.0218 4.938 0.227
59.0423 4.875 0.225
59.0627 5.031 0.229
59.0832 5.188 0.232
59.1036 4.792 0.223
59.1241 5.365 0.236
59.1446 5.729 0.244
59.1650 5.563 0.241
59.1855 6.417 0.259
59.2060 5.979 0.250
59.2264 6.594 0.262
59.2469 6.354 0.257
59.2674 5.948 0.249
59.2878 6.094 0.252
59.3083 5.500 0.239
59.3287 5.500 0.239
59.3492 5.635 0.242
59.3697 5.667 0.243
59.3901 5.573 0.241
59.4106 5.198 0.233
59.4311 5.281 0.235
59.4515 5.333 0.236
59.4720 4.885 0.226
59.4924 4.896 0.226
59.5129 5.000 0.228
59.5334 5.094 0.230
59.5538 5.010 0.228
59.5743 4.500 0.217
59.5948 4.604 0.219
59.6152 4.542 0.218
59.6357 4.552 0.218
59.6561 4.740 0.222
59.6766 4.781 0.223
59.6971 4.469 0.216
59.7175 4.604 0.219
59.7380 4.771 0.223
59.7585 4.813 0.224
59.7789 4.906 0.226
59.7994 5.031 0.229
59.8198 5.542 0.240
59.8403 5.719 0.244
59.8608 5.854 0.247
59.8812 6.198 0.254
59.9017 5.969 0.249
59.9222 6.250 0.255
59.9426 6.448 0.259
59.9631 6.198 0.254
59.9835 5.708 0.244
60.0040 5.615 0.242
60.0245 5.792 0.246
60.0449 5.479 0.239
60.0654 5.313 0.235
60.0859 5.198 0.233
60.1063 5.563 0.241
60.1268 5.104 0.231
60.1473 5.219 0.233
60.1677 5.104 0.231
60.1882 4.771 0.223
60.2086 4.771 0.223
60.2291 4.240 0.210
60.2496 4.469 0.216
60.2700 4.813 0.224
60.2905 4.490 0.216
60.3110 4.490 0.216
60.3314 4.365 0.213
60.3519 4.500 0.217
60.3723 4.406 0.214
60.3928 4.177 0.209
60.4133 4.792 0.223
60.4337 4.063 0.206
60.4542 4.271 0.211
60.4747 4.458 0.216
60.4951 4.708 0.221
60.5156 4.271 0.211
60.5360 4.469 0.216
60.5565 4.490 0.216
60.5770 4.802 0.224
60.5974 4.438 0.215
60.6179 4.208 0.209
60.6384 4.240 0.210
60.6588 4.229 0.210
60.6793 4.417 0.214
60.6997 3.792 0.199
60.7202 4.563 0.218
60.7407 4.365 0.213
60.7611 4.417 0.214
60.7816 4.406 0.214
60.8021 4.292 0.211
60.8225 4.583 0.219
60.8430 4.094 0.207
60.8634 4.406 0.214
60.8839 4.073 0.206
60.9044 4.344 0.213
60.9248 4.417 0.214
60.9453 4.719 0.222
60.9658 4.844 0.225
60.9862 4.458 0.216
61.0067 4.292 0.211
61.0272 4.656 0.220
61.0476 4.469 0.216
61.0681 4.365 0.213
61.0885 4.313 0.212
61.1090 4.417 0.214
61.1295 4.542 0.218
61.1499 4.073 0.206
61.1704 4.396 0.214
61.1909 4.688 0.221
61.2113 4.219 0.210
61.2318 4.396 0.214
61.2522 4.021 0.205
61.2727 4.115 0.207
61.2932 4.021 0.205
61.3136 4.313 0.212
61.3341 4.156 0.208
61.3546 4.344 0.213
61.3750 4.740 0.222
61.3955 4.510 0.217
61.4159 4.823 0.224
61.4364 4.125 0.207
61.4569 4.396 0.214
61.4773 3.677 0.196
61.4978 4.219 0.210
61.5183 4.385 0.214
61.5387 4.406 0.214
61.5592 4.625 0.219
61.5796 4.646 0.220
61.6001 4.031 0.205
61.6206 4.365 0.213
61.6410 4.167 0.208
61.6615 4.240 0.210
61.6820 4.167 0.208
61.7024 4.146 0.208
61.7229 4.198 0.209
61.7433 3.906 0.202
61.7638 3.865 0.201
61.7843 4.365 0.213
61.8047 3.708 0.197
61.8252 4.156 0.208
61.8457 4.208 0.209
61.8661 4.021 0.205
61.8866 4.510 0.217
61.9071 4.396 0.214
61.9275 4.490 0.216
61.9480 4.333 0.212
61.9684 4.458 0.216
61.9889 4.552 0.218
62.0094 4.500 0.217
62.0298 4.521 0.217
62.0503 4.583 0.219
62.0708 4.740 0.222
62.0912 4.500 0.217
62.1117 4.604 0.219
62.1321 4.833 0.224
62.1526 5.042 0.229
62.1731 5.323 0.235
62.1935 4.927 0.227
62.2140 5.063 0.230
62.2345 5.094 0.230
62.2549 4.635 0.220
62.2754 4.646 0.220
62.2958 4.396 0.214
62.3163 4.333 0.212
62.3368 4.938 0.227
62.3572 4.625 0.219
62.3777 4.427 0.215
62.3982 4.510 0.217
62.4186 4.094 0.207
62.4391 3.990 0.204
62.4595 4.208 0.209
62.4800 4.104 0.207
62.5005 3.635 0.195
62.5209 4.135 0.208
62.5414 4.250 0.210
62.5619 4.583 0.219
62.5823 4.323 0.212
62.6028 3.844 0.200
62.6232 4.115 0.207
62.6437 4.146 0.208
62.6642 4.281 0.211
62.6846 3.958 0.203
62.7051 4.104 0.207
62.7256 4.260 0.211
62.7460 3.958 0.203
62.7665 3.823 0.200
62.7870 4.302 0.212
62.8074 4.115 0.207
62.8279 4.000 0.204
62.8483 3.708 0.197
62.8688 3.927 0.202
62.8893 3.990 0.204
62.9097 4.052 0.205
62.9302 4.031 0.205
62.9507 4.031 0.205
62.9711 4.469 0.216
62.9916 4.042 0.205
63.0120 3.677 0.196
63.0325 4.177 0.209
63.0530 4.271 0.211
63.0734 3.813 0.199
63.0939 3.490 0.191
63.1144 4.333 0.212
63.1348 4.271 0.211
63.1553 4.104 0.207
63.1757 4.010 0.204
63.1962 3.917 0.202
63.2167 4.406 0.214
63.2371 4.052 0.205
63.2576 4.354 0.213
63.2781 4.156 0.208
63.2985 4.125 0.207
63.3190 4.219 0.210
63.3394 3.896 0.201
63.3599 3.865 0.201
63.3804 4.625 0.219
63.4008 4.125 0.207
63.4213 4.135 0.208
63.4418 4.406 0.214
63.4622 4.708 0.221
63.4827 4.479 0.216
63.5032 4.865 0.225
63.5236 4.438 0.215
63.5441 4.490 0.216
63.5645 4.417 0.214
63.5850 4.406 0.214
63.6055 4.302 0.212
63.6259 4.260 0.211
63.6464 4.552 0.218
63.6669 4.542 0.218
63.6873 4.490 0.216
63.7078 4.729 0.222
63.7282 4.177 0.209
63.7487 4.531 0.217
63.7692 5.010 0.228
63.7896 4.333 0.212
63.8101 4.656 0.220
63.8306 4.396 0.214
63.8510 4.865 0.225
63.8715 4.948 0.227
63.8919 4.708 0.221
63.9124 4.521 0.217
63.9329 5.031 0.229
63.9533 5.042 0.229
63.9738 4.531 0.217
63.9943 4.375 0.213
64.0147 5.260 0.234
64.0352 4.979 0.228
64.0556 4.740 0.222
64.0761 4.760 0.223
64.0966 5.104 0.231
64.1170 5.000 0.228
64.1375 4.844 0.225
64.1580 4.896 0.226
64.1784 4.677 0.221
64.1989 4.979 0.228
64.2193 5.031 0.229
64.2398 4.792 0.223
64.2603 4.969 0.228
64.2807 4.740 0.222
64.3012 4.760 0.223
64.3217 5.125 0.231
64.3421 4.927 0.227
64.3626 4.510 0.217
64.3831 5.094 0.230
64.4035 5.135 0.231
64.4240 4.792 0.223
64.4444 4.729 0.222
64.4649 4.490 0.216
64.4854 5.135 0.231
64.5058 4.604 0.219
64.5263 5.000 0.228
64.5468 5.146 0.232
64.5672 4.885 0.226
64.5877 5.531 0.240
64.6081 5.760 0.245
64.6286 6.021 0.250
64.6491 5.906 0.248
64.6695 5.938 0.249
64.6900 6.073 0.252
64.7105 6.010 0.250
64.7309 6.271 0.256
64.7514 5.969 0.249
64.7718 5.563 0.241
64.7923 5.542 0.240
64.8128 5.625 0.242
64.8332 5.510 0.240
64.8537 5.146 0.232
64.8742 5.531 0.240
64.8946 5.156 0.232
64.9151 5.125 0.231
64.9355 4.760 0.223
64.9560 4.917 0.226
64.9765 5.073 0.230
64.9969 4.750 0.222
65.0174 4.813 0.224
65.0379 4.635 0.220
65.0583 4.583 0.219
65.0788 4.292 0.211
65.0992 4.781 0.223
65.1197 4.021 0.205
65.1402 4.385 0.214
65.1606 4.594 0.219
65.1811 4.458 0.216
65.2016 4.396 0.214
65.2220 4.229 0.210
65.2425 4.719 0.222
65.2630 3.802 0.199
65.2834 4.531 0.217
65.3039 4.229 0.210
65.3243 4.552 0.218
65.3448 3.896 0.201
65.3653 4.490 0.216
65.3857 3.896 0.201
65.4062 4.031 0.205
65.4267 4.385 0.214
65.4471 4.146 0.208
65.4676 4.104 0.207
65.4880 4.635 0.220
65.5085 4.271 0.211
65.5290 4.385 0.214
65.5494 4.583 0.219
65.5699 4.667 0.220
65.5904 4.656 0.220
65.6108 4.823 0.224
65.6313 4.854 0.225
65.6517 5.115 0.231
65.6722 4.573 0.218
65.6927 4.583 0.219
65.7131 4.552 0.218
65.7336 4.729 0.222
65.7541 4.583 0.219
65.7745 4.854 0.225
65.7950 4.594 0.219
65.8154 4.500 0.217
65.8359 4.344 0.213
65.8564 3.865 0.201
65.8768 4.250 0.210
65.8973 4.146 0.208
65.9178 4.219 0.210
65.9382 3.771 0.198
65.9587 4.469 0.216
65.9791 4.667 0.220
65.9996 4.083 0.206
66.0201 3.958 0.203
66.0405 4.146 0.208
66.0610 4.406 0.214
66.0815 4.156 0.208
66.1019 4.323 0.212
66.1224 4.042 0.205
66.1429 4.083 0.206
66.1633 4.240 0.210
66.1838 3.990 0.204
66.2042 3.979 0.204
66.2247 3.552 0.192
66.2452 4.313 0.212
66.2656 4.385 0.214
66.2861 4.094 0.207
66.3066 4.083 0.206
66.3270 3.917 0.202
66.3475 4.042 0.205
66.3679 3.708 0.197
66.3884 3.740 0.197
66.4089 4.052 0.205
66.4293 3.990 0.204
66.4498 3.990 0.204
66.4703 3.896 0.201
66.4907 3.719 0.197
66.5112 4.125 0.207
66.5316 3.823 0.200
66.5521 4.010 0.204
66.5726 4.375 0.213
66.5930 4.219 0.210
66.6135 4.063 0.206
66.6340 3.948 0.203
66.6544 4.250 0.210
66.6749 4.271 0.211
66.6953 3.865 0.201
66.7158 4.250 0.210
66.7363 3.854 0.200
66.7567 3.802 0.199
66.7772 4.219 0.210
66.7977 4.094 0.207
66.8181 4.021 0.205
66.8386 4.323 0.212
66.8590 4.104 0.207
66.8795 3.875 0.201
66.9000 4.438 0.215
66.9204 4.417 0.214
66.9409 4.500 0.217
66.9614 4.583 0.219
66.9818 4.521 0.217
67.0023 4.760 0.223
67.0228 5.010 0.228
67.0432 4.594 0.219
67.0637 4.844 0.225
67.0841 5.292 0.235
67.1046 5.635 0.242
67.1251 5.646 0.243
67.1455 6.188 0.254
67.1660 6.135 0.253
67.1865 6.448 0.259
67.2069 5.740 0.245
67.2274 6.677 0.264
67.2478 6.188 0.254
67.2683 5.802 0.246
67.2888 5.927 0.248
67.3092 5.656 0.243
67.3297 5.594 0.241
67.3502 6.135 0.253
67.3706 5.479 0.239
67.3911 5.667 0.243
67.4115 5.969 0.249
67.4320 5.396 0.237
67.4525 5.167 0.232
67.4729 5.146 0.232
67.4934 4.885 0.226
67.5139 4.927 0.227
67.5343 4.719 0.222
67.5548 4.219 0.210
67.5752 4.688 0.221
67.5957 4.563 0.218
67.6162 4.208 0.209
67.6366 4.260 0.211
67.6571 4.302 0.212
67.6776 4.313 0.212
67.6980 3.917 0.202
67.7185 3.969 0.203
67.7389 4.563 0.218
67.7594 4.146 0.208
67.7799 4.292 0.211
67.8003 3.958 0.203
67.8208 4.375 0.213
67.8413 4.292 0.211
67.8617 4.208 0.209
67.8822 3.979 0.204
67.9027 4.323 0.212
67.9231 4.250 0.210
67.9436 3.740 0.197
67.9640 4.229 0.210
67.9845 4.396 0.214
68.0050 4.365 0.213
68.0254 4.583 0.219
68.0459 4.083 0.206
68.0664 4.271 0.211
68.0868 3.823 0.200
68.1073 4.240 0.210
68.1277 4.135 0.208
68.1482 4.198 0.209
68.1687 4.260 0.211
68.1891 4.458 0.216
68.2096 4.177 0.209
68.2301 4.240 0.210
68.2505 4.156 0.208
68.2710 4.552 0.218
68.2914 4.625 0.219
68.3119 4.813 0.224
68.3324 4.740 0.222
68.3528 4.521 0.217
68.3733 4.635 0.220
68.3938 4.531 0.217
68.4142 4.781 0.223
68.4347 4.708 0.221
68.4551 4.292 0.211
68.4756 4.208 0.209
68.4961 4.469 0.216
68.5165 4.646 0.220
68.5370 4.625 0.219
68.5575 4.344 0.213
68.5779 4.354 0.213
68.5984 4.667 0.220
68.6189 4.021 0.205
68.6393 3.771 0.198
68.6598 3.646 0.195
68.6802 3.990 0.204
68.7007 4.260 0.211
68.7212 3.865 0.201
68.7416 4.083 0.206
68.7621 4.000 0.204
68.7826 4.229 0.210
68.8030 4.354 0.213
68.8235 4.375 0.213
68.8439 3.823 0.200
68.8644 4.094 0.207
68.8849 4.427 0.215
68.9053 4.063 0.206
68.9258 4.115 0.207
68.9463 4.281 0.211
68.9667 4.604 0.219
68.9872 4.521 0.217
69.0076 5.125 0.231
69.0281 5.010 0.228
69.0486 5.167 0.232
69.0690 4.823 0.224
69.0895 4.969 0.228
69.1100 4.292 0.211
69.1304 5.021 0.229
69.1509 4.573 0.218
69.1713 4.823 0.224
69.1918 5.146 0.232
69.2123 4.646 0.220
69.2327 5.125 0.231
69.2532 5.042 0.229
69.2737 4.979 0.228
69.2941 4.813 0.224
69.3146 4.396 0.214
69.3350 4.490 0.216
69.3555 3.708 0.197
69.3760 4.104 0.207
69.3964 4.063 0.206
69.4169 4.135 0.208
69.4374 3.990 0.204
69.4578 4.000 0.204
69.4783 3.594 0.193
69.4988 3.396 0.188
69.5192 4.354 0.213
69.5397 4.000 0.204
69.5601 3.667 0.195
69.5806 3.750 0.198
69.6011 3.656 0.195
69.6215 3.719 0.197
69.6420 3.396 0.188
69.6625 3.615 0.194
69.6829 3.542 0.192
69.7034 3.500 0.191
69.7238 3.458 0.190
69.7443 3.406 0.188
69.7648 3.792 0.199
69.7852 3.438 0.189
69.8057 3.771 0.198
69.8262 3.656 0.195
69.8466 3.615 0.194
69.8671 3.573 0.193
69.8875 3.521 0.192
69.9080 3.958 0.203
69.9285 3.833 0.200
69.9489 3.417 0.189
69.9694 3.604 0.194
69.9899 3.625 0.194
70.0103 3.604 0.194
70.0308 3.604 0.194
70.0512 3.656 0.195
70.0717 3.542 0.192
70.0922 3.792 0.199
70.1126 3.750 0.198
70.1331 3.844 0.200
70.1536 3.615 0.194
70.1740 3.802 0.199
70.1945 3.552 0.192
70.2149 3.635 0.195
70.2354 3.552 0.192
70.2559 3.844 0.200
70.2763 3.594 0.193
70.2968 3.583 0.193
70.3173 3.906 0.202
70.3377 3.490 0.191
70.3582 3.635 0.195
70.3787 3.604 0.194
70.3991 3.688 0.196
70.4196 3.469 0.190
70.4400 3.677 0.196
70.4605 3.563 0.193
70.4810 3.542 0.192
70.5014 3.135 0.181
70.5219 3.417 0.189
70.5424 3.938 0.203
70.5628 3.719 0.197
70.5833 3.667 0.195
70.6037 3.625 0.194
70.6242 3.406 0.188
70.6447 3.760 0.198
70.6651 3.219 0.183
70.6856 3.479 0.190
70.7061 3.240 0.184
70.7265 3.344 0.187
70.7470 3.396 0.188
70.7674 3.615 0.194
70.7879 3.531 0.192
70.8084 3.667 0.195
70.8288 3.635 0.195
70.8493 3.365 0.187
70.8698 3.635 0.195
70.8902 3.385 0.188
70.9107 3.344 0.187
70.9311 3.667 0.195
70.9516 3.542 0.192
70.9721 3.604 0.194
70.9925 3.635 0.195
71.0130 3.458 0.190
71.0335 3.604 0.194
71.0539 3.719 0.197
71.0744 3.792 0.199
71.0948 3.688 0.196
71.1153 4.229 0.210
71.1358 3.813 0.199
71.1562 3.521 0.192
71.1767 3.750 0.198
71.1972 3.427 0.189
71.2176 3.490 0.191
71.2381 3.635 0.195
71.2586 3.677 0.196
71.2790 3.417 0.189
71.2995 3.500 0.191
71.3199 3.458 0.190
71.3404 3.438 0.189
71.3609 3.656 0.195
71.3813 3.708 0.197
71.4018 3.490 0.191
71.4223 3.604 0.194
71.4427 3.333 0.186
71.4632 3.490 0.191
71.4836 3.292 0.185
71.5041 3.490 0.191
71.5246 3.375 0.188
71.5450 3.094 0.180
71.5655 3.323 0.186
71.5860 3.208 0.183
71.6064 3.583 0.193
71.6269 3.729 0.197
71.6473 3.385 0.188
71.6678 3.344 0.187
71.6883 3.219 0.183
71.7087 3.438 0.189
71.7292 3.250 0.184
71.7497 3.427 0.189
71.7701 3.406 0.188
71.7906 3.406 0.188
71.8110 3.406 0.188
71.8315 3.104 0.180
71.8520 3.177 0.182
71.8724 3.323 0.186
71.8929 3.208 0.183
71.9134 2.938 0.175
71.9338 3.094 0.180
71.9543 3.125 0.180
71.9747 3.354 0.187
71.9952 3.292 0.185
72.0157 3.667 0.195
72.0361 3.104 0.180
72.0566 3.177 0.182
72.0771 3.417 0.189
72.0975 3.448 0.190
72.1180 3.604 0.194
72.1385 3.417 0.189
72.1589 3.740 0.197
72.1794 3.823 0.200
72.1998 3.625 0.194
72.2203 3.302 0.185
72.2408 3.490 0.191
72.2612 3.583 0.193
72.2817 3.677 0.196
72.3022 3.542 0.192
72.3226 3.469 0.190
72.3431 3.406 0.188
72.3635 3.271 0.185
72.3840 3.385 0.188
72.4045 3.469 0.190
72.4249 3.479 0.190
72.4454 3.292 0.185
72.4659 3.146 0.181
72.4863 3.875 0.201
72.5068 3.198 0.183
72.5272 3.104 0.180
72.5477 3.677 0.196
72.5682 3.188 0.182
72.5886 3.656 0.195
72.6091 3.438 0.189
72.6296 3.344 0.187
72.6500 3.240 0.184
72.6705 3.542 0.192
72.6909 3.594 0.193
72.7114 3.229 0.183
72.7319 3.688 0.196
72.7523 3.250 0.184
72.7728 3.375 0.188
72.7933 3.385 0.188
72.8137 3.333 0.186
72.8342 3.542 0.192
72.8547 3.250 0.184
72.8751 3.635 0.195
72.8956 3.656 0.195
72.9160 3.417 0.189
72.9365 3.781 0.198
72.9570 3.604 0.194
72.9774 3.156 0.181
72.9979 3.438 0.189
73.0184 3.323 0.186
73.0388 3.188 0.182
73.0593 3.646 0.195
73.0797 3.406 0.188
73.1002 3.500 0.191
73.1207 3.625 0.194
73.1411 3.115 0.180
73.1616 3.271 0.185
73.1821 3.510 0.191
73.2025 3.448 0.190
73.2230 3.271 0.185
73.2434 3.063 0.179
73.2639 3.281 0.185
73.2844 3.146 0.181
73.3048 3.563 0.193
73.3253 3.604 0.194
73.3458 3.115 0.180
73.3662 3.094 0.180
73.3867 3.573 0.193
73.4071 3.073 0.179
73.4276 3.135 0.181
73.4481 3.156 0.181
73.4685 2.917 0.174
73.4890 3.115 0.180
73.5095 3.375 0.188
73.5299 3.594 0.193
73.5504 3.010 0.177
73.5708 3.156 0.181
73.5913 3.094 0.180
73.6118 3.479 0.190
73.6322 3.240 0.184
73.6527 3.490 0.191
73.6732 3.271 0.185
73.6936 3.448 0.190
73.7141 3.146 0.181
73.7346 3.302 0.185
73.7550 2.896 0.174
73.7755 2.688 0.167
73.7959 3.417 0.189
73.8164 2.865 0.173
73.8369 3.240 0.184
73.8573 3.292 0.185
73.8778 3.010 0.177
73.8983 2.948 0.175
73.9187 3.083 0.179
73.9392 3.281 0.185
73.9596 3.125 0.180
73.9801 3.625 0.194
74.0006 3.354 0.187
74.0210 3.500 0.191
74.0415 3.292 0.185
74.0620 3.188 0.182
74.0824 3.344 0.187
74.1029 3.729 0.197
74.1233 3.500 0.191
74.1438 3.417 0.189
74.1643 3.490 0.191
74.1847 3.250 0.184
74.2052 3.365 0.187
74.2257 3.302 0.185
74.2461 3.354 0.187
74.2666 3.188 0.182
74.2870 3.271 0.185
74.3075 2.969 0.176
74.3280 3.135 0.181
74.3484 3.208 0.183
74.3689 3.490 0.191
74.3894 3.156 0.181
74.4098 3.375 0.188
74.4303 3.188 0.182
74.4507 2.833 0.172
74.4712 3.271 0.185
74.4917 2.906 0.174
74.5121 3.156 0.181
74.5326 3.063 0.179
74.5531 3.042 0.178
74.5735 3.010 0.177
74.5940 3.010 0.177
74.6145 2.979 0.176
74.6349 2.865 0.173
74.6554 3.188 0.182
74.6758 3.344 0.187
74.6963 3.156 0.181
74.7168 3.177 0.182
74.7372 3.156 0.181
74.7577 3.000 0.177
74.7782 3.073 0.179
74.7986 2.792 0.171
74.8191 3.177 0.182
74.8395 3.073 0.179
74.8600 2.917 0.174
74.8805 3.188 0.182
74.9009 3.292 0.185
74.9214 3.271 0.185
74.9419 3.021 0.177
74.9623 3.302 0.185
74.9828 3.250 0.184
75.0032 3.344 0.187
75.0237 3.240 0.184
75.0442 2.990 0.176
75.0646 2.875 0.173
75.0851 3.177 0.182
75.1056 3.094 0.180
75.1260 3.323 0.186
75.1465 3.427 0.189
75.1669 3.167 0.182
75.1874 2.948 0.175
75.2079 2.958 0.176
75.2283 3.229 0.183
75.2488 2.917 0.174
75.2693 3.271 0.185
75.2897 3.125 0.180
75.3102 3.198 0.183
75.3306 3.104 0.180
75.3511 3.417 0.189
75.3716 3.021 0.177
75.3920 3.073 0.179
75.4125 2.896 0.174
75.4330 3.448 0.190
75.4534 3.125 0.180
75.4739 2.948 0.175
75.4944 3.365 0.187
75.5148 3.042 0.178
75.5353 3.438 0.189
75.5557 3.063 0.179
75.5762 3.427 0.189
75.5967 3.417 0.189
75.6171 3.292 0.185
75.6376 3.250 0.184
75.6581 3.813 0.199
75.6785 3.677 0.196
75.6990 3.156 0.181
75.7194 3.708 0.197
75.7399 3.948 0.203
75.7604 3.594 0.193
75.7808 4.125 0.207
75.8013 3.896 0.201
75.8218 4.260 0.211
75.8422 4.229 0.210
75.8627 4.354 0.213
75.8831 3.948 0.203
75.9036 3.969 0.203
75.9241 3.823 0.200
75.9445 4.250 0.210
75.9650 4.083 0.206
75.9855 3.500 0.191
76.0059 4.031 0.205
76.0264 4.042 0.205
76.0468 4.063 0.206
76.0673 3.708 0.197
76.0878 3.635 0.195
76.1082 3.729 0.197
76.1287 3.625 0.194
76.1492 3.740 0.197
76.1696 3.938 0.203
76.1901 3.250 0.184
76.2105 3.479 0.190
76.2310 3.135 0.181
76.2515 3.302 0.185
76.2719 3.510 0.191
76.2924 3.458 0.190
76.3129 3.188 0.182
76.3333 3.573 0.193
76.3538 3.521 0.192
76.3743 3.135 0.181
76.3947 3.302 0.185
76.4152 3.281 0.185
76.4356 3.333 0.186
76.4561 3.396 0.188
76.4766 3.052 0.178
76.4970 3.375 0.188
76.5175 3.417 0.189
76.5380 3.229 0.183
76.5584 3.198 0.183
76.5789 3.490 0.191
76.5993 3.125 0.180
76.6198 3.490 0.191
76.6403 3.125 0.180
76.6607 3.469 0.190
76.6812 3.156 0.181
76.7017 3.167 0.182
76.7221 3.198 0.183
76.7426 3.313 0.186
76.7630 3.427 0.189
76.7835 3.104 0.180
76.8040 3.375 0.188
76.8244 3.063 0.179
76.8449 3.438 0.189
76.8654 3.250 0.184
76.8858 3.229 0.183
76.9063 3.042 0.178
76.9267 3.010 0.177
76.9472 3.000 0.177
76.9677 2.969 0.176
76.9881 3.125 0.180
77.0086 3.344 0.187
77.0291 2.625 0.165
77.0495 3.115 0.180
77.0700 3.271 0.185
77.0905 2.979 0.176
77.1109 3.177 0.182
77.1314 3.031 0.178
77.1518 3.229 0.183
77.1723 3.031 0.178
77.1928 3.156 0.181
77.2132 3.115 0.180
77.2337 3.115 0.180
77.2542 2.906 0.174
77.2746 3.677 0.196
77.2951 3.177 0.182
77.3155 3.198 0.183
77.3360 3.250 0.184
77.3565 3.260 0.184
77.3769 3.219 0.183
77.3974 3.313 0.186
77.4179 3.104 0.180
77.4383 3.490 0.191
77.4588 3.323 0.186
77.4792 3.583 0.193
77.4997 3.375 0.188
77.5202 3.604 0.194
77.5406 3.563 0.193
77.5611 3.344 0.187
77.5816 3.323 0.186
77.6020 3.177 0.182
77.6225 3.417 0.189
77.6429 3.333 0.186
77.6634 3.698 0.196
77.6839 3.708 0.197
77.7043 3.219 0.183
77.7248 3.625 0.194
77.7453 3.646 0.195
77.7657 3.375 0.188
77.7862 3.490 0.191
77.8066 3.594 0.193
77.8271 3.573 0.193
77.8476 3.552 0.192
77.8680 3.427 0.189
77.8885 3.458 0.190
77.9090 3.396 0.188
77.9294 3.521 0.192
77.9499 3.094 0.180
77.9704 3.469 0.190
77.9908 3.073 0.179
78.0113 3.229 0.183
78.0317 3.177 0.182
78.0522 3.792 0.199
78.0727 3.458 0.190
78.0931 3.229 0.183
78.1136 3.135 0.181
78.1341 3.167 0.182
78.1545 3.302 0.185
78.1750 3.052 0.178
78.1954 3.385 0.188
78.2159 3.281 0.185
78.2364 3.667 0.195
78.2568 3.427 0.189
78.2773 3.396 0.188
78.2978 3.396 0.188
78.3182 3.365 0.187
78.3387 3.208 0.183
78.3591 3.490 0.191
78.3796 3.469 0.190
78.4001 3.396 0.188
78.4205 3.323 0.186
78.4410 3.260 0.184
78.4615 3.646 0.195
78.4819 3.292 0.185
78.5024 3.427 0.189
78.5228 3.406 0.188
78.5433 3.219 0.183
78.5638 3.323 0.186
78.5842 3.156 0.181
78.6047 3.198 0.183
78.6252 3.125 0.180
78.6456 3.208 0.183
78.6661 3.365 0.187
78.6865 3.240 0.184
78.7070 3.365 0.187
78.7275 3.125 0.180
78.7479 3.146 0.181
78.7684 3.521 0.192
78.7889 3.385 0.188
78.8093 3.115 0.180
78.8298 3.188 0.182
78.8503 3.344 0.187
78.8707 3.156 0.181
78.8912 3.167 0.182
78.9116 3.490 0.191
78.9321 3.094 0.180
78.9526 3.146 0.181
78.9730 3.021 0.177
78.9935 3.396 0.188
79.0140 3.500 0.191
79.0344 3.240 0.184
79.0549 3.604 0.194
79.0753 3.563 0.193
79.0958 3.240 0.184
79.1163 3.354 0.187
79.1367 3.010 0.177
79.1572 3.302 0.185
79.1777 3.073 0.179
79.1981 3.479 0.190
79.2186 3.417 0.189
79.2390 3.083 0.179
79.2595 3.083 0.179
79.2800 3.219 0.183
79.3004 3.375 0.188
79.3209 3.604 0.194
79.3414 3.240 0.184
79.3618 3.521 0.192
79.3823 3.417 0.189
79.4027 3.260 0.184
79.4232 3.271 0.185
79.4437 3.458 0.190
79.4641 3.188 0.182
79.4846 3.365 0.187
79.5051 3.375 0.188
79.5255 3.292 0.185
79.5460 3.854 0.200
79.5664 3.271 0.185
79.5869 3.552 0.192
79.6074 3.552 0.192
79.6278 3.573 0.193
79.6483 3.469 0.190
79.6688 3.667 0.195
79.6892 3.677 0.196
79.7097 3.385 0.188
79.7302 3.510 0.191
79.7506 3.448 0.190
79.7711 3.552 0.192
79.7915 3.552 0.192
79.8120 3.365 0.187
79.8325 3.385 0.188
79.8529 3.625 0.194
79.8734 3.146 0.181
79.8939 3.396 0.188
79.9143 3.229 0.183
79.9348 3.146 0.181
79.9552 3.417 0.189
79.9757 2.969 0.176
79.9962 3.302 0.185
