'Id: "" Comment: "" Operator: "Lab Manager" Anode: "Cu" Scantype: "Locked Coupled" TimePerStep: "96" X: "0" Y: "0" Z: "0" 
5.0000 22.260 0.482
5.0205 20.969 0.467
5.0409 20.844 0.466
5.0614 20.990 0.468
5.0819 21.177 0.470
5.1023 21.604 0.474
5.1228 20.583 0.463
5.1432 20.677 0.464
5.1637 20.802 0.465
5.1842 21.510 0.473
5.2046 21.031 0.468
5.2251 20.917 0.467
5.2456 20.313 0.460
5.2660 20.823 0.466
5.2865 20.406 0.461
5.3069 20.781 0.465
5.3274 20.010 0.457
5.3479 21.146 0.469
5.3683 20.833 0.466
5.3888 21.167 0.470
5.4093 20.198 0.459
5.4297 20.260 0.459
5.4502 20.427 0.461
5.4706 19.823 0.454
5.4911 20.208 0.459
5.5116 20.104 0.458
5.5320 19.646 0.452
5.5525 20.042 0.457
5.5730 19.969 0.456
5.5934 19.688 0.453
5.6139 19.063 0.446
5.6343 19.396 0.449
5.6548 19.271 0.448
5.6753 18.844 0.443
5.6957 20.094 0.458
5.7162 19.146 0.447
5.7367 18.583 0.440
5.7571 19.094 0.446
5.7776 19.156 0.447
5.7980 19.302 0.448
5.8185 19.313 0.449
5.8390 19.208 0.447
5.8594 19.229 0.448
5.8799 18.573 0.440
5.9004 19.021 0.445
5.9208 19.813 0.454
5.9413 18.552 0.440
5.9618 18.417 0.438
5.9822 18.583 0.440
6.0027 18.490 0.439
6.0231 19.156 0.447
6.0436 18.635 0.441
6.0641 18.635 0.441
6.0845 18.229 0.436
6.1050 18.406 0.438
6.1255 18.510 0.439
6.1459 18.094 0.434
6.1664 18.740 0.442
6.1868 18.177 0.435
6.2073 18.823 0.443
6.2278 18.323 0.437
6.2482 17.375 0.425
6.2687 18.594 0.440
6.2892 18.396 0.438
6.3096 18.740 0.442
6.3301 19.563 0.451
6.3505 17.615 0.428
6.3710 17.698 0.429
6.3915 18.906 0.444
6.4119 18.740 0.442
6.4324 18.646 0.441
6.4529 17.906 0.432
6.4733 17.260 0.424
6.4938 17.875 0.432
6.5142 18.135 0.435
6.5347 18.573 0.440
6.5552 18.490 0.439
6.5756 18.354 0.437
6.5961 18.823 0.443
6.6166 19.115 0.446
6.6370 19.104 0.446
6.6575 18.521 0.439
6.6779 18.552 0.440
6.6984 18.573 0.440
6.7189 18.823 0.443
6.7393 18.781 0.442
6.7598 18.604 0.440
6.7803 19.802 0.454
6.8007 18.969 0.445
6.8212 19.302 0.448
6.8417 19.417 0.450
6.8621 20.333 0.460
6.8826 20.260 0.459
6.9030 20.385 0.461
6.9235 20.656 0.464
6.9440 21.135 0.469
6.9644 21.375 0.472
6.9849 22.792 0.487
7.0054 22.677 0.486
7.0258 24.688 0.507
7.0463 24.948 0.510
7.0667 27.365 0.534
7.0872 30.323 0.562
7.1077 28.938 0.549
7.1281 28.031 0.540
7.1486 27.510 0.535
7.1691 25.688 0.517
7.1895 25.917 0.520
7.2100 24.385 0.504
7.2304 22.906 0.488
7.2509 22.948 0.489
7.2714 21.708 0.476
7.2918 21.563 0.474
7.3123 20.688 0.464
7.3328 20.938 0.467
7.3532 20.552 0.463
7.3737 19.792 0.454
7.3941 20.760 0.465
7.4146 19.979 0.456
7.4351 19.125 0.446
7.4555 20.302 0.460
7.4760 20.135 0.458
7.4965 19.792 0.454
7.5169 20.208 0.459
7.5374 19.146 0.447
7.5579 20.115 0.458
7.5783 20.156 0.458
7.5988 18.990 0.445
7.6192 19.531 0.451
7.6397 19.385 0.449
7.6602 19.760 0.454
7.6806 20.094 0.458
7.7011 18.729 0.442
7.7216 18.521 0.439
7.7420 18.552 0.440
7.7625 19.885 0.455
7.7829 19.417 0.450
7.8034 19.063 0.446
7.8239 19.448 0.450
7.8443 20.052 0.457
7.8648 19.979 0.456
7.8853 20.167 0.458
7.9057 19.385 0.449
7.9262 19.208 0.447
7.9466 19.281 0.448
7.9671 20.146 0.458
7.9876 19.281 0.448
8.0080 18.854 0.443
8.0285 18.813 0.443
8.0490 19.521 0.451
8.0694 19.042 0.445
8.0899 20.000 0.456
8.1103 19.385 0.449
8.1308 19.938 0.456
8.1513 20.833 0.466
8.1717 19.677 0.453
8.1922 19.854 0.455
8.2127 19.771 0.454
8.2331 20.219 0.459
8.2536 20.083 0.457
8.2740 19.583 0.452
8.2945 19.698 0.453
8.3150 20.083 0.457
8.3354 20.021 0.457
8.3559 19.615 0.452
8.3764 19.750 0.454
8.3968 19.583 0.452
8.4173 19.896 0.455
8.4378 20.396 0.461
8.4582 19.875 0.455
8.4787 18.917 0.444
8.4991 20.646 0.464
8.5196 20.240 0.459
8.5401 20.844 0.466
8.5605 19.688 0.453
8.5810 20.542 0.463
8.6015 19.573 0.452
8.6219 19.000 0.445
8.6424 20.385 0.461
8.6628 19.979 0.456
8.6833 19.531 0.451
8.7038 20.042 0.457
8.7242 19.958 0.456
8.7447 20.354 0.460
8.7652 21.010 0.468
8.7856 21.656 0.475
8.8061 20.875 0.466
8.8265 23.063 0.490
8.8470 23.083 0.490
8.8675 23.854 0.498
8.8879 25.646 0.517
8.9084 24.615 0.506
8.9289 26.438 0.525
8.9493 28.125 0.541
8.9698 30.667 0.565
8.9902 33.010 0.586
9.0107 36.292 0.615
9.0312 43.104 0.670
9.0516 54.469 0.753
9.0721 72.229 0.867
9.0926 104.542 1.044
9.1130 144.792 1.228
9.1335 158.469 1.285
9.1539 104.260 1.042
9.1744 56.990 0.770
9.1949 41.042 0.654
9.2153 37.365 0.624
9.2358 38.563 0.634
9.2563 40.865 0.652
9.2767 45.344 0.687
9.2972 47.260 0.702
9.3177 50.292 0.724
9.3381 50.094 0.722
9.3586 49.229 0.716
9.3790 45.188 0.686
9.3995 44.865 0.684
9.4200 43.719 0.675
9.4404 43.438 0.673
9.4609 42.719 0.667
9.4814 41.688 0.659
9.5018 43.250 0.671
9.5223 44.010 0.677
9.5427 44.760 0.683
9.5632 46.969 0.699
9.5837 50.333 0.724
9.6041 51.646 0.733
9.6246 56.240 0.765
9.6451 59.208 0.785
9.6655 63.563 0.814
9.6860 68.313 0.844
9.7064 73.417 0.875
9.7269 80.104 0.913
9.7474 89.927 0.968
9.7678 104.792 1.045
9.7883 125.740 1.144
9.8088 154.531 1.269
9.8292 194.448 1.423
9.8497 257.604 1.638
9.8701 347.906 1.904
9.8906 465.823 2.203
9.9111 593.177 2.486
9.9315 565.708 2.428
9.9520 357.406 1.930
9.9725 178.906 1.365
9.9929 98.656 1.014
10.0134 74.156 0.879
10.0338 59.729 0.789
10.0543 52.156 0.737
10.0748 47.740 0.705
10.0952 43.865 0.676
10.1157 40.385 0.649
10.1362 36.417 0.616
10.1566 35.385 0.607
10.1771 30.938 0.568
10.1976 29.250 0.552
10.2180 26.313 0.524
10.2385 25.688 0.517
10.2589 25.198 0.512
10.2794 23.667 0.497
10.2999 24.813 0.508
10.3203 23.031 0.490
10.3408 22.635 0.486
10.3613 23.115 0.491
10.3817 22.417 0.483
10.4022 21.927 0.478
10.4226 21.135 0.469
10.4431 21.417 0.472
10.4636 20.760 0.465
10.4840 20.979 0.467
10.5045 20.698 0.464
10.5250 20.000 0.456
10.5454 19.969 0.456
10.5659 19.469 0.450
10.5863 19.417 0.450
10.6068 19.146 0.447
10.6273 19.635 0.452
10.6477 19.167 0.447
10.6682 19.010 0.445
10.6887 18.875 0.443
10.7091 19.083 0.446
10.7296 18.302 0.437
10.7500 18.177 0.435
10.7705 19.198 0.447
10.7910 18.146 0.435
10.8114 17.438 0.426
10.8319 17.719 0.430
10.8524 18.792 0.442
10.8728 17.833 0.431
10.8933 16.833 0.419
10.9137 17.135 0.422
10.9342 17.969 0.433
10.9547 17.719 0.430
10.9751 16.281 0.412
10.9956 16.948 0.420
11.0161 17.833 0.431
11.0365 17.260 0.424
11.0570 17.083 0.422
11.0775 16.229 0.411
11.0979 16.948 0.420
11.1184 16.094 0.409
11.1388 16.375 0.413
11.1593 15.875 0.407
11.1798 16.531 0.415
11.2002 15.667 0.404
11.2207 16.052 0.409
11.2412 16.073 0.409
11.2616 15.198 0.398
11.2821 16.010 0.408
11.3025 15.906 0.407
11.3230 15.677 0.404
11.3435 15.823 0.406
11.3639 15.542 0.402
11.3844 16.104 0.410
11.4049 15.292 0.399
11.4253 15.823 0.406
11.4458 15.625 0.403
11.4662 14.844 0.393
11.4867 15.292 0.399
11.5072 15.521 0.402
11.5276 15.615 0.403
11.5481 14.427 0.388
11.5686 15.125 0.397
11.5890 15.563 0.403
11.6095 14.458 0.388
11.6299 14.521 0.389
11.6504 15.427 0.401
11.6709 14.417 0.388
11.6913 15.406 0.401
11.7118 15.031 0.396
11.7323 14.573 0.390
11.7527 14.333 0.386
11.7732 13.906 0.381
11.7937 13.583 0.376
11.8141 14.406 0.387
11.8346 13.594 0.376
11.8550 13.594 0.376
11.8755 14.146 0.384
11.8960 13.323 0.373
11.9164 14.292 0.386
11.9369 13.948 0.381
11.9574 13.625 0.377
11.9778 14.240 0.385
11.9983 13.198 0.371
12.0187 13.438 0.374
12.0392 13.552 0.376
12.0597 13.583 0.376
12.0801 13.167 0.370
12.1006 13.656 0.377
12.1211 13.073 0.369
12.1415 13.677 0.377
12.1620 13.167 0.370
12.1824 13.115 0.370
12.2029 13.604 0.376
12.2234 13.292 0.372
12.2438 13.406 0.374
12.2643 13.344 0.373
12.2848 13.594 0.376
12.3052 13.833 0.380
12.3257 13.635 0.377
12.3461 14.135 0.384
12.3666 12.990 0.368
12.3871 12.917 0.367
12.4075 13.042 0.369
12.4280 13.219 0.371
12.4485 12.792 0.365
12.4689 13.135 0.370
12.4894 13.344 0.373
12.5098 12.531 0.361
12.5303 12.500 0.361
12.5508 12.844 0.366
12.5712 12.542 0.361
12.5917 12.344 0.359
12.6122 12.083 0.355
12.6326 12.438 0.360
12.6531 12.667 0.363
12.6736 12.542 0.361
12.6940 11.979 0.353
12.7145 12.115 0.355
12.7349 11.917 0.352
12.7554 11.667 0.349
12.7759 11.813 0.351
12.7963 12.042 0.354
12.8168 12.271 0.358
12.8373 11.927 0.352
12.8577 12.375 0.359
12.8782 11.927 0.352
12.8986 11.281 0.343
12.9191 12.042 0.354
12.9396 12.781 0.365
12.9600 11.469 0.346
12.9805 12.083 0.355
13.0010 11.281 0.343
13.0214 12.406 0.359
13.0419 11.323 0.343
13.0623 12.000 0.354
13.0828 11.063 0.339
13.1033 12.156 0.356
13.1237 11.688 0.349
13.1442 11.208 0.342
13.1647 11.583 0.347
13.1851 11.760 0.350
13.2056 11.906 0.352
13.2260 12.198 0.356
13.2465 12.313 0.358
13.2670 11.260 0.342
13.2874 11.365 0.344
13.3079 11.990 0.353
13.3284 10.823 0.336
13.3488 11.479 0.346
13.3693 11.073 0.340
13.3897 10.844 0.336
13.4102 11.427 0.345
13.4307 11.438 0.345
13.4511 11.458 0.345
13.4716 11.042 0.339
13.4921 11.073 0.340
13.5125 11.688 0.349
13.5330 11.792 0.350
13.5535 11.313 0.343
13.5739 11.854 0.351
13.5944 11.323 0.343
13.6148 11.438 0.345
13.6353 11.115 0.340
13.6558 11.427 0.345
13.6762 11.906 0.352
13.6967 11.063 0.339
13.7172 11.396 0.345
13.7376 11.135 0.341
13.7581 10.875 0.337
13.7785 12.115 0.355
13.7990 11.104 0.340
13.8195 11.677 0.349
13.8399 11.240 0.342
13.8604 11.031 0.339
13.8809 11.458 0.345
13.9013 11.885 0.352
13.9218 11.250 0.342
13.9422 11.385 0.344
13.9627 11.833 0.351
13.9832 11.406 0.345
14.0036 11.969 0.353
14.0241 11.365 0.344
14.0446 12.635 0.363
14.0650 12.042 0.354
14.0855 12.125 0.355
14.1059 13.271 0.372
14.1264 13.854 0.380
14.1469 13.635 0.377
14.1673 13.573 0.376
14.1878 13.427 0.374
14.2083 13.375 0.373
14.2287 13.167 0.370
14.2492 12.115 0.355
14.2696 12.104 0.355
14.2901 11.792 0.350
14.3106 10.771 0.335
14.3310 12.115 0.355
14.3515 10.802 0.335
14.3720 11.375 0.344
14.3924 11.542 0.347
14.4129 11.010 0.339
14.4334 11.146 0.341
14.4538 10.573 0.332
14.4743 10.688 0.334
14.4947 10.573 0.332
14.5152 10.396 0.329
14.5357 10.427 0.330
14.5561 10.813 0.336
14.5766 10.531 0.331
14.5971 11.125 0.340
14.6175 10.469 0.330
14.6380 10.490 0.331
14.6584 10.000 0.323
14.6789 10.083 0.324
14.6994 10.438 0.330
14.7198 10.094 0.324
14.7403 10.271 0.327
14.7608 10.656 0.333
14.7812 10.583 0.332
14.8017 10.104 0.324
14.8221 10.979 0.338
14.8426 10.531 0.331
14.8631 10.542 0.331
14.8835 9.646 0.317
14.9040 9.844 0.320
14.9245 9.969 0.322
14.9449 9.844 0.320
14.9654 10.250 0.327
14.9858 9.396 0.313
15.0063 9.688 0.318
15.0268 10.156 0.325
15.0472 10.781 0.335
15.0677 10.281 0.327
15.0882 9.594 0.316
15.1086 9.990 0.323
15.1291 9.458 0.314
15.1495 10.490 0.331
15.1700 9.833 0.320
15.1905 10.521 0.331
15.2109 10.021 0.323
15.2314 9.917 0.321
15.2519 10.594 0.332
15.2723 10.292 0.327
15.2928 10.771 0.335
15.3133 10.844 0.336
15.3337 10.427 0.330
15.3542 10.135 0.325
15.3746 11.156 0.341
15.3951 10.927 0.337
15.4156 10.667 0.333
15.4360 10.531 0.331
15.4565 10.021 0.323
15.4770 10.417 0.329
15.4974 10.156 0.325
15.5179 10.031 0.323
15.5383 9.792 0.319
15.5588 10.688 0.334
15.5793 10.656 0.333
15.5997 10.531 0.331
15.6202 10.896 0.337
15.6407 10.771 0.335
15.6611 11.615 0.348
15.6816 11.865 0.352
15.7020 13.198 0.371
15.7225 15.531 0.402
15.7430 21.125 0.469
15.7634 30.073 0.560
15.7839 45.542 0.689
15.8044 54.865 0.756
15.8248 43.021 0.669
15.8453 32.198 0.579
15.8657 20.552 0.463
15.8862 13.073 0.369
15.9067 11.677 0.349
15.9271 11.083 0.340
15.9476 10.688 0.334
15.9681 10.760 0.335
15.9885 9.615 0.316
16.0090 10.542 0.331
16.0295 10.146 0.325
16.0499 10.167 0.325
16.0704 10.156 0.325
16.0908 9.698 0.318
16.1113 10.073 0.324
16.1318 10.469 0.330
16.1522 9.625 0.317
16.1727 9.865 0.321
16.1932 9.406 0.313
16.2136 10.240 0.327
16.2341 9.927 0.322
16.2545 9.073 0.307
16.2750 9.563 0.316
16.2955 9.740 0.319
16.3159 10.177 0.326
16.3364 9.583 0.316
16.3569 9.802 0.320
16.3773 10.000 0.323
16.3978 9.615 0.316
16.4182 9.521 0.315
16.4387 10.229 0.326
16.4592 9.271 0.311
16.4796 9.208 0.310
16.5001 9.823 0.320
16.5206 10.417 0.329
16.5410 9.469 0.314
16.5615 9.271 0.311
16.5819 10.313 0.328
16.6024 9.344 0.312
16.6229 9.417 0.313
16.6433 10.031 0.323
16.6638 9.865 0.321
16.6843 9.635 0.317
16.7047 9.292 0.311
16.7252 10.031 0.323
16.7456 9.625 0.317
16.7661 9.833 0.320
16.7866 9.406 0.313
16.8070 10.375 0.329
16.8275 10.240 0.327
16.8480 9.375 0.313
16.8684 9.542 0.315
16.8889 10.125 0.325
16.9094 10.250 0.327
16.9298 9.979 0.322
16.9503 10.583 0.332
16.9707 10.323 0.328
16.9912 9.875 0.321
17.0117 9.854 0.320
17.0321 9.885 0.321
17.0526 10.083 0.324
17.0731 10.344 0.328
17.0935 10.344 0.328
17.1140 10.635 0.333
17.1344 10.000 0.323
17.1549 9.969 0.322
17.1754 9.792 0.319
17.1958 10.052 0.324
17.2163 10.260 0.327
17.2368 10.542 0.331
17.2572 10.531 0.331
17.2777 10.615 0.333
17.2981 10.677 0.333
17.3186 10.729 0.334
17.3391 10.979 0.338
17.3595 11.083 0.340
17.3800 11.250 0.342
17.4005 11.292 0.343
17.4209 11.385 0.344
17.4414 11.604 0.348
17.4618 12.115 0.355
17.4823 12.292 0.358
17.5028 11.615 0.348
17.5232 12.313 0.358
17.5437 12.052 0.354
17.5642 11.177 0.341
17.5846 12.583 0.362
17.6051 11.917 0.352
17.6255 12.083 0.355
17.6460 12.406 0.359
17.6665 11.604 0.348
17.6869 12.240 0.357
17.7074 12.760 0.365
17.7279 12.771 0.365
17.7483 13.323 0.373
17.7688 13.917 0.381
17.7893 15.292 0.399
17.8097 15.052 0.396
17.8302 18.156 0.435
17.8506 18.688 0.441
17.8711 17.615 0.428
17.8916 16.604 0.416
17.9120 15.271 0.399
17.9325 16.125 0.410
17.9530 17.104 0.422
17.9734 16.302 0.412
17.9939 16.010 0.408
18.0143 16.354 0.413
18.0348 16.927 0.420
18.0553 16.729 0.417
18.0757 17.594 0.428
18.0962 18.031 0.433
18.1167 18.354 0.437
18.1371 18.552 0.440
18.1576 17.948 0.432
18.1780 17.302 0.425
18.1985 18.990 0.445
18.2190 19.271 0.448
18.2394 20.688 0.464
18.2599 22.938 0.489
18.2804 21.281 0.471
18.3008 20.260 0.459
18.3213 21.781 0.476
18.3417 21.042 0.468
18.3622 21.604 0.474
18.3827 20.417 0.461
18.4031 20.698 0.464
18.4236 21.323 0.471
18.4441 22.865 0.488
18.4645 21.708 0.476
18.4850 22.479 0.484
18.5054 22.427 0.483
18.5259 23.292 0.493
18.5464 23.552 0.495
18.5668 24.323 0.503
18.5873 25.656 0.517
18.6078 25.396 0.514
18.6282 26.594 0.526
18.6487 27.344 0.534
18.6692 26.042 0.521
18.6896 25.844 0.519
18.7101 25.021 0.511
18.7305 24.167 0.502
18.7510 23.458 0.494
18.7715 23.063 0.490
18.7919 22.115 0.480
18.8124 20.479 0.462
18.8329 22.229 0.481
18.8533 22.115 0.480
18.8738 23.635 0.496
18.8942 25.188 0.512
18.9147 25.333 0.514
18.9352 23.417 0.494
18.9556 21.740 0.476
18.9761 20.667 0.464
18.9966 17.958 0.433
19.0170 17.990 0.433
19.0375 17.365 0.425
19.0579 16.792 0.418
19.0784 16.104 0.410
19.0989 15.958 0.408
19.1193 16.271 0.412
19.1398 15.750 0.405
19.1603 16.219 0.411
19.1807 16.479 0.414
19.2012 16.052 0.409
19.2216 16.771 0.418
19.2421 15.896 0.407
19.2626 15.542 0.402
19.2830 16.198 0.411
19.3035 15.323 0.400
19.3240 16.167 0.410
19.3444 15.625 0.403
19.3649 16.677 0.417
19.3853 15.875 0.407
19.4058 16.573 0.415
19.4263 16.323 0.412
19.4467 16.677 0.417
19.4672 17.000 0.421
19.4877 17.865 0.431
19.5081 18.844 0.443
19.5286 17.917 0.432
19.5491 19.906 0.455
19.5695 20.583 0.463
19.5900 22.104 0.480
19.6104 23.229 0.492
19.6309 24.615 0.506
19.6514 24.542 0.506
19.6718 27.719 0.537
19.6923 28.406 0.544
19.7128 31.865 0.576
19.7332 35.396 0.607
19.7537 41.240 0.655
19.7741 49.344 0.717
19.7946 61.823 0.802
19.8151 81.375 0.921
19.8355 116.344 1.101
19.8560 158.656 1.286
19.8765 153.531 1.265
19.8969 117.021 1.104
19.9174 97.958 1.010
19.9378 62.490 0.807
19.9583 38.479 0.633
19.9788 30.188 0.561
19.9992 25.573 0.516
20.0197 22.719 0.486
20.0402 22.042 0.479
20.0606 20.844 0.466
20.0811 20.000 0.456
20.1015 18.938 0.444
20.1220 18.646 0.441
20.1425 17.917 0.432
20.1629 18.083 0.434
20.1834 16.635 0.416
20.2039 17.604 0.428
20.2243 17.698 0.429
20.2448 17.073 0.422
20.2653 16.917 0.420
20.2857 18.094 0.434
20.3062 17.260 0.424
20.3266 17.604 0.428
20.3471 17.438 0.426
20.3676 17.094 0.422
20.3880 17.917 0.432
20.4085 18.219 0.436
20.4290 16.979 0.421
20.4494 16.948 0.420
20.4699 17.177 0.423
20.4903 16.292 0.412
20.5108 16.552 0.415
20.5313 16.146 0.410
20.5517 16.781 0.418
20.5722 16.406 0.413
20.5927 16.677 0.417
20.6131 15.354 0.400
20.6336 15.542 0.402
20.6540 15.490 0.402
20.6745 14.969 0.395
20.6950 14.844 0.393
20.7154 14.594 0.390
20.7359 14.052 0.383
20.7564 13.646 0.377
20.7768 13.635 0.377
20.7973 13.667 0.377
20.8177 13.417 0.374
20.8382 13.073 0.369
20.8587 12.875 0.366
20.8791 12.865 0.366
20.8996 13.469 0.375
20.9201 12.917 0.367
20.9405 13.031 0.368
20.9610 12.667 0.363
20.9814 13.313 0.372
21.0019 12.229 0.357
21.0224 12.708 0.364
21.0428 12.688 0.364
21.0633 13.063 0.369
21.0838 12.833 0.366
21.1042 12.167 0.356
21.1247 12.833 0.366
21.1452 13.458 0.374
21.1656 13.177 0.370
21.1861 14.094 0.383
21.2065 14.073 0.383
21.2270 15.115 0.397
21.2475 15.000 0.395
21.2679 15.125 0.397
21.2884 15.573 0.403
21.3089 14.583 0.390
21.3293 14.771 0.392
21.3498 14.010 0.382
21.3702 14.552 0.389
21.3907 13.813 0.379
21.4112 14.125 0.384
21.4316 13.615 0.377
21.4521 12.177 0.356
21.4726 12.302 0.358
21.4930 11.708 0.349
21.5135 11.677 0.349
21.5339 11.979 0.353
21.5544 11.406 0.345
21.5749 11.375 0.344
21.5953 11.052 0.339
21.6158 11.521 0.346
21.6363 10.896 0.337
21.6567 11.156 0.341
21.6772 11.375 0.344
21.6976 11.385 0.344
21.7181 11.781 0.350
21.7386 11.677 0.349
21.7590 11.313 0.343
21.7795 11.198 0.342
21.8000 10.760 0.335
21.8204 11.344 0.344
21.8409 10.781 0.335
21.8613 10.688 0.334
21.8818 10.573 0.332
21.9023 10.708 0.334
21.9227 10.688 0.334
21.9432 10.990 0.338
21.9637 10.885 0.337
21.9841 11.354 0.344
22.0046 10.844 0.336
22.0251 10.958 0.338
22.0455 11.271 0.343
22.0660 12.094 0.355
22.0864 12.417 0.360
22.1069 13.625 0.377
22.1274 14.240 0.385
22.1478 15.604 0.403
22.1683 18.781 0.442
22.1888 23.563 0.495
22.2092 28.594 0.546
22.2297 30.688 0.565
22.2501 27.260 0.533
22.2706 26.229 0.523
22.2911 23.260 0.492
22.3115 18.823 0.443
22.3320 16.760 0.418
22.3525 15.625 0.403
22.3729 14.646 0.391
22.3934 13.365 0.373
22.4138 13.313 0.372
22.4343 12.313 0.358
22.4548 12.177 0.356
22.4752 11.729 0.350
22.4957 11.906 0.352
22.5162 11.677 0.349
22.5366 11.531 0.347
22.5571 11.240 0.342
22.5775 10.917 0.337
22.5980 10.281 0.327
22.6185 10.698 0.334
22.6389 10.948 0.338
22.6594 11.500 0.346
22.6799 10.375 0.329
22.7003 11.094 0.340
22.7208 10.521 0.331
22.7412 10.813 0.336
22.7617 11.396 0.345
22.7822 10.917 0.337
22.8026 10.771 0.335
22.8231 11.042 0.339
22.8436 11.052 0.339
22.8640 11.979 0.353
22.8845 13.438 0.374
22.9050 16.250 0.411
22.9254 20.052 0.457
22.9459 19.104 0.446
22.9663 16.740 0.418
22.9868 15.583 0.403
23.0073 13.583 0.376
23.0277 11.427 0.345
23.0482 10.792 0.335
23.0687 10.271 0.327
23.0891 10.344 0.328
23.1096 10.323 0.328
23.1300 10.094 0.324
23.1505 9.771 0.319
23.1710 9.385 0.313
23.1914 10.469 0.330
23.2119 9.396 0.313
23.2324 9.094 0.308
23.2528 9.958 0.322
23.2733 9.813 0.320
23.2937 9.656 0.317
23.3142 9.438 0.314
23.3347 9.375 0.313
23.3551 9.500 0.315
23.3756 9.552 0.315
23.3961 9.646 0.317
23.4165 9.823 0.320
23.4370 10.323 0.328
23.4574 9.927 0.322
23.4779 9.344 0.312
23.4984 10.281 0.327
23.5188 9.990 0.323
23.5393 10.052 0.324
23.5598 11.146 0.341
23.5802 10.729 0.334
23.6007 10.656 0.333
23.6211 11.427 0.345
23.6416 11.104 0.340
23.6621 11.583 0.347
23.6825 11.375 0.344
23.7030 10.896 0.337
23.7235 10.896 0.337
23.7439 11.073 0.340
23.7644 10.906 0.337
23.7849 10.010 0.323
23.8053 9.813 0.320
23.8258 10.313 0.328
23.8462 9.677 0.317
23.8667 9.208 0.310
23.8872 9.417 0.313
23.9076 8.969 0.306
23.9281 9.333 0.312
23.9486 9.406 0.313
23.9690 9.063 0.307
23.9895 9.344 0.312
24.0099 8.677 0.301
24.0304 8.813 0.303
24.0509 8.229 0.293
24.0713 8.563 0.299
24.0918 8.292 0.294
24.1123 8.844 0.304
24.1327 8.958 0.305
24.1532 9.083 0.308
24.1736 8.875 0.304
24.1941 9.708 0.318
24.2146 10.365 0.329
24.2350 9.875 0.321
24.2555 9.854 0.320
24.2760 9.896 0.321
24.2964 9.708 0.318
24.3169 9.896 0.321
24.3373 10.323 0.328
24.3578 10.583 0.332
24.3783 10.271 0.327
24.3987 9.969 0.322
24.4192 10.344 0.328
24.4397 9.396 0.313
24.4601 9.104 0.308
24.4806 9.052 0.307
24.5011 8.938 0.305
24.5215 8.396 0.296
24.5420 8.094 0.290
24.5624 8.354 0.295
24.5829 8.698 0.301
24.6034 8.510 0.298
24.6238 9.031 0.307
24.6443 9.250 0.310
24.6648 8.833 0.303
24.6852 9.271 0.311
24.7057 10.479 0.330
24.7261 9.885 0.321
24.7466 9.885 0.321
24.7671 9.729 0.318
24.7875 9.010 0.306
24.8080 8.667 0.300
24.8285 8.625 0.300
24.8489 8.250 0.293
24.8694 8.542 0.298
24.8898 8.469 0.297
24.9103 8.646 0.300
24.9308 8.250 0.293
24.9512 8.458 0.297
24.9717 8.167 0.292
24.9922 8.635 0.300
25.0126 8.167 0.292
25.0331 8.083 0.290
25.0535 8.385 0.296
25.0740 7.792 0.285
25.0945 8.240 0.293
25.1149 7.927 0.287
25.1354 7.688 0.283
25.1559 8.031 0.289
25.1763 7.979 0.288
25.1968 8.115 0.291
25.2172 8.042 0.289
25.2377 8.250 0.293
25.2582 8.354 0.295
25.2786 8.229 0.293
25.2991 8.615 0.300
25.3196 7.771 0.285
25.3400 8.229 0.293
25.3605 7.563 0.281
25.3810 8.188 0.292
25.4014 8.198 0.292
25.4219 8.260 0.293
25.4423 7.875 0.286
25.4628 8.677 0.301
25.4833 8.250 0.293
25.5037 8.438 0.296
25.5242 8.438 0.296
25.5447 8.740 0.302
25.5651 9.583 0.316
25.5856 11.938 0.353
25.6060 13.740 0.378
25.6265 14.552 0.389
25.6470 12.292 0.358
25.6674 11.802 0.351
25.6879 11.781 0.350
25.7084 9.802 0.320
25.7288 8.948 0.305
25.7493 8.625 0.300
25.7697 8.250 0.293
25.7902 8.344 0.295
25.8107 8.792 0.303
25.8311 8.094 0.290
25.8516 8.000 0.289
25.8721 7.677 0.283
25.8925 7.906 0.287
25.9130 7.917 0.287
25.9334 8.188 0.292
25.9539 7.760 0.284
25.9744 8.396 0.296
25.9948 7.927 0.287
26.0153 8.260 0.293
26.0358 8.427 0.296
26.0562 8.083 0.290
26.0767 8.583 0.299
26.0971 8.802 0.303
26.1176 8.542 0.298
26.1381 8.219 0.293
26.1585 8.563 0.299
26.1790 7.500 0.280
26.1995 8.219 0.293
26.2199 7.906 0.287
26.2404 8.406 0.296
26.2609 7.865 0.286
26.2813 8.500 0.298
26.3018 8.583 0.299
26.3222 8.438 0.296
26.3427 7.781 0.285
26.3632 7.781 0.285
26.3836 7.990 0.288
26.4041 8.021 0.289
26.4246 7.448 0.279
26.4450 8.021 0.289
26.4655 8.469 0.297
26.4859 8.438 0.296
26.5064 8.271 0.294
26.5269 7.750 0.284
26.5473 8.667 0.300
26.5678 8.010 0.289
26.5883 8.281 0.294
26.6087 7.875 0.286
26.6292 7.885 0.287
26.6496 7.740 0.284
26.6701 7.979 0.288
26.6906 8.406 0.296
26.7110 7.917 0.287
26.7315 7.865 0.286
26.7520 7.771 0.285
26.7724 8.125 0.291
26.7929 8.635 0.300
26.8133 8.240 0.293
26.8338 8.365 0.295
26.8543 8.177 0.292
26.8747 8.354 0.295
26.8952 7.854 0.286
26.9157 8.260 0.293
26.9361 8.490 0.297
26.9566 8.542 0.298
26.9770 8.271 0.294
26.9975 7.927 0.287
27.0180 8.135 0.291
27.0384 7.844 0.286
27.0589 8.323 0.294
27.0794 8.698 0.301
27.0998 8.302 0.294
27.1203 7.760 0.284
27.1408 8.031 0.289
27.1612 7.969 0.288
27.1817 8.323 0.294
27.2021 8.031 0.289
27.2226 8.198 0.292
27.2431 8.885 0.304
27.2635 9.073 0.307
27.2840 9.813 0.320
27.3045 8.365 0.295
27.3249 8.656 0.300
27.3454 8.698 0.301
27.3658 8.135 0.291
27.3863 8.146 0.291
27.4068 8.333 0.295
27.4272 8.365 0.295
27.4477 8.885 0.304
27.4682 9.625 0.317
27.4886 13.344 0.373
27.5091 15.677 0.404
27.5295 14.729 0.392
27.5500 10.927 0.337
27.5705 11.958 0.353
27.5909 12.688 0.364
27.6114 9.656 0.317
27.6319 8.510 0.298
27.6523 8.302 0.294
27.6728 8.594 0.299
27.6932 8.167 0.292
27.7137 7.677 0.283
27.7342 8.000 0.289
27.7546 8.385 0.296
27.7751 7.948 0.288
27.7956 7.885 0.287
27.8160 7.458 0.279
27.8365 7.917 0.287
27.8569 8.510 0.298
27.8774 7.885 0.287
27.8979 7.906 0.287
27.9183 7.750 0.284
27.9388 7.906 0.287
27.9593 7.958 0.288
27.9797 7.760 0.284
28.0002 7.885 0.287
28.0207 7.917 0.287
28.0411 8.052 0.290
28.0616 7.875 0.286
28.0820 7.781 0.285
28.1025 8.219 0.293
28.1230 8.198 0.292
28.1434 7.823 0.285
28.1639 7.198 0.274
28.1844 8.240 0.293
28.2048 7.875 0.286
28.2253 7.365 0.277
28.2457 7.385 0.277
28.2662 8.000 0.289
28.2867 8.219 0.293
28.3071 7.313 0.276
28.3276 7.615 0.282
28.3481 7.615 0.282
28.3685 7.333 0.276
28.3890 7.250 0.275
28.4094 7.125 0.272
28.4299 7.990 0.288
28.4504 7.365 0.277
28.4708 7.563 0.281
28.4913 7.927 0.287
28.5118 8.010 0.289
28.5322 7.781 0.285
28.5527 8.125 0.291
28.5731 7.260 0.275
28.5936 7.719 0.284
28.6141 7.521 0.280
28.6345 7.719 0.284
28.6550 7.771 0.285
28.6755 7.760 0.284
28.6959 7.635 0.282
28.7164 7.115 0.272
28.7368 8.167 0.292
28.7573 7.854 0.286
28.7778 8.208 0.292
28.7982 7.844 0.286
28.8187 7.792 0.285
28.8392 7.323 0.276
28.8596 7.500 0.280
28.8801 7.865 0.286
28.9006 7.521 0.280
28.9210 6.615 0.262
28.9415 7.521 0.280
28.9619 7.156 0.273
28.9824 7.552 0.280
29.0029 7.375 0.277
29.0233 7.313 0.276
29.0438 7.333 0.276
29.0643 7.781 0.285
29.0847 7.208 0.274
29.1052 7.698 0.283
29.1256 7.104 0.272
29.1461 7.479 0.279
29.1666 7.896 0.287
29.1870 7.198 0.274
29.2075 7.656 0.282
29.2280 7.448 0.279
29.2484 7.344 0.277
29.2689 7.417 0.278
29.2893 7.135 0.273
29.3098 7.469 0.279
29.3303 8.135 0.291
29.3507 7.865 0.286
29.3712 8.313 0.294
29.3917 8.250 0.293
29.4121 8.333 0.295
29.4326 8.750 0.302
29.4530 7.823 0.285
29.4735 7.979 0.288
29.4940 7.406 0.278
29.5144 7.740 0.284
29.5349 7.625 0.282
29.5554 7.917 0.287
29.5758 7.979 0.288
29.5963 7.917 0.287
29.6168 8.458 0.297
29.6372 8.354 0.295
29.6577 7.396 0.278
29.6781 7.688 0.283
29.6986 8.042 0.289
29.7191 7.542 0.280
29.7395 7.646 0.282
29.7600 7.156 0.273
29.7805 7.177 0.273
29.8009 7.281 0.275
29.8214 7.240 0.275
29.8418 6.938 0.269
29.8623 6.833 0.267
29.8828 7.031 0.271
29.9032 7.031 0.271
29.9237 7.083 0.272
29.9442 7.094 0.272
29.9646 7.094 0.272
29.9851 6.708 0.264
30.0055 7.375 0.277
30.0260 7.354 0.277
30.0465 7.125 0.272
30.0669 7.094 0.272
30.0874 7.448 0.279
30.1079 6.927 0.269
30.1283 7.240 0.275
30.1488 6.854 0.267
30.1692 7.594 0.281
30.1897 6.969 0.269
30.2102 7.240 0.275
30.2306 6.875 0.268
30.2511 6.948 0.269
30.2716 6.969 0.269
30.2920 7.188 0.274
30.3125 7.323 0.276
30.3329 6.990 0.270
30.3534 6.948 0.269
30.3739 6.396 0.258
30.3943 6.604 0.262
30.4148 7.021 0.270
30.4353 7.135 0.273
30.4557 7.156 0.273
30.4762 7.135 0.273
30.4967 7.146 0.273
30.5171 7.073 0.271
30.5376 6.510 0.260
30.5580 7.188 0.274
30.5785 6.906 0.268
30.5990 7.156 0.273
30.6194 6.927 0.269
30.6399 7.188 0.274
30.6604 7.063 0.271
30.6808 7.260 0.275
30.7013 7.073 0.271
30.7217 7.208 0.274
30.7422 7.469 0.279
30.7627 7.354 0.277
30.7831 7.865 0.286
30.8036 7.865 0.286
30.8241 8.208 0.292
30.8445 8.250 0.293
30.8650 8.208 0.292
30.8854 8.479 0.297
30.9059 8.896 0.304
30.9264 8.708 0.301
30.9468 9.917 0.321
30.9673 12.073 0.355
30.9878 14.021 0.382
31.0082 18.979 0.445
31.0287 27.844 0.539
31.0491 37.000 0.621
31.0696 38.354 0.632
31.0901 37.771 0.627
31.1105 36.583 0.617
31.1310 33.813 0.593
31.1515 30.021 0.559
31.1719 23.615 0.496
31.1924 19.823 0.454
31.2128 15.635 0.404
31.2333 12.656 0.363
31.2538 11.208 0.342
31.2742 9.583 0.316
31.2947 8.958 0.305
31.3152 9.115 0.308
31.3356 8.552 0.298
31.3561 8.969 0.306
31.3766 8.802 0.303
31.3970 8.719 0.301
31.4175 8.042 0.289
31.4379 8.188 0.292
31.4584 7.708 0.283
31.4789 7.594 0.281
31.4993 7.583 0.281
31.5198 7.781 0.285
31.5403 6.990 0.270
31.5607 7.292 0.276
31.5812 6.958 0.269
31.6016 6.906 0.268
31.6221 7.625 0.282
31.6426 6.917 0.268
31.6630 7.271 0.275
31.6835 6.688 0.264
31.7040 7.135 0.273
31.7244 7.313 0.276
31.7449 7.417 0.278
31.7653 7.281 0.275
31.7858 7.531 0.280
31.8063 6.854 0.267
31.8267 8.000 0.289
31.8472 8.250 0.293
31.8677 9.104 0.308
31.8881 8.167 0.292
31.9086 7.688 0.283
31.9290 7.760 0.284
31.9495 7.958 0.288
31.9700 8.063 0.290
31.9904 7.917 0.287
32.0109 7.500 0.280
32.0314 7.583 0.281
32.0518 7.760 0.284
32.0723 7.771 0.285
32.0927 8.604 0.299
32.1132 8.177 0.292
32.1337 8.885 0.304
32.1541 9.490 0.314
32.1746 9.333 0.312
32.1951 10.250 0.327
32.2155 11.979 0.353
32.2360 13.927 0.381
32.2565 15.083 0.396
32.2769 13.052 0.369
32.2974 11.208 0.342
32.3178 12.292 0.358
32.3383 11.604 0.348
32.3588 10.771 0.335
32.3792 9.906 0.321
32.3997 9.594 0.316
32.4202 9.042 0.307
32.4406 9.708 0.318
32.4611 10.656 0.333
32.4815 10.958 0.338
32.5020 11.115 0.340
32.5225 11.094 0.340
32.5429 11.875 0.352
32.5634 12.333 0.358
32.5839 12.740 0.364
32.6043 14.344 0.387
32.6248 15.729 0.405
32.6452 17.573 0.428
32.6657 16.865 0.419
32.6862 14.990 0.395
32.7066 13.625 0.377
32.7271 13.094 0.369
32.7476 11.896 0.352
32.7680 10.396 0.329
32.7885 9.552 0.315
32.8089 8.719 0.301
32.8294 8.573 0.299
32.8499 7.906 0.287
32.8703 8.063 0.290
32.8908 7.542 0.280
32.9113 7.771 0.285
32.9317 7.802 0.285
32.9522 8.042 0.289
32.9726 7.375 0.277
32.9931 7.427 0.278
33.0136 7.781 0.285
33.0340 7.052 0.271
33.0545 7.667 0.283
33.0750 7.042 0.271
33.0954 7.396 0.278
33.1159 7.365 0.277
33.1364 7.635 0.282
33.1568 7.979 0.288
33.1773 8.708 0.301
33.1977 9.729 0.318
33.2182 8.583 0.299
33.2387 7.990 0.288
33.2591 8.625 0.300
33.2796 8.667 0.300
33.3001 8.594 0.299
33.3205 6.677 0.264
33.3410 7.719 0.284
33.3614 7.250 0.275
33.3819 7.906 0.287
33.4024 7.406 0.278
33.4228 7.594 0.281
33.4433 7.354 0.277
33.4638 7.354 0.277
33.4842 7.844 0.286
33.5047 7.865 0.286
33.5251 7.375 0.277
33.5456 6.990 0.270
33.5661 7.323 0.276
33.5865 7.000 0.270
33.6070 6.667 0.264
33.6275 6.510 0.260
33.6479 7.344 0.277
33.6684 7.208 0.274
33.6888 6.708 0.264
33.7093 6.531 0.261
33.7298 6.906 0.268
33.7502 6.792 0.266
33.7707 6.833 0.267
33.7912 6.177 0.254
33.8116 6.542 0.261
33.8321 6.938 0.269
33.8526 6.573 0.262
33.8730 6.875 0.268
33.8935 6.854 0.267
33.9139 6.792 0.266
33.9344 7.115 0.272
33.9549 6.938 0.269
33.9753 6.760 0.265
33.9958 6.969 0.269
34.0163 6.990 0.270
34.0367 7.438 0.278
34.0572 7.531 0.280
34.0776 7.750 0.284
34.0981 7.313 0.276
34.1186 7.219 0.274
34.1390 7.531 0.280
34.1595 7.542 0.280
34.1800 8.042 0.289
34.2004 7.906 0.287
34.2209 9.135 0.308
34.2413 10.969 0.338
34.2618 12.281 0.358
34.2823 11.333 0.344
34.3027 9.688 0.318
34.3232 9.490 0.314
34.3437 10.031 0.323
34.3641 9.396 0.313
34.3846 8.615 0.300
34.4050 7.490 0.279
34.4255 7.813 0.285
34.4460 7.792 0.285
34.4664 7.583 0.281
34.4869 7.500 0.280
34.5074 6.896 0.268
34.5278 6.813 0.266
34.5483 7.000 0.270
34.5687 6.563 0.261
34.5892 6.708 0.264
34.6097 6.938 0.269
34.6301 6.573 0.262
34.6506 6.969 0.269
34.6711 7.063 0.271
34.6915 7.031 0.271
34.7120 6.740 0.265
34.7325 6.896 0.268
34.7529 7.375 0.277
34.7734 6.760 0.265
34.7938 6.760 0.265
34.8143 7.260 0.275
34.8348 7.354 0.277
34.8552 7.052 0.271
34.8757 7.250 0.275
34.8962 7.781 0.285
34.9166 8.323 0.294
34.9371 8.958 0.305
34.9575 11.021 0.339
34.9780 13.750 0.378
34.9985 13.854 0.380
35.0189 11.458 0.345
35.0394 10.021 0.323
35.0599 10.760 0.335
35.0803 10.948 0.338
35.1008 9.573 0.316
35.1212 8.604 0.299
35.1417 7.896 0.287
35.1622 7.396 0.278
35.1826 7.510 0.280
35.2031 6.833 0.267
35.2236 7.729 0.284
35.2440 7.344 0.277
35.2645 7.156 0.273
35.2849 7.271 0.275
35.3054 7.313 0.276
35.3259 7.302 0.276
35.3463 7.156 0.273
35.3668 7.271 0.275
35.3873 7.104 0.272
35.4077 7.552 0.280
35.4282 7.250 0.275
35.4486 7.104 0.272
35.4691 7.417 0.278
35.4896 7.281 0.275
35.5100 7.885 0.287
35.5305 7.521 0.280
35.5510 8.406 0.296
35.5714 7.802 0.285
35.5919 7.927 0.287
35.6124 7.948 0.288
35.6328 7.979 0.288
35.6533 7.927 0.287
35.6737 7.479 0.279
35.6942 7.146 0.273
35.7147 7.281 0.275
35.7351 8.021 0.289
35.7556 7.385 0.277
35.7761 7.583 0.281
35.7965 7.917 0.287
35.8170 8.104 0.291
35.8374 8.115 0.291
35.8579 8.542 0.298
35.8784 8.281 0.294
35.8988 8.625 0.300
35.9193 8.906 0.305
35.9398 9.104 0.308
35.9602 9.104 0.308
35.9807 9.365 0.312
36.0011 9.479 0.314
36.0216 10.167 0.325
36.0421 10.792 0.335
36.0625 11.802 0.351
36.0830 11.927 0.352
36.1035 12.719 0.364
36.1239 12.625 0.363
36.1444 14.063 0.383
36.1648 14.458 0.388
36.1853 15.802 0.406
36.2058 15.844 0.406
36.2262 15.594 0.403
36.2467 15.458 0.401
36.2672 15.354 0.400
36.2876 15.333 0.400
36.3081 14.271 0.386
36.3285 14.063 0.383
36.3490 13.365 0.373
36.3695 13.656 0.377
36.3899 14.698 0.391
36.4104 14.469 0.388
36.4309 14.281 0.386
36.4513 15.406 0.401
36.4718 15.948 0.408
36.4923 15.552 0.402
36.5127 15.927 0.407
36.5332 16.188 0.411
36.5536 17.521 0.427
36.5741 18.146 0.435
36.5946 19.313 0.449
36.6150 20.948 0.467
36.6355 21.823 0.477
36.6560 20.250 0.459
36.6764 18.375 0.438
36.6969 18.698 0.441
36.7173 18.354 0.437
36.7378 16.438 0.414
36.7583 16.917 0.420
36.7787 14.917 0.394
36.7992 14.688 0.391
36.8197 13.906 0.381
36.8401 14.104 0.383
36.8606 14.750 0.392
36.8810 14.177 0.384
36.9015 13.438 0.374
36.9220 15.031 0.396
36.9424 14.344 0.387
36.9629 15.000 0.395
36.9834 15.375 0.400
37.0038 16.333 0.412
37.0243 17.323 0.425
37.0447 18.844 0.443
37.0652 20.906 0.467
37.0857 22.354 0.483
37.1061 24.135 0.501
37.1266 23.510 0.495
37.1471 21.583 0.474
37.1675 19.635 0.452
37.1880 18.563 0.440
37.2084 17.833 0.431
37.2289 16.521 0.415
37.2494 14.885 0.394
37.2698 14.677 0.391
37.2903 14.302 0.386
37.3108 12.917 0.367
37.3312 12.094 0.355
37.3517 12.177 0.356
37.3722 11.563 0.347
37.3926 11.615 0.348
37.4131 11.010 0.339
37.4335 10.281 0.327
37.4540 10.917 0.337
37.4745 10.396 0.329
37.4949 10.833 0.336
37.5154 10.521 0.331
37.5359 10.438 0.330
37.5563 9.802 0.320
37.5768 9.990 0.323
37.5972 9.927 0.322
37.6177 9.781 0.319
37.6382 9.792 0.319
37.6586 9.625 0.317
37.6791 10.396 0.329
37.6996 9.583 0.316
37.7200 10.010 0.323
37.7405 9.052 0.307
37.7609 10.031 0.323
37.7814 9.438 0.314
37.8019 9.615 0.316
37.8223 9.948 0.322
37.8428 10.271 0.327
37.8633 10.583 0.332
37.8837 10.458 0.330
37.9042 10.917 0.337
37.9246 10.677 0.333
37.9451 11.219 0.342
37.9656 11.583 0.347
37.9860 11.573 0.347
38.0065 12.750 0.364
38.0270 13.302 0.372
38.0474 14.500 0.389
38.0679 14.313 0.386
38.0884 14.438 0.388
38.1088 14.438 0.388
38.1293 13.469 0.375
38.1497 13.688 0.378
38.1702 13.646 0.377
38.1907 13.219 0.371
38.2111 12.938 0.367
38.2316 12.792 0.365
38.2521 12.688 0.364
38.2725 13.385 0.373
38.2930 11.510 0.346
38.3134 12.385 0.359
38.3339 11.594 0.348
38.3544 11.365 0.344
38.3748 10.844 0.336
38.3953 12.010 0.354
38.4158 11.458 0.345
38.4362 11.531 0.347
38.4567 12.292 0.358
38.4771 12.573 0.362
38.4976 12.708 0.364
38.5181 12.354 0.359
38.5385 11.542 0.347
38.5590 11.646 0.348
38.5795 11.427 0.345
38.5999 11.552 0.347
38.6204 10.896 0.337
38.6408 10.531 0.331
38.6613 10.177 0.326
38.6818 10.167 0.325
38.7022 9.302 0.311
38.7227 9.771 0.319
38.7432 9.521 0.315
38.7636 9.208 0.310
38.7841 9.594 0.316
38.8045 9.458 0.314
38.8250 9.146 0.309
38.8455 9.135 0.308
38.8659 9.177 0.309
38.8864 9.219 0.310
38.9069 9.115 0.308
38.9273 9.260 0.311
38.9478 9.167 0.309
38.9683 9.323 0.312
38.9887 9.552 0.315
39.0092 8.771 0.302
39.0296 9.021 0.307
39.0501 9.563 0.316
39.0706 8.833 0.303
39.0910 9.688 0.318
39.1115 9.521 0.315
39.1320 8.781 0.302
39.1524 8.479 0.297
39.1729 8.677 0.301
39.1933 9.115 0.308
39.2138 8.500 0.298
39.2343 8.781 0.302
39.2547 8.646 0.300
39.2752 8.760 0.302
39.2957 8.969 0.306
39.3161 8.865 0.304
39.3366 9.635 0.317
39.3570 8.656 0.300
39.3775 9.094 0.308
39.3980 9.010 0.306
39.4184 8.875 0.304
39.4389 9.469 0.314
39.4594 9.208 0.310
39.4798 9.490 0.314
39.5003 8.833 0.303
39.5207 9.229 0.310
39.5412 9.333 0.312
39.5617 9.104 0.308
39.5821 8.938 0.305
39.6026 9.135 0.308
39.6231 9.448 0.314
39.6435 8.740 0.302
39.6640 9.042 0.307
39.6844 8.573 0.299
39.7049 8.875 0.304
39.7254 9.521 0.315
39.7458 9.188 0.309
39.7663 9.583 0.316
39.7868 9.292 0.311
39.8072 9.844 0.320
39.8277 9.938 0.322
39.8482 9.354 0.312
39.8686 9.115 0.308
39.8891 9.406 0.313
39.9095 8.781 0.302
39.9300 9.417 0.313
39.9505 9.313 0.311
39.9709 8.844 0.304
39.9914 8.271 0.294
40.0119 8.510 0.298
40.0323 8.021 0.289
40.0528 8.542 0.298
40.0732 8.833 0.303
40.0937 8.771 0.302
40.1142 8.448 0.297
40.1346 8.521 0.298
40.1551 8.281 0.294
40.1756 8.208 0.292
40.1960 8.323 0.294
40.2165 9.344 0.312
40.2369 9.469 0.314
40.2574 10.229 0.326
40.2779 10.344 0.328
40.2983 11.667 0.349
40.3188 11.021 0.339
40.3393 10.969 0.338
40.3597 10.563 0.332
40.3802 11.646 0.348
40.4006 12.063 0.354
40.4211 11.479 0.346
40.4416 10.198 0.326
40.4620 8.896 0.304
40.4825 9.021 0.307
40.5030 9.156 0.309
40.5234 9.167 0.309
40.5439 8.604 0.299
40.5643 7.740 0.284
40.5848 8.344 0.295
40.6053 7.917 0.287
40.6257 8.573 0.299
40.6462 8.135 0.291
40.6667 7.948 0.288
40.6871 8.250 0.293
40.7076 8.500 0.298
40.7281 8.417 0.296
40.7485 9.063 0.307
40.7690 9.292 0.311
40.7894 10.250 0.327
40.8099 12.458 0.360
40.8304 13.375 0.373
40.8508 12.271 0.358
40.8713 11.125 0.340
40.8918 9.302 0.311
40.9122 10.427 0.330
40.9327 10.833 0.336
40.9531 10.292 0.327
40.9736 10.000 0.323
40.9941 8.760 0.302
41.0145 8.604 0.299
41.0350 9.073 0.307
41.0555 8.250 0.293
41.0759 8.406 0.296
41.0964 8.896 0.304
41.1168 9.760 0.319
41.1373 10.167 0.325
41.1578 11.021 0.339
41.1782 10.875 0.337
41.1987 10.260 0.327
41.2192 10.021 0.323
41.2396 10.177 0.326
41.2601 9.021 0.307
41.2805 10.531 0.331
41.3010 9.917 0.321
41.3215 9.406 0.313
41.3419 8.771 0.302
41.3624 8.521 0.298
41.3829 8.635 0.300
41.4033 8.146 0.291
41.4238 8.510 0.298
41.4442 7.875 0.286
41.4647 7.563 0.281
41.4852 7.802 0.285
41.5056 7.292 0.276
41.5261 7.427 0.278
41.5466 6.969 0.269
41.5670 6.948 0.269
41.5875 7.063 0.271
41.6080 7.625 0.282
41.6284 7.313 0.276
41.6489 7.063 0.271
41.6693 7.167 0.273
41.6898 7.427 0.278
41.7103 7.125 0.272
41.7307 7.177 0.273
41.7512 7.219 0.274
41.7717 7.073 0.271
41.7921 7.031 0.271
41.8126 7.260 0.275
41.8330 7.271 0.275
41.8535 8.094 0.290
41.8740 8.302 0.294
41.8944 9.302 0.311
41.9149 11.146 0.341
41.9354 9.969 0.322
41.9558 8.875 0.304
41.9763 8.198 0.292
41.9967 8.990 0.306
42.0172 9.385 0.313
42.0377 8.875 0.304
42.0581 8.344 0.295
42.0786 7.740 0.284
42.0991 7.500 0.280
42.1195 7.677 0.283
42.1400 7.865 0.286
42.1604 7.885 0.287
42.1809 8.396 0.296
42.2014 8.031 0.289
42.2218 8.344 0.295
42.2423 8.406 0.296
42.2628 8.615 0.300
42.2832 8.531 0.298
42.3037 8.375 0.295
42.3242 8.875 0.304
42.3446 8.969 0.306
42.3651 9.542 0.315
42.3855 9.625 0.317
42.4060 9.667 0.317
42.4265 9.844 0.320
42.4469 9.948 0.322
42.4674 9.271 0.311
42.4879 9.667 0.317
42.5083 9.969 0.322
42.5288 10.052 0.324
42.5492 10.542 0.331
42.5697 10.823 0.336
42.5902 10.115 0.325
42.6106 10.115 0.325
42.6311 9.844 0.320
42.6516 10.406 0.329
42.6720 9.844 0.320
42.6925 9.490 0.314
42.7129 9.698 0.318
42.7334 9.844 0.320
42.7539 9.365 0.312
42.7743 9.188 0.309
42.7948 8.677 0.301
42.8153 8.729 0.302
42.8357 8.875 0.304
42.8562 7.917 0.287
42.8766 8.490 0.297
42.8971 8.469 0.297
42.9176 8.313 0.294
42.9380 7.698 0.283
42.9585 7.656 0.282
42.9790 8.115 0.291
42.9994 8.031 0.289
43.0199 8.042 0.289
43.0403 8.083 0.290
43.0608 7.635 0.282
43.0813 7.615 0.282
43.1017 8.208 0.292
43.1222 8.188 0.292
43.1427 8.469 0.297
43.1631 8.510 0.298
43.1836 8.219 0.293
43.2041 8.333 0.295
43.2245 8.708 0.301
43.2450 8.729 0.302
43.2654 9.344 0.312
43.2859 9.042 0.307
43.3064 9.188 0.309
43.3268 8.750 0.302
43.3473 9.083 0.308
43.3678 9.115 0.308
43.3882 8.667 0.300
43.4087 9.125 0.308
43.4291 9.375 0.313
43.4496 9.531 0.315
43.4701 9.583 0.316
43.4905 9.365 0.312
43.5110 10.021 0.323
43.5315 10.729 0.334
43.5519 10.719 0.334
43.5724 11.167 0.341
43.5928 12.000 0.354
43.6133 12.792 0.365
43.6338 13.833 0.380
43.6542 15.552 0.402
43.6747 15.615 0.403
43.6952 14.385 0.387
43.7156 13.583 0.376
43.7361 11.958 0.353
43.7565 13.094 0.369
43.7770 12.646 0.363
43.7975 11.885 0.352
43.8179 10.854 0.336
43.8384 9.771 0.319
43.8589 10.156 0.325
43.8793 9.354 0.312
43.8998 9.396 0.313
43.9202 9.177 0.309
43.9407 8.885 0.304
43.9612 7.667 0.283
43.9816 7.979 0.288
44.0021 8.010 0.289
44.0226 8.573 0.299
44.0430 7.521 0.280
44.0635 8.052 0.290
44.0840 7.833 0.286
44.1044 7.698 0.283
44.1249 8.271 0.294
44.1453 7.073 0.271
44.1658 7.552 0.280
44.1863 7.479 0.279
44.2067 7.531 0.280
44.2272 7.563 0.281
44.2477 7.969 0.288
44.2681 7.875 0.286
44.2886 7.896 0.287
44.3090 7.552 0.280
44.3295 7.281 0.275
44.3500 7.729 0.284
44.3704 7.708 0.283
44.3909 7.479 0.279
44.4114 7.063 0.271
44.4318 7.615 0.282
44.4523 8.115 0.291
44.4727 7.302 0.276
44.4932 8.188 0.292
44.5137 6.760 0.265
44.5341 7.177 0.273
44.5546 6.896 0.268
44.5751 7.438 0.278
44.5955 7.135 0.273
44.6160 7.552 0.280
44.6364 7.719 0.284
44.6569 7.323 0.276
44.6774 7.500 0.280
44.6978 6.938 0.269
44.7183 7.229 0.274
44.7388 7.271 0.275
44.7592 7.688 0.283
44.7797 7.781 0.285
44.8001 7.677 0.283
44.8206 8.333 0.295
44.8411 8.313 0.294
44.8615 7.896 0.287
44.8820 7.865 0.286
44.9025 7.479 0.279
44.9229 7.813 0.285
44.9434 7.906 0.287
44.9639 7.813 0.285
44.9843 7.448 0.279
45.0048 7.406 0.278
45.0252 8.135 0.291
45.0457 7.292 0.276
45.0662 7.854 0.286
45.0866 7.292 0.276
45.1071 8.260 0.293
45.1276 7.948 0.288
45.1480 8.094 0.290
45.1685 7.833 0.286
45.1889 8.354 0.295
45.2094 8.292 0.294
45.2299 7.813 0.285
45.2503 8.875 0.304
45.2708 8.802 0.303
45.2913 9.385 0.313
45.3117 8.375 0.295
45.3322 8.427 0.296
45.3526 8.271 0.294
45.3731 8.094 0.290
45.3936 8.240 0.293
45.4140 8.156 0.291
45.4345 7.563 0.281
45.4550 6.927 0.269
45.4754 7.135 0.273
45.4959 6.979 0.270
45.5163 7.406 0.278
45.5368 7.396 0.278
45.5573 6.969 0.269
45.5777 6.979 0.270
45.5982 7.115 0.272
45.6187 7.000 0.270
45.6391 6.563 0.261
45.6596 6.531 0.261
45.6800 6.510 0.260
45.7005 6.333 0.257
45.7210 6.490 0.260
45.7414 6.958 0.269
45.7619 6.552 0.261
45.7824 6.302 0.256
45.8028 6.615 0.262
45.8233 6.594 0.262
45.8438 6.729 0.265
45.8642 6.969 0.269
45.8847 6.729 0.265
45.9051 6.771 0.266
45.9256 7.031 0.271
45.9461 7.146 0.273
45.9665 6.094 0.252
45.9870 6.542 0.261
46.0075 6.792 0.266
46.0279 6.271 0.256
46.0484 6.750 0.265
46.0688 6.625 0.263
46.0893 6.833 0.267
46.1098 6.823 0.267
46.1302 6.594 0.262
46.1507 6.250 0.255
46.1712 6.604 0.262
46.1916 6.135 0.253
46.2121 6.375 0.258
46.2325 6.042 0.251
46.2530 6.469 0.260
46.2735 5.833 0.247
46.2939 5.938 0.249
46.3144 7.021 0.270
46.3349 6.427 0.259
46.3553 6.708 0.264
46.3758 6.146 0.253
46.3962 6.458 0.259
46.4167 6.229 0.255
46.4372 6.313 0.256
46.4576 6.479 0.260
46.4781 6.823 0.267
46.4986 6.073 0.252
46.5190 6.375 0.258
46.5395 6.354 0.257
46.5600 6.760 0.265
46.5804 6.719 0.265
46.6009 7.448 0.279
46.6213 7.563 0.281
46.6418 8.635 0.300
46.6623 10.448 0.330
46.6827 8.583 0.299
46.7032 7.469 0.279
46.7237 7.385 0.277
46.7441 7.375 0.277
46.7646 8.042 0.289
46.7850 8.031 0.289
46.8055 7.750 0.284
46.8260 6.938 0.269
46.8464 6.844 0.267
46.8669 6.906 0.268
46.8874 6.448 0.259
46.9078 6.479 0.260
46.9283 6.042 0.251
46.9487 5.990 0.250
46.9692 6.625 0.263
46.9897 6.740 0.265
47.0101 6.156 0.253
47.0306 6.781 0.266
47.0511 6.750 0.265
47.0715 6.000 0.250
47.0920 6.094 0.252
47.1124 6.177 0.254
47.1329 6.635 0.263
47.1534 6.469 0.260
47.1738 6.365 0.257
47.1943 6.594 0.262
47.2148 6.281 0.256
47.2352 6.531 0.261
47.2557 6.510 0.260
47.2761 6.531 0.261
47.2966 6.313 0.256
47.3171 6.688 0.264
47.3375 6.792 0.266
47.3580 6.438 0.259
47.3785 6.573 0.262
47.3989 6.677 0.264
47.4194 6.771 0.266
47.4399 7.021 0.270
47.4603 7.250 0.275
47.4808 6.906 0.268
47.5012 6.948 0.269
47.5217 7.469 0.279
47.5422 7.115 0.272
47.5626 7.427 0.278
47.5831 7.677 0.283
47.6036 9.010 0.306
47.6240 9.302 0.311
47.6445 10.156 0.325
47.6649 9.760 0.319
47.6854 9.552 0.315
47.7059 9.427 0.313
47.7263 9.021 0.307
47.7468 9.052 0.307
47.7673 9.604 0.316
47.7877 9.063 0.307
47.8082 8.771 0.302
47.8286 8.177 0.292
47.8491 8.125 0.291
47.8696 7.688 0.283
47.8900 7.813 0.285
47.9105 7.281 0.275
47.9310 7.823 0.285
47.9514 6.719 0.265
47.9719 7.406 0.278
47.9923 7.156 0.273
48.0128 7.490 0.279
48.0333 7.042 0.271
48.0537 7.469 0.279
48.0742 7.281 0.275
48.0947 7.500 0.280
48.1151 7.438 0.278
48.1356 7.271 0.275
48.1560 7.656 0.282
48.1765 7.042 0.271
48.1970 7.271 0.275
48.2174 7.906 0.287
48.2379 7.271 0.275
48.2584 7.510 0.280
48.2788 8.146 0.291
48.2993 7.083 0.272
48.3198 7.281 0.275
48.3402 7.969 0.288
48.3607 7.448 0.279
48.3811 7.198 0.274
48.4016 7.667 0.283
48.4221 7.740 0.284
48.4425 7.458 0.279
48.4630 7.604 0.281
48.4835 7.323 0.276
48.5039 8.104 0.291
48.5244 7.656 0.282
48.5448 6.917 0.268
48.5653 7.229 0.274
48.5858 7.771 0.285
48.6062 7.385 0.277
48.6267 7.469 0.279
48.6472 7.323 0.276
48.6676 7.302 0.276
48.6881 6.656 0.263
48.7085 6.927 0.269
48.7290 7.667 0.283
48.7495 7.792 0.285
48.7699 7.500 0.280
48.7904 6.896 0.268
48.8109 6.823 0.267
48.8313 6.677 0.264
48.8518 6.573 0.262
48.8722 6.781 0.266
48.8927 6.490 0.260
48.9132 6.698 0.264
48.9336 6.552 0.261
48.9541 5.896 0.248
48.9746 5.917 0.248
48.9950 6.219 0.255
49.0155 6.354 0.257
49.0359 6.125 0.253
49.0564 6.135 0.253
49.0769 6.760 0.265
49.0973 6.969 0.269
49.1178 6.990 0.270
49.1383 7.479 0.279
49.1587 6.917 0.268
49.1792 6.615 0.262
49.1997 6.125 0.253
49.2201 6.448 0.259
49.2406 6.792 0.266
49.2610 6.990 0.270
49.2815 6.979 0.270
49.3020 6.823 0.267
49.3224 6.344 0.257
49.3429 6.938 0.269
49.3634 7.104 0.272
49.3838 7.458 0.279
49.4043 7.031 0.271
49.4247 7.135 0.273
49.4452 6.625 0.263
49.4657 7.042 0.271
49.4861 6.990 0.270
49.5066 6.927 0.269
49.5271 6.938 0.269
49.5475 7.281 0.275
49.5680 7.010 0.270
49.5884 7.083 0.272
49.6089 6.844 0.267
49.6294 7.510 0.280
49.6498 7.125 0.272
49.6703 7.479 0.279
49.6908 7.125 0.272
49.7112 7.656 0.282
49.7317 7.854 0.286
49.7521 7.771 0.285
49.7726 8.208 0.292
49.7931 8.646 0.300
49.8135 8.927 0.305
49.8340 9.885 0.321
49.8545 10.490 0.331
49.8749 10.563 0.332
49.8954 11.958 0.353
49.9158 11.333 0.344
49.9363 11.448 0.345
49.9568 11.563 0.347
49.9772 11.010 0.339
49.9977 11.010 0.339
50.0182 10.323 0.328
50.0386 10.344 0.328
50.0591 9.802 0.320
50.0796 8.969 0.306
50.1000 9.625 0.317
50.1205 8.979 0.306
50.1409 8.979 0.306
50.1614 8.406 0.296
50.1819 9.146 0.309
50.2023 9.052 0.307
50.2228 8.813 0.303
50.2433 8.865 0.304
50.2637 9.021 0.307
50.2842 8.917 0.305
50.3046 8.625 0.300
50.3251 9.000 0.306
50.3456 7.875 0.286
50.3660 8.344 0.295
50.3865 7.833 0.286
50.4070 7.979 0.288
50.4274 7.708 0.283
50.4479 8.229 0.293
50.4683 8.104 0.291
50.4888 7.896 0.287
50.5093 7.083 0.272
50.5297 7.979 0.288
50.5502 7.115 0.272
50.5707 7.896 0.287
50.5911 7.552 0.280
50.6116 7.635 0.282
50.6320 8.042 0.289
50.6525 7.740 0.284
50.6730 7.385 0.277
50.6934 7.198 0.274
50.7139 7.094 0.272
50.7344 7.823 0.285
50.7548 7.104 0.272
50.7753 7.313 0.276
50.7958 7.490 0.279
50.8162 7.177 0.273
50.8367 8.042 0.289
50.8571 7.750 0.284
50.8776 7.219 0.274
50.8981 7.458 0.279
50.9185 7.344 0.277
50.9390 7.719 0.284
50.9595 8.063 0.290
50.9799 8.313 0.294
51.0004 8.188 0.292
51.0208 8.406 0.296
51.0413 8.198 0.292
51.0618 7.698 0.283
51.0822 7.646 0.282
51.1027 6.969 0.269
51.1232 7.188 0.274
51.1436 7.010 0.270
51.1641 7.156 0.273
51.1845 6.938 0.269
51.2050 6.594 0.262
51.2255 6.698 0.264
51.2459 6.302 0.256
51.2664 6.396 0.258
51.2869 7.021 0.270
51.3073 6.781 0.266
51.3278 6.615 0.262
51.3482 6.667 0.264
51.3687 6.542 0.261
51.3892 6.448 0.259
51.4096 6.323 0.257
51.4301 6.479 0.260
51.4506 6.521 0.261
51.4710 6.229 0.255
51.4915 6.438 0.259
51.5119 6.417 0.259
51.5324 6.177 0.254
51.5529 5.938 0.249
51.5733 6.115 0.252
51.5938 5.844 0.247
51.6143 6.135 0.253
51.6347 6.813 0.266
51.6552 6.708 0.264
51.6757 6.979 0.270
51.6961 6.719 0.265
51.7166 6.927 0.269
51.7370 7.000 0.270
51.7575 6.625 0.263
51.7780 6.250 0.255
51.7984 6.510 0.260
51.8189 6.406 0.258
51.8394 6.427 0.259
51.8598 6.521 0.261
51.8803 6.104 0.252
51.9007 6.135 0.253
51.9212 6.125 0.253
51.9417 6.219 0.255
51.9621 6.427 0.259
51.9826 5.969 0.249
52.0031 6.063 0.251
52.0235 6.021 0.250
52.0440 5.813 0.246
52.0644 5.917 0.248
52.0849 6.000 0.250
52.1054 5.604 0.242
52.1258 5.917 0.248
52.1463 5.573 0.241
52.1668 5.938 0.249
52.1872 5.604 0.242
52.2077 5.719 0.244
52.2281 5.385 0.237
52.2486 5.563 0.241
52.2691 5.969 0.249
52.2895 5.740 0.245
52.3100 5.885 0.248
52.3305 6.573 0.262
52.3509 5.917 0.248
52.3714 5.458 0.238
52.3918 5.615 0.242
52.4123 5.740 0.245
52.4328 5.823 0.246
52.4532 5.771 0.245
52.4737 6.823 0.267
52.4942 5.917 0.248
52.5146 5.729 0.244
52.5351 5.427 0.238
52.5556 5.531 0.240
52.5760 5.771 0.245
52.5965 5.260 0.234
52.6169 5.625 0.242
52.6374 5.708 0.244
52.6579 5.573 0.241
52.6783 5.635 0.242
52.6988 5.198 0.233
52.7193 4.896 0.226
52.7397 5.604 0.242
52.7602 5.396 0.237
52.7806 5.500 0.239
52.8011 5.625 0.242
52.8216 5.677 0.243
52.8420 5.333 0.236
52.8625 5.500 0.239
52.8830 5.594 0.241
52.9034 5.458 0.238
52.9239 5.604 0.242
52.9443 5.615 0.242
52.9648 4.958 0.227
52.9853 5.719 0.244
53.0057 5.698 0.244
53.0262 6.010 0.250
53.0467 5.771 0.245
53.0671 6.000 0.250
53.0876 5.760 0.245
53.1080 5.521 0.240
53.1285 5.552 0.240
53.1490 5.760 0.245
53.1694 5.781 0.245
53.1899 5.896 0.248
53.2104 5.656 0.243
53.2308 5.490 0.239
53.2513 5.750 0.245
53.2717 5.292 0.235
53.2922 5.833 0.247
53.3127 5.573 0.241
53.3331 5.354 0.236
53.3536 5.552 0.240
53.3741 5.677 0.243
53.3945 5.354 0.236
53.4150 5.552 0.240
53.4355 5.500 0.239
53.4559 5.688 0.243
53.4764 5.000 0.228
53.4968 4.885 0.226
53.5173 5.146 0.232
53.5378 5.313 0.235
53.5582 5.135 0.231
53.5787 5.583 0.241
53.5992 5.396 0.237
53.6196 5.323 0.235
53.6401 5.458 0.238
53.6605 5.313 0.235
53.6810 5.250 0.234
53.7015 5.635 0.242
53.7219 5.531 0.240
53.7424 5.521 0.240
53.7629 5.698 0.244
53.7833 5.865 0.247
53.8038 5.354 0.236
53.8242 5.906 0.248
53.8447 5.292 0.235
53.8652 5.740 0.245
53.8856 5.375 0.237
53.9061 5.240 0.234
53.9266 5.344 0.236
53.9470 5.271 0.234
53.9675 5.052 0.229
53.9879 5.115 0.231
54.0084 5.135 0.231
54.0289 5.635 0.242
54.0493 5.104 0.231
54.0698 5.417 0.238
54.0903 5.417 0.238
54.1107 4.948 0.227
54.1312 5.438 0.238
54.1516 5.698 0.244
54.1721 5.510 0.240
54.1926 5.844 0.247
54.2130 5.781 0.245
54.2335 5.688 0.243
54.2540 5.208 0.233
54.2744 5.833 0.247
54.2949 5.375 0.237
54.3154 5.542 0.240
54.3358 5.292 0.235
54.3563 5.469 0.239
54.3767 5.167 0.232
54.3972 4.979 0.228
54.4177 5.198 0.233
54.4381 4.854 0.225
54.4586 5.469 0.239
54.4791 5.167 0.232
54.4995 5.281 0.235
54.5200 5.031 0.229
54.5404 5.615 0.242
54.5609 5.177 0.232
54.5814 5.427 0.238
54.6018 5.927 0.248
54.6223 5.896 0.248
54.6428 5.469 0.239
54.6632 5.240 0.234
54.6837 5.427 0.238
54.7041 5.271 0.234
54.7246 4.885 0.226
54.7451 5.677 0.243
54.7655 5.125 0.231
54.7860 5.375 0.237
54.8065 5.458 0.238
54.8269 5.719 0.244
54.8474 5.427 0.238
54.8678 5.417 0.238
54.8883 5.417 0.238
54.9088 5.281 0.235
54.9292 5.479 0.239
54.9497 5.031 0.229
54.9702 5.219 0.233
54.9906 5.625 0.242
55.0111 5.906 0.248
55.0316 5.740 0.245
55.0520 6.323 0.257
55.0725 6.458 0.259
55.0929 7.729 0.284
55.1134 8.396 0.296
55.1339 9.969 0.322
55.1543 10.042 0.323
55.1748 11.198 0.342
55.1953 11.906 0.352
55.2157 12.729 0.364
55.2362 12.635 0.363
55.2566 12.781 0.365
55.2771 12.979 0.368
55.2976 12.292 0.358
55.3180 11.813 0.351
55.3385 11.292 0.343
55.3590 11.344 0.344
55.3794 11.375 0.344
55.3999 10.063 0.324
55.4203 9.563 0.316
55.4408 9.531 0.315
55.4613 8.229 0.293
55.4817 8.094 0.290
55.5022 7.292 0.276
55.5227 7.063 0.271
55.5431 7.010 0.270
55.5636 5.938 0.249
55.5840 6.125 0.253
55.6045 5.615 0.242
55.6250 6.094 0.252
55.6454 5.656 0.243
55.6659 5.656 0.243
55.6864 5.948 0.249
55.7068 6.177 0.254
55.7273 6.010 0.250
55.7477 5.177 0.232
55.7682 5.135 0.231
55.7887 5.594 0.241
55.8091 5.865 0.247
55.8296 5.740 0.245
55.8501 5.615 0.242
55.8705 6.146 0.253
55.8910 6.115 0.252
55.9115 5.760 0.245
55.9319 6.083 0.252
55.9524 6.167 0.253
55.9728 6.115 0.252
55.9933 6.365 0.257
56.0138 6.521 0.261
56.0342 6.313 0.256
56.0547 6.635 0.263
56.0752 6.990 0.270
56.0956 6.615 0.262
56.1161 6.969 0.269
56.1365 7.115 0.272
56.1570 7.927 0.287
56.1775 8.917 0.305
56.1979 9.031 0.307
56.2184 9.208 0.310
56.2389 9.594 0.316
56.2593 9.156 0.309
56.2798 8.552 0.298
56.3002 7.927 0.287
56.3207 7.906 0.287
56.3412 7.708 0.283
56.3616 7.823 0.285
56.3821 7.771 0.285
56.4026 7.219 0.274
56.4230 7.208 0.274
56.4435 6.896 0.268
56.4639 6.198 0.254
56.4844 6.302 0.256
56.5049 5.771 0.245
56.5253 5.490 0.239
56.5458 5.354 0.236
56.5663 5.188 0.232
56.5867 5.688 0.243
56.6072 5.219 0.233
56.6276 5.167 0.232
56.6481 5.323 0.235
56.6686 5.375 0.237
56.6890 5.896 0.248
56.7095 6.156 0.253
56.7300 7.104 0.272
56.7504 7.125 0.272
56.7709 5.833 0.247
56.7914 5.469 0.239
56.8118 5.448 0.238
56.8323 5.292 0.235
56.8527 4.958 0.227
56.8732 6.042 0.251
56.8937 6.042 0.251
56.9141 5.823 0.246
56.9346 5.604 0.242
56.9551 5.042 0.229
56.9755 5.115 0.231
56.9960 4.885 0.226
57.0164 4.896 0.226
57.0369 5.531 0.240
57.0574 4.719 0.222
57.0778 5.094 0.230
57.0983 4.979 0.228
57.1188 4.979 0.228
57.1392 4.729 0.222
57.1597 5.104 0.231
57.1801 4.750 0.222
57.2006 5.073 0.230
57.2211 4.969 0.228
57.2415 4.958 0.227
57.2620 5.115 0.231
57.2825 4.948 0.227
57.3029 5.063 0.230
57.3234 4.688 0.221
57.3438 5.052 0.229
57.3643 5.198 0.233
57.3848 5.042 0.229
57.4052 5.302 0.235
57.4257 5.271 0.234
57.4462 4.854 0.225
57.4666 5.125 0.231
57.4871 5.146 0.232
57.5075 5.010 0.228
57.5280 4.906 0.226
57.5485 5.146 0.232
57.5689 5.417 0.238
57.5894 5.781 0.245
57.6099 5.135 0.231
57.6303 5.354 0.236
57.6508 5.469 0.239
57.6713 5.625 0.242
57.6917 5.510 0.240
57.7122 4.938 0.227
57.7326 5.521 0.240
57.7531 5.604 0.242
57.7736 5.646 0.243
57.7940 6.240 0.255
57.8145 5.406 0.237
57.8350 5.604 0.242
57.8554 5.990 0.250
57.8759 6.333 0.257
57.8963 6.563 0.261
57.9168 7.115 0.272
57.9373 7.292 0.276
57.9577 7.135 0.273
57.9782 7.458 0.279
57.9987 7.094 0.272
58.0191 7.323 0.276
58.0396 7.000 0.270
58.0600 6.292 0.256
58.0805 6.563 0.261
58.1010 7.094 0.272
58.1214 6.667 0.264
58.1419 6.677 0.264
58.1624 6.198 0.254
58.1828 6.010 0.250
58.2033 6.073 0.252
58.2237 5.375 0.237
58.2442 5.958 0.249
58.2647 6.031 0.251
58.2851 6.542 0.261
58.3056 5.927 0.248
58.3261 5.823 0.246
58.3465 6.010 0.250
58.3670 5.698 0.244
58.3874 5.563 0.241
58.4079 5.698 0.244
58.4284 5.271 0.234
58.4488 5.760 0.245
58.4693 5.656 0.243
58.4898 6.083 0.252
58.5102 5.729 0.244
58.5307 5.906 0.248
58.5512 6.208 0.254
58.5716 5.333 0.236
58.5921 5.927 0.248
58.6125 5.521 0.240
58.6330 5.427 0.238
58.6535 6.031 0.251
58.6739 5.990 0.250
58.6944 5.938 0.249
58.7149 6.188 0.254
58.7353 5.313 0.235
58.7558 5.906 0.248
58.7762 5.823 0.246
58.7967 5.521 0.240
58.8172 5.979 0.250
58.8376 5.969 0.249
58.8581 5.563 0.241
58.8786 5.896 0.248
58.8990 5.781 0.245
58.9195 5.667 0.243
58.9399 5.531 0.240
58.9604 6.010 0.250
58.9809 5.656 0.243
59.0013 5.833 0.247
59.0218 5.604 0.242
59.0423 5.396 0.237
59.0627 5.792 0.246
59.0832 5.698 0.244
59.1036 6.323 0.257
59.1241 5.354 0.236
59.1446 6.563 0.261
59.1650 5.729 0.244
59.1855 6.271 0.256
59.2060 6.354 0.257
59.2264 6.948 0.269
59.2469 6.760 0.265
59.2674 6.823 0.267
59.2878 6.396 0.258
59.3083 6.063 0.251
59.3287 5.635 0.242
59.3492 6.073 0.252
59.3697 5.875 0.247
59.3901 5.844 0.247
59.4106 5.667 0.243
59.4311 5.396 0.237
59.4515 5.344 0.236
59.4720 5.438 0.238
59.4924 5.292 0.235
59.5129 5.167 0.232
59.5334 4.802 0.224
59.5538 4.677 0.221
59.5743 4.656 0.220
59.5948 4.958 0.227
59.6152 4.844 0.225
59.6357 4.740 0.222
59.6561 4.990 0.228
59.6766 4.750 0.222
59.6971 4.510 0.217
59.7175 5.177 0.232
59.7380 5.323 0.235
59.7585 4.688 0.221
59.7789 5.229 0.233
59.7994 5.229 0.233
59.8198 5.521 0.240
59.8403 5.698 0.244
59.8608 5.500 0.239
59.8812 6.125 0.253
59.9017 5.833 0.247
59.9222 6.635 0.263
59.9426 6.135 0.253
59.9631 6.052 0.251
59.9835 5.688 0.243
60.0040 5.844 0.247
60.0245 5.948 0.249
60.0449 5.542 0.240
60.0654 5.948 0.249
60.0859 5.792 0.246
60.1063 5.896 0.248
60.1268 5.677 0.243
60.1473 5.135 0.231
60.1677 5.219 0.233
60.1882 5.344 0.236
60.2086 4.979 0.228
60.2291 4.885 0.226
60.2496 5.156 0.232
60.2700 4.958 0.227
60.2905 4.729 0.222
60.3110 5.021 0.229
60.3314 5.406 0.237
60.3519 5.229 0.233
60.3723 5.104 0.231
60.3928 4.781 0.223
60.4133 5.156 0.232
60.4337 5.240 0.234
60.4542 5.313 0.235
60.4747 5.292 0.235
60.4951 5.104 0.231
60.5156 4.854 0.225
60.5360 4.573 0.218
60.5565 4.667 0.220
60.5770 4.813 0.224
60.5974 5.104 0.231
60.6179 5.010 0.228
60.6384 4.688 0.221
60.6588 4.688 0.221
60.6793 5.052 0.229
60.6997 4.656 0.220
60.7202 4.729 0.222
60.7407 4.688 0.221
60.7611 4.417 0.214
60.7816 4.688 0.221
60.8021 5.021 0.229
60.8225 5.042 0.229
60.8430 4.969 0.228
60.8634 4.875 0.225
60.8839 5.365 0.236
60.9044 4.594 0.219
60.9248 4.823 0.224
60.9453 4.688 0.221
60.9658 4.427 0.215
60.9862 5.115 0.231
61.0067 4.656 0.220
61.0272 4.656 0.220
61.0476 4.698 0.221
61.0681 4.656 0.220
61.0885 4.823 0.224
61.1090 4.667 0.220
61.1295 4.635 0.220
61.1499 4.708 0.221
61.1704 4.750 0.222
61.1909 4.854 0.225
61.2113 4.333 0.212
61.2318 4.698 0.221
61.2522 4.219 0.210
61.2727 4.760 0.223
61.2932 4.750 0.222
61.3136 5.000 0.228
61.3341 4.271 0.211
61.3546 4.594 0.219
61.3750 4.948 0.227
61.3955 4.646 0.220
61.4159 4.948 0.227
61.4364 4.813 0.224
61.4569 4.625 0.219
61.4773 4.042 0.205
61.4978 4.771 0.223
61.5183 4.344 0.213
61.5387 4.542 0.218
61.5592 4.604 0.219
61.5796 4.531 0.217
61.6001 4.229 0.210
61.6206 4.750 0.222
61.6410 3.979 0.204
61.6615 4.240 0.210
61.6820 4.469 0.216
61.7024 4.198 0.209
61.7229 4.646 0.220
61.7433 3.917 0.202
61.7638 4.698 0.221
61.7843 4.354 0.213
61.8047 4.656 0.220
61.8252 4.094 0.207
61.8457 4.396 0.214
61.8661 4.458 0.216
61.8866 4.719 0.222
61.9071 4.323 0.212
61.9275 4.458 0.216
61.9480 4.604 0.219
61.9684 4.323 0.212
61.9889 5.323 0.235
62.0094 4.260 0.211
62.0298 4.563 0.218
62.0503 4.760 0.223
62.0708 5.052 0.229
62.0912 4.542 0.218
62.1117 4.542 0.218
62.1321 4.406 0.214
62.1526 4.958 0.227
62.1731 4.979 0.228
62.1935 4.583 0.219
62.2140 4.917 0.226
62.2345 4.917 0.226
62.2549 4.500 0.217
62.2754 4.563 0.218
62.2958 4.646 0.220
62.3163 4.333 0.212
62.3368 4.563 0.218
62.3572 4.604 0.219
62.3777 4.417 0.214
62.3982 4.448 0.215
62.4186 4.563 0.218
62.4391 4.594 0.219
62.4595 4.396 0.214
62.4800 4.469 0.216
62.5005 4.333 0.212
62.5209 4.354 0.213
62.5414 4.365 0.213
62.5619 4.792 0.223
62.5823 4.073 0.206
62.6028 4.219 0.210
62.6232 4.010 0.204
62.6437 4.594 0.219
62.6642 4.698 0.221
62.6846 4.698 0.221
62.7051 4.698 0.221
62.7256 4.823 0.224
62.7460 4.490 0.216
62.7665 4.208 0.209
62.7870 4.375 0.213
62.8074 4.260 0.211
62.8279 4.375 0.213
62.8483 4.302 0.212
62.8688 4.719 0.222
62.8893 4.438 0.215
62.9097 4.427 0.215
62.9302 4.490 0.216
62.9507 4.146 0.208
62.9711 4.344 0.213
62.9916 4.104 0.207
63.0120 4.698 0.221
63.0325 4.313 0.212
63.0530 4.802 0.224
63.0734 4.448 0.215
63.0939 4.125 0.207
63.1144 4.354 0.213
63.1348 4.990 0.228
63.1553 4.875 0.225
63.1757 4.688 0.221
63.1962 4.490 0.216
63.2167 4.729 0.222
63.2371 4.563 0.218
63.2576 4.729 0.222
63.2781 4.646 0.220
63.2985 4.760 0.223
63.3190 4.552 0.218
63.3394 4.698 0.221
63.3599 4.604 0.219
63.3804 5.031 0.229
63.4008 4.708 0.221
63.4213 4.438 0.215
63.4418 4.688 0.221
63.4622 4.833 0.224
63.4827 4.708 0.221
63.5032 5.104 0.231
63.5236 5.042 0.229
63.5441 4.979 0.228
63.5645 5.104 0.231
63.5850 4.896 0.226
63.6055 5.083 0.230
63.6259 4.771 0.223
63.6464 4.948 0.227
63.6669 4.969 0.228
63.6873 4.792 0.223
63.7078 4.656 0.220
63.7282 5.313 0.235
63.7487 4.552 0.218
63.7692 5.344 0.236
63.7896 4.990 0.228
63.8101 4.885 0.226
63.8306 5.052 0.229
63.8510 5.094 0.230
63.8715 4.698 0.221
63.8919 5.083 0.230
63.9124 5.135 0.231
63.9329 4.906 0.226
63.9533 4.615 0.219
63.9738 5.250 0.234
63.9943 5.021 0.229
64.0147 4.854 0.225
64.0352 5.302 0.235
64.0556 5.438 0.238
64.0761 5.625 0.242
64.0966 5.031 0.229
64.1170 5.396 0.237
64.1375 4.781 0.223
64.1580 4.740 0.222
64.1784 4.938 0.227
64.1989 5.146 0.232
64.2193 4.698 0.221
64.2398 5.417 0.238
64.2603 4.740 0.222
64.2807 4.802 0.224
64.3012 5.031 0.229
64.3217 4.688 0.221
64.3421 5.063 0.230
64.3626 5.021 0.229
64.3831 5.250 0.234
64.4035 4.365 0.213
64.4240 5.260 0.234
64.4444 4.729 0.222
64.4649 5.115 0.231
64.4854 5.042 0.229
64.5058 5.354 0.236
64.5263 4.865 0.225
64.5468 5.083 0.230
64.5672 5.229 0.233
64.5877 5.458 0.238
64.6081 5.531 0.240
64.6286 6.073 0.252
64.6491 5.927 0.248
64.6695 6.750 0.265
64.6900 6.479 0.260
64.7105 6.188 0.254
64.7309 6.417 0.259
64.7514 6.677 0.264
64.7718 6.219 0.255
64.7923 6.417 0.259
64.8128 6.448 0.259
64.8332 5.969 0.249
64.8537 6.490 0.260
64.8742 6.490 0.260
64.8946 5.938 0.249
64.9151 6.094 0.252
64.9355 5.781 0.245
64.9560 5.500 0.239
64.9765 5.625 0.242
64.9969 5.292 0.235
65.0174 5.000 0.228
65.0379 5.042 0.229
65.0583 5.167 0.232
65.0788 4.958 0.227
65.0992 4.885 0.226
65.1197 4.729 0.222
65.1402 4.438 0.215
65.1606 4.635 0.220
65.1811 4.500 0.217
65.2016 4.625 0.219
65.2220 4.865 0.225
65.2425 4.521 0.217
65.2630 4.552 0.218
65.2834 4.417 0.214
65.3039 4.625 0.219
65.3243 4.490 0.216
65.3448 4.510 0.217
65.3653 4.563 0.218
65.3857 4.344 0.213
65.4062 4.458 0.216
65.4267 4.677 0.221
65.4471 4.896 0.226
65.4676 4.688 0.221
65.4880 4.573 0.218
65.5085 4.302 0.212
65.5290 4.969 0.228
65.5494 5.323 0.235
65.5699 5.010 0.228
65.5904 5.625 0.242
65.6108 5.417 0.238
65.6313 5.417 0.238
65.6517 5.344 0.236
65.6722 4.979 0.228
65.6927 4.885 0.226
65.7131 5.292 0.235
65.7336 4.781 0.223
65.7541 4.740 0.222
65.7745 5.031 0.229
65.7950 5.323 0.235
65.8154 4.438 0.215
65.8359 4.875 0.225
65.8564 4.917 0.226
65.8768 4.958 0.227
65.8973 5.021 0.229
65.9178 4.323 0.212
65.9382 4.635 0.220
65.9587 4.135 0.208
65.9791 4.198 0.209
65.9996 4.240 0.210
66.0201 4.479 0.216
66.0405 4.448 0.215
66.0610 4.229 0.210
66.0815 4.531 0.217
66.1019 4.688 0.221
66.1224 4.500 0.217
66.1429 4.406 0.214
66.1633 4.521 0.217
66.1838 4.229 0.210
66.2042 4.656 0.220
66.2247 4.542 0.218
66.2452 4.250 0.210
66.2656 4.573 0.218
66.2861 4.510 0.217
66.3066 4.083 0.206
66.3270 4.219 0.210
66.3475 4.667 0.220
66.3679 4.365 0.213
66.3884 3.958 0.203
66.4089 3.927 0.202
66.4293 3.698 0.196
66.4498 3.969 0.203
66.4703 4.458 0.216
66.4907 4.292 0.211
66.5112 3.906 0.202
66.5316 4.250 0.210
66.5521 4.281 0.211
66.5726 4.323 0.212
66.5930 4.042 0.205
66.6135 4.302 0.212
66.6340 4.323 0.212
66.6544 4.229 0.210
66.6749 4.156 0.208
66.6953 4.302 0.212
66.7158 3.969 0.203
66.7363 4.354 0.213
66.7567 4.292 0.211
66.7772 4.094 0.207
66.7977 4.260 0.211
66.8181 4.750 0.222
66.8386 4.979 0.228
66.8590 4.042 0.205
66.8795 4.406 0.214
66.9000 4.708 0.221
66.9204 4.458 0.216
66.9409 4.531 0.217
66.9614 4.719 0.222
66.9818 4.927 0.227
67.0023 4.969 0.228
67.0228 5.010 0.228
67.0432 4.781 0.223
67.0637 4.688 0.221
67.0841 5.208 0.233
67.1046 5.906 0.248
67.1251 6.104 0.252
67.1455 5.771 0.245
67.1660 6.615 0.262
67.1865 7.063 0.271
67.2069 6.927 0.269
67.2274 6.646 0.263
67.2478 6.917 0.268
67.2683 6.083 0.252
67.2888 5.583 0.241
67.3092 6.052 0.251
67.3297 6.635 0.263
67.3502 6.052 0.251
67.3706 6.385 0.258
67.3911 6.156 0.253
67.4115 5.917 0.248
67.4320 5.625 0.242
67.4525 5.552 0.240
67.4729 5.271 0.234
67.4934 5.292 0.235
67.5139 5.000 0.228
67.5343 5.198 0.233
67.5548 4.750 0.222
67.5752 5.260 0.234
67.5957 4.760 0.223
67.6162 4.927 0.227
67.6366 4.833 0.224
67.6571 4.865 0.225
67.6776 4.927 0.227
67.6980 4.635 0.220
67.7185 4.792 0.223
67.7389 5.063 0.230
67.7594 4.844 0.225
67.7799 5.531 0.240
67.8003 5.375 0.237
67.8208 4.615 0.219
67.8413 4.563 0.218
67.8617 4.625 0.219
67.8822 4.948 0.227
67.9027 4.729 0.222
67.9231 5.073 0.230
67.9436 4.333 0.212
67.9640 4.969 0.228
67.9845 5.094 0.230
68.0050 5.188 0.232
68.0254 5.021 0.229
68.0459 4.938 0.227
68.0664 5.177 0.232
68.0868 4.885 0.226
68.1073 4.885 0.226
68.1277 4.833 0.224
68.1482 5.208 0.233
68.1687 5.167 0.232
68.1891 4.573 0.218
68.2096 5.063 0.230
68.2301 5.375 0.237
68.2505 4.969 0.228
68.2710 4.979 0.228
68.2914 5.625 0.242
68.3119 5.615 0.242
68.3324 4.833 0.224
68.3528 4.865 0.225
68.3733 5.167 0.232
68.3938 5.688 0.243
68.4142 5.344 0.236
68.4347 5.115 0.231
68.4551 5.010 0.228
68.4756 4.688 0.221
68.4961 4.771 0.223
68.5165 4.698 0.221
68.5370 4.688 0.221
68.5575 4.573 0.218
68.5779 5.229 0.233
68.5984 4.521 0.217
68.6189 4.771 0.223
68.6393 4.469 0.216
68.6598 4.292 0.211
68.6802 4.073 0.206
68.7007 4.083 0.206
68.7212 4.240 0.210
68.7416 3.938 0.203
68.7621 4.229 0.210
68.7826 4.146 0.208
68.8030 4.438 0.215
68.8235 4.167 0.208
68.8439 3.948 0.203
68.8644 3.990 0.204
68.8849 4.292 0.211
68.9053 4.604 0.219
68.9258 4.427 0.215
68.9463 4.521 0.217
68.9667 4.656 0.220
68.9872 4.552 0.218
69.0076 4.990 0.228
69.0281 5.135 0.231
69.0486 4.823 0.224
69.0690 4.865 0.225
69.0895 4.792 0.223
69.1100 4.313 0.212
69.1304 4.135 0.208
69.1509 4.542 0.218
69.1713 4.417 0.214
69.1918 4.510 0.217
69.2123 4.667 0.220
69.2327 4.938 0.227
69.2532 4.771 0.223
69.2737 4.896 0.226
69.2941 4.604 0.219
69.3146 4.833 0.224
69.3350 4.656 0.220
69.3555 4.385 0.214
69.3760 4.656 0.220
69.3964 4.229 0.210
69.4169 4.115 0.207
69.4374 4.313 0.212
69.4578 4.271 0.211
69.4783 4.094 0.207
69.4988 4.500 0.217
69.5192 4.240 0.210
69.5397 4.104 0.207
69.5601 3.719 0.197
69.5806 4.146 0.208
69.6011 3.927 0.202
69.6215 3.990 0.204
69.6420 4.031 0.205
69.6625 4.031 0.205
69.6829 4.010 0.204
69.7034 3.885 0.201
69.7238 4.115 0.207
69.7443 3.906 0.202
69.7648 4.042 0.205
69.7852 3.740 0.197
69.8057 3.885 0.201
69.8262 3.865 0.201
69.8466 3.760 0.198
69.8671 3.906 0.202
69.8875 4.323 0.212
69.9080 4.031 0.205
69.9285 4.281 0.211
69.9489 3.760 0.198
69.9694 3.865 0.201
69.9899 3.469 0.190
70.0103 3.719 0.197
70.0308 4.115 0.207
70.0512 3.969 0.203
70.0717 3.625 0.194
70.0922 3.979 0.204
70.1126 4.000 0.204
70.1331 3.990 0.204
70.1536 3.885 0.201
70.1740 4.260 0.211
70.1945 3.656 0.195
70.2149 3.750 0.198
70.2354 3.750 0.198
70.2559 4.094 0.207
70.2763 4.198 0.209
70.2968 3.740 0.197
70.3173 3.990 0.204
70.3377 3.844 0.200
70.3582 4.188 0.209
70.3787 3.813 0.199
70.3991 3.708 0.197
70.4196 4.094 0.207
70.4400 3.542 0.192
70.4605 3.458 0.190
70.4810 4.146 0.208
70.5014 3.646 0.195
70.5219 3.875 0.201
70.5424 3.375 0.188
70.5628 3.635 0.195
70.5833 3.927 0.202
70.6037 3.656 0.195
70.6242 3.896 0.201
70.6447 3.438 0.189
70.6651 3.927 0.202
70.6856 3.802 0.199
70.7061 3.875 0.201
70.7265 3.531 0.192
70.7470 3.729 0.197
70.7674 3.688 0.196
70.7879 4.073 0.206
70.8084 3.573 0.193
70.8288 3.698 0.196
70.8493 3.750 0.198
70.8698 3.688 0.196
70.8902 3.781 0.198
70.9107 3.688 0.196
70.9311 3.792 0.199
70.9516 4.094 0.207
70.9721 4.031 0.205
70.9925 3.656 0.195
71.0130 3.823 0.200
71.0335 3.688 0.196
71.0539 3.990 0.204
71.0744 3.875 0.201
71.0948 3.958 0.203
71.1153 3.854 0.200
71.1358 3.615 0.194
71.1562 3.823 0.200
71.1767 3.698 0.196
71.1972 3.594 0.193
71.2176 3.729 0.197
71.2381 3.594 0.193
71.2586 3.927 0.202
71.2790 3.594 0.193
71.2995 3.750 0.198
71.3199 3.604 0.194
71.3404 3.771 0.198
71.3609 3.344 0.187
71.3813 3.490 0.191
71.4018 3.646 0.195
71.4223 3.896 0.201
71.4427 3.500 0.191
71.4632 3.240 0.184
71.4836 3.438 0.189
71.5041 3.500 0.191
71.5246 3.833 0.200
71.5450 3.365 0.187
71.5655 3.563 0.193
71.5860 3.698 0.196
71.6064 3.760 0.198
71.6269 3.396 0.188
71.6473 4.063 0.206
71.6678 3.531 0.192
71.6883 3.646 0.195
71.7087 3.698 0.196
71.7292 3.625 0.194
71.7497 3.458 0.190
71.7701 3.781 0.198
71.7906 3.385 0.188
71.8110 3.510 0.191
71.8315 3.865 0.201
71.8520 3.417 0.189
71.8724 3.844 0.200
71.8929 3.542 0.192
71.9134 3.323 0.186
71.9338 3.677 0.196
71.9543 3.531 0.192
71.9747 3.552 0.192
71.9952 3.427 0.189
72.0157 3.604 0.194
72.0361 3.542 0.192
72.0566 3.698 0.196
72.0771 3.313 0.186
72.0975 3.427 0.189
72.1180 3.458 0.190
72.1385 3.771 0.198
72.1589 3.833 0.200
72.1794 3.656 0.195
72.1998 4.073 0.206
72.2203 3.688 0.196
72.2408 4.052 0.205
72.2612 3.708 0.197
72.2817 3.552 0.192
72.3022 3.729 0.197
72.3226 3.552 0.192
72.3431 4.021 0.205
72.3635 3.969 0.203
72.3840 3.469 0.190
72.4045 4.021 0.205
72.4249 3.615 0.194
72.4454 3.750 0.198
72.4659 3.906 0.202
72.4863 3.646 0.195
72.5068 3.448 0.190
72.5272 3.635 0.195
72.5477 3.698 0.196
72.5682 3.510 0.191
72.5886 3.958 0.203
72.6091 3.906 0.202
72.6296 3.656 0.195
72.6500 3.531 0.192
72.6705 3.469 0.190
72.6909 3.708 0.197
72.7114 3.406 0.188
72.7319 3.365 0.187
72.7523 4.073 0.206
72.7728 3.542 0.192
72.7933 3.729 0.197
72.8137 3.688 0.196
72.8342 3.854 0.200
72.8547 3.583 0.193
72.8751 3.385 0.188
72.8956 3.906 0.202
72.9160 3.229 0.183
72.9365 3.750 0.198
72.9570 3.792 0.199
72.9774 3.750 0.198
72.9979 3.542 0.192
73.0184 3.573 0.193
73.0388 3.469 0.190
73.0593 3.813 0.199
73.0797 3.552 0.192
73.1002 3.635 0.195
73.1207 3.729 0.197
73.1411 3.490 0.191
73.1616 3.406 0.188
73.1821 3.188 0.182
73.2025 3.500 0.191
73.2230 3.208 0.183
73.2434 3.646 0.195
73.2639 3.490 0.191
73.2844 3.531 0.192
73.3048 3.552 0.192
73.3253 3.385 0.188
73.3458 3.396 0.188
73.3662 3.604 0.194
73.3867 3.188 0.182
73.4071 3.969 0.203
73.4276 3.979 0.204
73.4481 3.281 0.185
73.4685 3.542 0.192
73.4890 3.823 0.200
73.5095 3.646 0.195
73.5299 3.469 0.190
73.5504 3.854 0.200
73.5708 3.635 0.195
73.5913 3.427 0.189
73.6118 3.385 0.188
73.6322 3.375 0.188
73.6527 3.271 0.185
73.6732 3.510 0.191
73.6936 3.688 0.196
73.7141 3.281 0.185
73.7346 3.271 0.185
73.7550 3.417 0.189
73.7755 3.615 0.194
73.7959 3.375 0.188
73.8164 3.344 0.187
73.8369 3.146 0.181
73.8573 3.521 0.192
73.8778 3.031 0.178
73.8983 3.104 0.180
73.9187 3.396 0.188
73.9392 3.656 0.195
73.9596 3.552 0.192
73.9801 3.729 0.197
74.0006 3.688 0.196
74.0210 3.958 0.203
74.0415 3.323 0.186
74.0620 3.406 0.188
74.0824 3.604 0.194
74.1029 3.531 0.192
74.1233 3.625 0.194
74.1438 3.458 0.190
74.1643 3.302 0.185
74.1847 3.594 0.193
74.2052 3.271 0.185
74.2257 3.385 0.188
74.2461 3.406 0.188
74.2666 3.552 0.192
74.2870 3.469 0.190
74.3075 3.563 0.193
74.3280 3.510 0.191
74.3484 3.281 0.185
74.3689 3.271 0.185
74.3894 3.292 0.185
74.4098 3.677 0.196
74.4303 3.260 0.184
74.4507 3.385 0.188
74.4712 3.208 0.183
74.4917 3.208 0.183
74.5121 3.135 0.181
74.5326 3.115 0.180
74.5531 3.094 0.180
74.5735 3.510 0.191
74.5940 3.438 0.189
74.6145 3.260 0.184
74.6349 3.604 0.194
74.6554 3.188 0.182
74.6758 3.458 0.190
74.6963 3.573 0.193
74.7168 3.531 0.192
74.7372 3.177 0.182
74.7577 3.740 0.197
74.7782 3.469 0.190
74.7986 3.063 0.179
74.8191 3.469 0.190
74.8395 3.406 0.188
74.8600 3.240 0.184
74.8805 3.729 0.197
74.9009 3.292 0.185
74.9214 3.417 0.189
74.9419 3.458 0.190
74.9623 3.448 0.190
74.9828 3.406 0.188
75.0032 3.385 0.188
75.0237 3.542 0.192
75.0442 3.365 0.187
75.0646 3.531 0.192
75.0851 3.406 0.188
75.1056 3.469 0.190
75.1260 3.552 0.192
75.1465 3.781 0.198
75.1669 3.688 0.196
75.1874 3.010 0.177
75.2079 3.396 0.188
75.2283 3.469 0.190
75.2488 3.167 0.182
75.2693 3.438 0.189
75.2897 3.313 0.186
75.3102 3.615 0.194
75.3306 3.802 0.199
75.3511 3.354 0.187
75.3716 3.344 0.187
75.3920 3.521 0.192
75.4125 3.677 0.196
75.4330 3.563 0.193
75.4534 3.427 0.189
75.4739 3.458 0.190
75.4944 3.469 0.190
75.5148 3.490 0.191
75.5353 3.510 0.191
75.5557 3.479 0.190
75.5762 4.135 0.208
75.5967 3.969 0.203
75.6171 3.563 0.193
75.6376 3.583 0.193
75.6581 3.854 0.200
75.6785 3.750 0.198
75.6990 3.958 0.203
75.7194 4.385 0.214
75.7399 3.906 0.202
75.7604 4.115 0.207
75.7808 4.208 0.209
75.8013 4.698 0.221
75.8218 4.594 0.219
75.8422 4.635 0.220
75.8627 4.844 0.225
75.8831 4.375 0.213
75.9036 4.521 0.217
75.9241 4.198 0.209
75.9445 3.917 0.202
75.9650 3.813 0.199
75.9855 4.000 0.204
76.0059 4.240 0.210
76.0264 4.302 0.212
76.0468 4.396 0.214
76.0673 4.156 0.208
76.0878 4.094 0.207
76.1082 4.323 0.212
76.1287 3.677 0.196
76.1492 4.167 0.208
76.1696 3.708 0.197
76.1901 4.031 0.205
76.2105 3.583 0.193
76.2310 3.750 0.198
76.2515 3.646 0.195
76.2719 3.844 0.200
76.2924 3.969 0.203
76.3129 3.677 0.196
76.3333 3.927 0.202
76.3538 3.802 0.199
76.3743 3.229 0.183
76.3947 3.333 0.186
76.4152 3.635 0.195
76.4356 3.615 0.194
76.4561 3.458 0.190
76.4766 4.094 0.207
76.4970 3.417 0.189
76.5175 3.833 0.200
76.5380 3.406 0.188
76.5584 3.469 0.190
76.5789 3.281 0.185
76.5993 3.208 0.183
76.6198 3.385 0.188
76.6403 3.333 0.186
76.6607 3.208 0.183
76.6812 3.052 0.178
76.7017 3.344 0.187
76.7221 3.500 0.191
76.7426 3.385 0.188
76.7630 3.438 0.189
76.7835 3.531 0.192
76.8040 3.490 0.191
76.8244 3.573 0.193
76.8449 3.615 0.194
76.8654 3.479 0.190
76.8858 3.521 0.192
76.9063 3.448 0.190
76.9267 3.583 0.193
76.9472 3.563 0.193
76.9677 3.667 0.195
76.9881 3.354 0.187
77.0086 3.354 0.187
77.0291 3.625 0.194
77.0495 3.344 0.187
77.0700 3.573 0.193
77.0905 3.771 0.198
77.1109 3.490 0.191
77.1314 3.406 0.188
77.1518 3.313 0.186
77.1723 3.198 0.183
77.1928 3.354 0.187
77.2132 4.208 0.209
77.2337 3.688 0.196
77.2542 3.594 0.193
77.2746 3.385 0.188
77.2951 3.250 0.184
77.3155 3.615 0.194
77.3360 3.354 0.187
77.3565 3.573 0.193
77.3769 3.479 0.190
77.3974 3.271 0.185
77.4179 3.719 0.197
77.4383 3.740 0.197
77.4588 3.479 0.190
77.4792 3.760 0.198
77.4997 3.531 0.192
77.5202 3.729 0.197
77.5406 3.698 0.196
77.5611 4.000 0.204
77.5816 3.646 0.195
77.6020 3.750 0.198
77.6225 4.146 0.208
77.6429 3.885 0.201
77.6634 3.896 0.201
77.6839 3.500 0.191
77.7043 3.448 0.190
77.7248 3.771 0.198
77.7453 3.958 0.203
77.7657 3.563 0.193
77.7862 3.885 0.201
77.8066 4.167 0.208
77.8271 3.729 0.197
77.8476 4.021 0.205
77.8680 4.146 0.208
77.8885 4.135 0.208
77.9090 3.906 0.202
77.9294 3.917 0.202
77.9499 3.958 0.203
77.9704 3.479 0.190
77.9908 3.698 0.196
78.0113 2.979 0.176
78.0317 3.865 0.201
78.0522 3.469 0.190
78.0727 3.854 0.200
78.0931 3.729 0.197
78.1136 3.531 0.192
78.1341 3.677 0.196
78.1545 3.698 0.196
78.1750 3.615 0.194
78.1954 3.354 0.187
78.2159 3.448 0.190
78.2364 3.729 0.197
78.2568 3.844 0.200
78.2773 3.865 0.201
78.2978 3.594 0.193
78.3182 3.448 0.190
78.3387 3.302 0.185
78.3591 3.656 0.195
78.3796 3.354 0.187
78.4001 3.448 0.190
78.4205 3.635 0.195
78.4410 3.865 0.201
78.4615 3.885 0.201
78.4819 3.552 0.192
78.5024 3.677 0.196
78.5228 3.823 0.200
78.5433 3.573 0.193
78.5638 3.542 0.192
78.5842 3.656 0.195
78.6047 3.469 0.190
78.6252 3.635 0.195
78.6456 3.573 0.193
78.6661 3.583 0.193
78.6865 3.156 0.181
78.7070 3.625 0.194
78.7275 3.448 0.190
78.7479 3.542 0.192
78.7684 3.708 0.197
78.7889 3.479 0.190
78.8093 3.490 0.191
78.8298 3.531 0.192
78.8503 3.333 0.186
78.8707 3.708 0.197
78.8912 3.438 0.189
78.9116 3.365 0.187
78.9321 3.490 0.191
78.9526 3.677 0.196
78.9730 3.583 0.193
78.9935 3.646 0.195
79.0140 3.469 0.190
79.0344 3.542 0.192
79.0549 3.333 0.186
79.0753 3.958 0.203
79.0958 3.250 0.184
79.1163 3.271 0.185
79.1367 3.740 0.197
79.1572 3.198 0.183
79.1777 3.469 0.190
79.1981 3.406 0.188
79.2186 3.594 0.193
79.2390 3.521 0.192
79.2595 3.406 0.188
79.2800 3.635 0.195
79.3004 3.417 0.189
79.3209 3.469 0.190
79.3414 3.458 0.190
79.3618 3.521 0.192
79.3823 3.344 0.187
79.4027 3.625 0.194
79.4232 3.323 0.186
79.4437 3.771 0.198
79.4641 3.385 0.188
79.4846 3.885 0.201
79.5051 3.656 0.195
79.5255 3.646 0.195
79.5460 3.906 0.202
79.5664 3.604 0.194
79.5869 3.521 0.192
79.6074 3.781 0.198
79.6278 3.552 0.192
79.6483 4.042 0.205
79.6688 3.417 0.189
79.6892 3.469 0.190
79.7097 3.740 0.197
79.7302 3.531 0.192
79.7506 3.344 0.187
79.7711 3.479 0.190
79.7915 3.500 0.191
79.8120 3.438 0.189
79.8325 3.531 0.192
79.8529 3.552 0.192
79.8734 3.646 0.195
79.8939 3.479 0.190
79.9143 3.542 0.192
79.9348 3.604 0.194
79.9552 3.479 0.190
79.9757 3.458 0.190
79.9962 3.583 0.193
