'Id: "" Comment: "" Operator: "Lab Manager" Anode: "Cu" Scantype: "Locked Coupled" TimePerStep: "96" X: "0" Y: "0" Z: "0" 
5.0000 24.604 0.506
5.0205 25.156 0.512
5.0409 24.854 0.509
5.0614 25.646 0.517
5.0819 24.979 0.510
5.1023 24.823 0.508
5.1228 24.094 0.501
5.1432 24.771 0.508
5.1637 25.323 0.514
5.1842 24.823 0.508
5.2046 24.771 0.508
5.2251 24.365 0.504
5.2456 23.531 0.495
5.2660 23.646 0.496
5.2865 23.500 0.495
5.3069 23.656 0.496
5.3274 24.104 0.501
5.3479 22.198 0.481
5.3683 23.333 0.493
5.3888 24.073 0.501
5.4093 22.604 0.485
5.4297 23.302 0.493
5.4502 23.708 0.497
5.4706 23.323 0.493
5.4911 23.063 0.490
5.5116 22.958 0.489
5.5320 22.646 0.486
5.5525 22.823 0.488
5.5730 23.333 0.493
5.5934 23.625 0.496
5.6139 22.125 0.480
5.6343 23.427 0.494
5.6548 22.063 0.479
5.6753 22.313 0.482
5.6957 22.677 0.486
5.7162 22.573 0.485
5.7367 22.042 0.479
5.7571 22.635 0.486
5.7776 22.396 0.483
5.7980 22.469 0.484
5.8185 22.104 0.480
5.8390 22.135 0.480
5.8594 21.750 0.476
5.8799 22.104 0.480
5.9004 21.750 0.476
5.9208 21.156 0.469
5.9413 21.021 0.468
5.9618 20.594 0.463
5.9822 21.698 0.475
6.0027 21.479 0.473
6.0231 21.125 0.469
6.0436 21.010 0.468
6.0641 20.875 0.466
6.0845 20.292 0.460
6.1050 21.198 0.470
6.1255 22.771 0.487
6.1459 21.240 0.470
6.1664 21.021 0.468
6.1868 20.229 0.459
6.2073 20.760 0.465
6.2278 21.208 0.470
6.2482 21.333 0.471
6.2687 20.792 0.465
6.2892 20.958 0.467
6.3096 20.635 0.464
6.3301 20.635 0.464
6.3505 20.771 0.465
6.3710 21.260 0.471
6.3915 20.604 0.463
6.4119 21.021 0.468
6.4324 20.240 0.459
6.4529 20.313 0.460
6.4733 20.792 0.465
6.4938 19.885 0.455
6.5142 19.542 0.451
6.5347 20.021 0.457
6.5552 20.188 0.459
6.5756 21.031 0.468
6.5961 21.250 0.470
6.6166 21.125 0.469
6.6370 20.052 0.457
6.6575 20.813 0.466
6.6779 20.094 0.458
6.6984 21.583 0.474
6.7189 19.698 0.453
6.7393 20.260 0.459
6.7598 20.281 0.460
6.7803 20.375 0.461
6.8007 20.740 0.465
6.8212 20.656 0.464
6.8417 19.969 0.456
6.8621 20.052 0.457
6.8826 19.802 0.454
6.9030 19.698 0.453
6.9235 20.313 0.460
6.9440 20.531 0.462
6.9644 19.406 0.450
6.9849 19.542 0.451
7.0054 20.823 0.466
7.0258 21.406 0.472
7.0463 19.760 0.454
7.0667 19.771 0.454
7.0872 19.448 0.450
7.1077 19.677 0.453
7.1281 19.896 0.455
7.1486 19.927 0.456
7.1691 20.490 0.462
7.1895 19.750 0.454
7.2100 19.323 0.449
7.2304 19.250 0.448
7.2509 19.646 0.452
7.2714 20.063 0.457
7.2918 19.563 0.451
7.3123 19.635 0.452
7.3328 20.063 0.457
7.3532 19.792 0.454
7.3737 19.063 0.446
7.3941 19.240 0.448
7.4146 18.813 0.443
7.4351 20.219 0.459
7.4555 19.708 0.453
7.4760 20.010 0.457
7.4965 20.323 0.460
7.5169 19.438 0.450
7.5374 19.656 0.452
7.5579 20.115 0.458
7.5783 19.635 0.452
7.5988 19.479 0.450
7.6192 19.146 0.447
7.6397 19.563 0.451
7.6602 18.844 0.443
7.6806 20.000 0.456
7.7011 19.656 0.452
7.7216 19.635 0.452
7.7420 19.260 0.448
7.7625 19.188 0.447
7.7829 19.500 0.451
7.8034 19.406 0.450
7.8239 19.302 0.448
7.8443 19.510 0.451
7.8648 18.604 0.440
7.8853 19.000 0.445
7.9057 19.177 0.447
7.9262 19.719 0.453
7.9466 19.906 0.455
7.9671 20.760 0.465
7.9876 20.385 0.461
8.0080 19.844 0.455
8.0285 19.510 0.451
8.0490 19.510 0.451
8.0694 20.115 0.458
8.0899 20.479 0.462
8.1103 19.448 0.450
8.1308 19.083 0.446
8.1513 19.458 0.450
8.1717 19.073 0.446
8.1922 20.031 0.457
8.2127 19.885 0.455
8.2331 20.552 0.463
8.2536 21.208 0.470
8.2740 19.708 0.453
8.2945 19.781 0.454
8.3150 18.958 0.444
8.3354 20.292 0.460
8.3559 19.896 0.455
8.3764 20.156 0.458
8.3968 19.615 0.452
8.4173 19.698 0.453
8.4378 19.188 0.447
8.4582 19.177 0.447
8.4787 19.563 0.451
8.4991 19.479 0.450
8.5196 19.490 0.451
8.5401 19.167 0.447
8.5605 18.688 0.441
8.5810 18.313 0.437
8.6015 19.667 0.453
8.6219 19.271 0.448
8.6424 18.625 0.440
8.6628 19.656 0.452
8.6833 19.927 0.456
8.7038 19.406 0.450
8.7242 19.042 0.445
8.7447 20.354 0.460
8.7652 20.021 0.457
8.7856 20.104 0.458
8.8061 19.354 0.449
8.8265 20.208 0.459
8.8470 20.063 0.457
8.8675 19.833 0.455
8.8879 21.135 0.469
8.9084 21.729 0.476
8.9289 22.854 0.488
8.9493 23.938 0.499
8.9698 23.698 0.497
8.9902 23.802 0.498
9.0107 23.375 0.493
9.0312 24.885 0.509
9.0516 26.792 0.528
9.0721 30.073 0.560
9.0926 35.510 0.608
9.1130 40.271 0.648
9.1335 41.667 0.659
9.1539 32.510 0.582
9.1744 25.385 0.514
9.1949 22.688 0.486
9.2153 21.760 0.476
9.2358 20.490 0.462
9.2563 21.854 0.477
9.2767 22.458 0.484
9.2972 23.479 0.495
9.3177 22.979 0.489
9.3381 22.073 0.480
9.3586 22.271 0.482
9.3790 22.781 0.487
9.3995 22.177 0.481
9.4200 23.531 0.495
9.4404 23.646 0.496
9.4609 23.635 0.496
9.4814 23.073 0.490
9.5018 24.938 0.510
9.5223 27.010 0.530
9.5427 27.969 0.540
9.5632 33.198 0.588
9.5837 39.031 0.638
9.6041 44.479 0.681
9.6246 51.375 0.732
9.6451 56.344 0.766
9.6655 63.052 0.810
9.6860 67.094 0.836
9.7064 74.323 0.880
9.7269 82.188 0.925
9.7474 95.573 0.998
9.7678 116.292 1.101
9.7883 150.510 1.252
9.8088 210.135 1.479
9.8292 315.875 1.814
9.8497 492.698 2.265
9.8701 787.677 2.864
9.8906 1237.042 3.590
9.9111 1914.500 4.466
9.9315 1809.198 4.341
9.9520 940.417 3.130
9.9725 294.333 1.751
9.9929 117.479 1.106
10.0134 84.667 0.939
10.0338 71.260 0.862
10.0543 66.990 0.835
10.0748 61.823 0.802
10.0952 59.490 0.787
10.1157 55.833 0.763
10.1362 52.198 0.737
10.1566 46.646 0.697
10.1771 39.427 0.641
10.1976 33.292 0.589
10.2180 30.667 0.565
10.2385 29.344 0.553
10.2589 28.125 0.541
10.2794 26.885 0.529
10.2999 26.656 0.527
10.3203 25.875 0.519
10.3408 25.542 0.516
10.3613 25.542 0.516
10.3817 25.792 0.518
10.4022 25.396 0.514
10.4226 24.323 0.503
10.4431 23.417 0.494
10.4636 23.917 0.499
10.4840 23.896 0.499
10.5045 23.677 0.497
10.5250 23.135 0.491
10.5454 23.375 0.493
10.5659 23.563 0.495
10.5863 22.573 0.485
10.6068 22.927 0.489
10.6273 21.396 0.472
10.6477 22.979 0.489
10.6682 22.844 0.488
10.6887 21.427 0.472
10.7091 21.948 0.478
10.7296 21.552 0.474
10.7500 22.104 0.480
10.7705 21.375 0.472
10.7910 20.792 0.465
10.8114 21.333 0.471
10.8319 20.583 0.463
10.8524 19.865 0.455
10.8728 21.656 0.475
10.8933 20.740 0.465
10.9137 20.406 0.461
10.9342 19.948 0.456
10.9547 20.250 0.459
10.9751 20.042 0.457
10.9956 20.083 0.457
11.0161 19.604 0.452
11.0365 18.917 0.444
11.0570 19.260 0.448
11.0775 18.125 0.435
11.0979 18.958 0.444
11.1184 18.760 0.442
11.1388 18.729 0.442
11.1593 19.365 0.449
11.1798 18.208 0.436
11.2002 18.594 0.440
11.2207 18.677 0.441
11.2412 18.448 0.438
11.2616 17.990 0.433
11.2821 17.896 0.432
11.3025 18.656 0.441
11.3230 18.583 0.440
11.3435 18.313 0.437
11.3639 18.104 0.434
11.3844 17.573 0.428
11.4049 17.896 0.432
11.4253 17.406 0.426
11.4458 17.500 0.427
11.4662 16.875 0.419
11.4867 17.438 0.426
11.5072 17.156 0.423
11.5276 17.375 0.425
11.5481 17.010 0.421
11.5686 16.281 0.412
11.5890 17.052 0.421
11.6095 17.063 0.422
11.6299 16.156 0.410
11.6504 17.594 0.428
11.6709 17.333 0.425
11.6913 16.313 0.412
11.7118 17.135 0.422
11.7323 16.510 0.415
11.7527 15.823 0.406
11.7732 17.156 0.423
11.7937 16.063 0.409
11.8141 16.188 0.411
11.8346 15.885 0.407
11.8550 16.563 0.415
11.8755 15.875 0.407
11.8960 16.771 0.418
11.9164 16.167 0.410
11.9369 15.135 0.397
11.9574 15.240 0.398
11.9778 15.594 0.403
11.9983 16.073 0.409
12.0187 15.250 0.399
12.0392 15.552 0.402
12.0597 15.490 0.402
12.0801 15.323 0.400
12.1006 15.333 0.400
12.1211 15.156 0.397
12.1415 15.375 0.400
12.1620 15.240 0.398
12.1824 15.667 0.404
12.2029 15.146 0.397
12.2234 14.833 0.393
12.2438 15.396 0.400
12.2643 14.740 0.392
12.2848 15.042 0.396
12.3052 14.688 0.391
12.3257 15.073 0.396
12.3461 14.615 0.390
12.3666 14.990 0.395
12.3871 15.250 0.399
12.4075 15.365 0.400
12.4280 14.875 0.394
12.4485 15.427 0.401
12.4689 15.167 0.397
12.4894 14.896 0.394
12.5098 14.719 0.392
12.5303 14.823 0.393
12.5508 14.844 0.393
12.5712 15.260 0.399
12.5917 14.656 0.391
12.6122 14.333 0.386
12.6326 13.844 0.380
12.6531 15.031 0.396
12.6736 14.760 0.392
12.6940 15.031 0.396
12.7145 15.250 0.399
12.7349 14.917 0.394
12.7554 14.833 0.393
12.7759 15.281 0.399
12.7963 14.646 0.391
12.8168 14.500 0.389
12.8373 14.479 0.388
12.8577 14.708 0.391
12.8782 14.823 0.393
12.8986 14.521 0.389
12.9191 14.010 0.382
12.9396 14.969 0.395
12.9600 14.500 0.389
12.9805 14.771 0.392
13.0010 14.823 0.393
13.0214 14.292 0.386
13.0419 14.844 0.393
13.0623 15.135 0.397
13.0828 15.323 0.400
13.1033 14.531 0.389
13.1237 15.198 0.398
13.1442 14.729 0.392
13.1647 15.240 0.398
13.1851 15.542 0.402
13.2056 15.146 0.397
13.2260 16.000 0.408
13.2465 15.531 0.402
13.2670 14.854 0.393
13.2874 15.125 0.397
13.3079 16.240 0.411
13.3284 16.115 0.410
13.3488 15.479 0.402
13.3693 15.500 0.402
13.3897 16.625 0.416
13.4102 16.125 0.410
13.4307 15.344 0.400
13.4511 15.583 0.403
13.4716 15.792 0.406
13.4921 16.333 0.412
13.5125 15.333 0.400
13.5330 16.719 0.417
13.5535 16.813 0.418
13.5739 15.979 0.408
13.5944 16.031 0.409
13.6148 16.375 0.413
13.6353 17.010 0.421
13.6558 16.563 0.415
13.6762 16.240 0.411
13.6967 16.396 0.413
13.7172 16.656 0.417
13.7376 16.885 0.419
13.7581 16.604 0.416
13.7785 16.656 0.417
13.7990 16.563 0.415
13.8195 17.073 0.422
13.8399 17.438 0.426
13.8604 17.010 0.421
13.8809 16.542 0.415
13.9013 17.865 0.431
13.9218 17.292 0.424
13.9422 17.875 0.432
13.9627 17.771 0.430
13.9832 18.344 0.437
14.0036 17.760 0.430
14.0241 17.458 0.426
14.0446 17.854 0.431
14.0650 18.615 0.440
14.0855 17.250 0.424
14.1059 17.906 0.432
14.1264 17.948 0.432
14.1469 17.740 0.430
14.1673 18.208 0.436
14.1878 18.031 0.433
14.2083 18.729 0.442
14.2287 18.313 0.437
14.2492 18.073 0.434
14.2696 17.573 0.428
14.2901 17.781 0.430
14.3106 17.729 0.430
14.3310 17.594 0.428
14.3515 18.344 0.437
14.3720 17.896 0.432
14.3924 18.042 0.434
14.4129 17.958 0.433
14.4334 17.740 0.430
14.4538 18.771 0.442
14.4743 17.917 0.432
14.4947 18.042 0.434
14.5152 18.042 0.434
14.5357 18.010 0.433
14.5561 17.302 0.425
14.5766 18.917 0.444
14.5971 17.479 0.427
14.6175 17.875 0.432
14.6380 17.625 0.428
14.6584 17.823 0.431
14.6789 17.625 0.428
14.6994 17.865 0.431
14.7198 17.323 0.425
14.7403 17.458 0.426
14.7608 17.000 0.421
14.7812 17.177 0.423
14.8017 15.906 0.407
14.8221 16.365 0.413
14.8426 16.531 0.415
14.8631 15.906 0.407
14.8835 15.208 0.398
14.9040 15.719 0.405
14.9245 15.073 0.396
14.9449 15.625 0.403
14.9654 16.031 0.409
14.9858 15.271 0.399
15.0063 14.656 0.391
15.0268 15.469 0.401
15.0472 15.500 0.402
15.0677 15.146 0.397
15.0882 14.792 0.393
15.1086 14.823 0.393
15.1291 14.760 0.392
15.1495 13.958 0.381
15.1700 14.042 0.382
15.1905 14.771 0.392
15.2109 13.833 0.380
15.2314 14.042 0.382
15.2519 13.948 0.381
15.2723 14.021 0.382
15.2928 13.281 0.372
15.3133 14.063 0.383
15.3337 13.375 0.373
15.3542 13.250 0.372
15.3746 13.417 0.374
15.3951 13.896 0.380
15.4156 13.344 0.373
15.4360 13.313 0.372
15.4565 12.719 0.364
15.4770 12.781 0.365
15.4974 12.500 0.361
15.5179 12.208 0.357
15.5383 12.167 0.356
15.5588 12.156 0.356
15.5793 12.615 0.362
15.5997 12.583 0.362
15.6202 11.646 0.348
15.6407 12.427 0.360
15.6611 12.146 0.356
15.6816 12.427 0.360
15.7020 12.802 0.365
15.7225 13.479 0.375
15.7430 15.063 0.396
15.7634 17.000 0.421
15.7839 19.979 0.456
15.8044 21.427 0.472
15.8248 18.833 0.443
15.8453 16.510 0.415
15.8657 14.646 0.391
15.8862 12.188 0.356
15.9067 11.594 0.348
15.9271 11.135 0.341
15.9476 10.854 0.336
15.9681 11.146 0.341
15.9885 11.208 0.342
16.0090 11.542 0.347
16.0295 10.906 0.337
16.0499 10.948 0.338
16.0704 11.010 0.339
16.0908 10.635 0.333
16.1113 10.823 0.336
16.1318 10.583 0.332
16.1522 10.510 0.331
16.1727 10.698 0.334
16.1932 10.208 0.326
16.2136 10.323 0.328
16.2341 9.969 0.322
16.2545 10.813 0.336
16.2750 10.302 0.328
16.2955 10.313 0.328
16.3159 10.219 0.326
16.3364 9.875 0.321
16.3569 9.792 0.319
16.3773 9.760 0.319
16.3978 9.938 0.322
16.4182 10.010 0.323
16.4387 9.781 0.319
16.4592 10.167 0.325
16.4796 10.510 0.331
16.5001 9.510 0.315
16.5206 9.708 0.318
16.5410 9.854 0.320
16.5615 9.375 0.313
16.5819 9.365 0.312
16.6024 9.948 0.322
16.6229 9.573 0.316
16.6433 9.406 0.313
16.6638 9.521 0.315
16.6843 9.677 0.317
16.7047 10.167 0.325
16.7252 9.594 0.316
16.7456 9.146 0.309
16.7661 9.635 0.317
16.7866 9.323 0.312
16.8070 9.594 0.316
16.8275 9.177 0.309
16.8480 9.458 0.314
16.8684 9.510 0.315
16.8889 9.271 0.311
16.9094 9.302 0.311
16.9298 9.625 0.317
16.9503 9.177 0.309
16.9707 9.594 0.316
16.9912 9.313 0.311
17.0117 9.594 0.316
17.0321 9.552 0.315
17.0526 9.010 0.306
17.0731 9.375 0.313
17.0935 9.865 0.321
17.1140 9.792 0.319
17.1344 9.448 0.314
17.1549 9.823 0.320
17.1754 9.427 0.313
17.1958 9.438 0.314
17.2163 9.146 0.309
17.2368 9.490 0.314
17.2572 10.052 0.324
17.2777 9.813 0.320
17.2981 9.510 0.315
17.3186 9.813 0.320
17.3391 9.865 0.321
17.3595 9.750 0.319
17.3800 10.063 0.324
17.4005 10.271 0.327
17.4209 10.729 0.334
17.4414 11.521 0.346
17.4618 12.896 0.367
17.4823 15.344 0.400
17.5028 17.104 0.422
17.5232 22.906 0.488
17.5437 27.281 0.533
17.5642 30.625 0.565
17.5846 30.438 0.563
17.6051 24.250 0.503
17.6255 18.510 0.439
17.6460 13.854 0.380
17.6665 11.438 0.345
17.6869 10.604 0.332
17.7074 10.208 0.326
17.7279 10.010 0.323
17.7483 10.375 0.329
17.7688 10.313 0.328
17.7893 10.240 0.327
17.8097 11.188 0.341
17.8302 11.281 0.343
17.8506 11.635 0.348
17.8711 10.948 0.338
17.8916 10.583 0.332
17.9120 11.146 0.341
17.9325 10.917 0.337
17.9530 10.240 0.327
17.9734 10.146 0.325
17.9939 10.365 0.329
18.0143 10.000 0.323
18.0348 9.635 0.317
18.0553 10.542 0.331
18.0757 12.438 0.360
18.0962 12.510 0.361
18.1167 13.990 0.382
18.1371 11.438 0.345
18.1576 10.573 0.332
18.1780 10.167 0.325
18.1985 9.521 0.315
18.2190 9.396 0.313
18.2394 9.125 0.308
18.2599 9.792 0.319
18.2804 9.469 0.314
18.3008 9.719 0.318
18.3213 9.375 0.313
18.3417 9.229 0.310
18.3622 8.625 0.300
18.3827 8.802 0.303
18.4031 8.771 0.302
18.4236 8.958 0.305
18.4441 9.167 0.309
18.4645 9.063 0.307
18.4850 8.365 0.295
18.5054 8.833 0.303
18.5259 8.333 0.295
18.5464 8.813 0.303
18.5668 8.688 0.301
18.5873 8.740 0.302
18.6078 9.229 0.310
18.6282 9.313 0.311
18.6487 9.948 0.322
18.6692 9.250 0.310
18.6896 9.427 0.313
18.7101 8.688 0.301
18.7305 9.260 0.311
18.7510 9.344 0.312
18.7715 9.625 0.317
18.7919 9.292 0.311
18.8124 9.646 0.317
18.8329 10.375 0.329
18.8533 10.813 0.336
18.8738 11.688 0.349
18.8942 12.188 0.356
18.9147 12.104 0.355
18.9352 12.031 0.354
18.9556 10.958 0.338
18.9761 10.646 0.333
18.9966 9.938 0.322
19.0170 9.104 0.308
19.0375 10.052 0.324
19.0579 9.771 0.319
19.0784 9.323 0.312
19.0989 9.563 0.316
19.1193 9.490 0.314
19.1398 10.146 0.325
19.1603 10.229 0.326
19.1807 11.115 0.340
19.2012 11.146 0.341
19.2216 11.750 0.350
19.2421 11.365 0.344
19.2626 11.167 0.341
19.2830 11.344 0.344
19.3035 10.667 0.333
19.3240 11.552 0.347
19.3444 11.521 0.346
19.3649 11.490 0.346
19.3853 11.958 0.353
19.4058 11.635 0.348
19.4263 11.167 0.341
19.4467 12.365 0.359
19.4672 12.052 0.354
19.4877 12.271 0.358
19.5081 12.969 0.368
19.5286 14.563 0.389
19.5491 15.896 0.407
19.5695 16.563 0.415
19.5900 19.219 0.447
19.6104 21.104 0.469
19.6309 21.969 0.478
19.6514 23.875 0.499
19.6718 26.031 0.521
19.6923 26.740 0.528
19.7128 30.021 0.559
19.7332 37.063 0.621
19.7537 49.385 0.717
19.7741 68.448 0.844
19.7946 113.615 1.088
19.8151 205.521 1.463
19.8355 415.208 2.080
19.8560 648.479 2.599
19.8765 497.333 2.276
19.8969 357.156 1.929
19.9174 296.979 1.759
19.9378 117.740 1.107
19.9583 52.990 0.743
19.9788 35.792 0.611
19.9992 29.927 0.558
20.0197 26.021 0.521
20.0402 25.135 0.512
20.0606 23.542 0.495
20.0811 21.635 0.475
20.1015 20.073 0.457
20.1220 18.438 0.438
20.1425 15.594 0.403
20.1629 14.188 0.384
20.1834 14.396 0.387
20.2039 13.833 0.380
20.2243 14.688 0.391
20.2448 16.875 0.419
20.2653 18.719 0.442
20.2857 21.823 0.477
20.3062 22.990 0.489
20.3266 21.552 0.474
20.3471 19.052 0.445
20.3676 16.469 0.414
20.3880 14.323 0.386
20.4085 11.677 0.349
20.4290 11.208 0.342
20.4494 10.677 0.333
20.4699 10.042 0.323
20.4903 9.656 0.317
20.5108 10.438 0.330
20.5313 9.542 0.315
20.5517 10.844 0.336
20.5722 10.156 0.325
20.5927 9.833 0.320
20.6131 9.594 0.316
20.6336 10.156 0.325
20.6540 9.458 0.314
20.6745 10.167 0.325
20.6950 9.073 0.307
20.7154 9.240 0.310
20.7359 9.302 0.311
20.7564 9.365 0.312
20.7768 9.354 0.312
20.7973 9.802 0.320
20.8177 9.188 0.309
20.8382 9.260 0.311
20.8587 9.792 0.319
20.8791 9.063 0.307
20.8996 9.406 0.313
20.9201 9.281 0.311
20.9405 9.125 0.308
20.9610 9.760 0.319
20.9814 9.385 0.313
21.0019 9.135 0.308
21.0224 9.521 0.315
21.0428 9.031 0.307
21.0633 9.146 0.309
21.0838 8.979 0.306
21.1042 8.646 0.300
21.1247 8.729 0.302
21.1452 9.396 0.313
21.1656 8.615 0.300
21.1861 8.781 0.302
21.2065 8.667 0.300
21.2270 8.875 0.304
21.2475 9.021 0.307
21.2679 8.875 0.304
21.2884 9.292 0.311
21.3089 8.729 0.302
21.3293 8.531 0.298
21.3498 8.656 0.300
21.3702 8.583 0.299
21.3907 9.010 0.306
21.4112 8.875 0.304
21.4316 9.042 0.307
21.4521 9.167 0.309
21.4726 8.771 0.302
21.4930 9.427 0.313
21.5135 9.073 0.307
21.5339 9.563 0.316
21.5544 8.625 0.300
21.5749 8.802 0.303
21.5953 9.354 0.312
21.6158 9.563 0.316
21.6363 9.771 0.319
21.6567 9.260 0.311
21.6772 9.271 0.311
21.6976 8.479 0.297
21.7181 8.896 0.304
21.7386 9.052 0.307
21.7590 9.000 0.306
21.7795 9.240 0.310
21.8000 8.938 0.305
21.8204 9.260 0.311
21.8409 9.229 0.310
21.8613 8.646 0.300
21.8818 8.594 0.299
21.9023 9.365 0.312
21.9227 9.750 0.319
21.9432 9.458 0.314
21.9637 10.240 0.327
21.9841 10.635 0.333
22.0046 10.031 0.323
22.0251 10.396 0.329
22.0455 10.771 0.335
22.0660 12.063 0.354
22.0864 12.177 0.356
22.1069 14.792 0.393
22.1274 16.375 0.413
22.1478 21.531 0.474
22.1683 30.854 0.567
22.1888 45.896 0.691
22.2092 61.031 0.797
22.2297 57.146 0.772
22.2501 45.250 0.687
22.2706 39.708 0.643
22.2911 29.646 0.556
22.3115 19.198 0.447
22.3320 15.125 0.397
22.3525 12.604 0.362
22.3729 11.573 0.347
22.3934 11.948 0.353
22.4138 10.667 0.333
22.4343 10.625 0.333
22.4548 10.135 0.325
22.4752 9.802 0.320
22.4957 9.313 0.311
22.5162 9.500 0.315
22.5366 9.417 0.313
22.5571 9.354 0.312
22.5775 9.625 0.317
22.5980 9.167 0.309
22.6185 8.646 0.300
22.6389 9.115 0.308
22.6594 9.104 0.308
22.6799 8.615 0.300
22.7003 8.500 0.298
22.7208 8.542 0.298
22.7412 8.115 0.291
22.7617 8.813 0.303
22.7822 9.115 0.308
22.8026 9.188 0.309
22.8231 8.677 0.301
22.8436 9.125 0.308
22.8640 9.771 0.319
22.8845 10.250 0.327
22.9050 11.729 0.350
22.9254 13.385 0.373
22.9459 13.583 0.376
22.9663 11.792 0.350
22.9868 11.281 0.343
23.0073 10.042 0.323
23.0277 10.219 0.326
23.0482 8.833 0.303
23.0687 9.167 0.309
23.0891 9.052 0.307
23.1096 8.573 0.299
23.1300 8.542 0.298
23.1505 8.292 0.294
23.1710 8.573 0.299
23.1914 8.656 0.300
23.2119 8.740 0.302
23.2324 8.427 0.296
23.2528 8.729 0.302
23.2733 8.177 0.292
23.2937 7.469 0.279
23.3142 7.667 0.283
23.3347 8.250 0.293
23.3551 8.021 0.289
23.3756 7.948 0.288
23.3961 8.417 0.296
23.4165 7.979 0.288
23.4370 7.958 0.288
23.4574 8.083 0.290
23.4779 8.135 0.291
23.4984 8.167 0.292
23.5188 7.729 0.284
23.5393 8.135 0.291
23.5598 7.875 0.286
23.5802 7.823 0.285
23.6007 8.229 0.293
23.6211 7.854 0.286
23.6416 8.000 0.289
23.6621 8.031 0.289
23.6825 8.458 0.297
23.7030 8.156 0.291
23.7235 7.938 0.288
23.7439 7.792 0.285
23.7644 8.146 0.291
23.7849 7.594 0.281
23.8053 7.958 0.288
23.8258 7.719 0.284
23.8462 8.010 0.289
23.8667 8.396 0.296
23.8872 7.604 0.281
23.9076 8.156 0.291
23.9281 7.948 0.288
23.9486 7.542 0.280
23.9690 7.833 0.286
23.9895 8.646 0.300
24.0099 7.948 0.288
24.0304 8.271 0.294
24.0509 8.021 0.289
24.0713 8.333 0.295
24.0918 7.823 0.285
24.1123 8.052 0.290
24.1327 8.333 0.295
24.1532 8.292 0.294
24.1736 8.521 0.298
24.1941 8.417 0.296
24.2146 8.156 0.291
24.2350 8.198 0.292
24.2555 8.573 0.299
24.2760 8.875 0.304
24.2964 9.708 0.318
24.3169 10.042 0.323
24.3373 11.531 0.347
24.3578 13.156 0.370
24.3783 12.802 0.365
24.3987 11.917 0.352
24.4192 11.094 0.340
24.4397 9.469 0.314
24.4601 8.854 0.304
24.4806 8.375 0.295
24.5011 8.240 0.293
24.5215 7.875 0.286
24.5420 8.146 0.291
24.5624 8.135 0.291
24.5829 8.010 0.289
24.6034 8.031 0.289
24.6238 7.958 0.288
24.6443 8.104 0.291
24.6648 8.677 0.301
24.6852 8.740 0.302
24.7057 8.990 0.306
24.7261 8.823 0.303
24.7466 8.625 0.300
24.7671 8.333 0.295
24.7875 7.990 0.288
24.8080 7.510 0.280
24.8285 7.938 0.288
24.8489 8.083 0.290
24.8694 7.708 0.283
24.8898 8.219 0.293
24.9103 7.719 0.284
24.9308 7.281 0.275
24.9512 7.708 0.283
24.9717 7.615 0.282
24.9922 7.698 0.283
25.0126 7.396 0.278
25.0331 7.750 0.284
25.0535 7.604 0.281
25.0740 8.438 0.296
25.0945 7.698 0.283
25.1149 7.688 0.283
25.1354 7.385 0.277
25.1559 6.938 0.269
25.1763 7.323 0.276
25.1968 7.552 0.280
25.2172 8.031 0.289
25.2377 8.083 0.290
25.2582 7.510 0.280
25.2786 7.688 0.283
25.2991 7.281 0.275
25.3196 7.688 0.283
25.3400 7.792 0.285
25.3605 7.948 0.288
25.3810 7.927 0.287
25.4014 7.906 0.287
25.4219 7.333 0.276
25.4423 7.698 0.283
25.4628 8.063 0.290
25.4833 7.469 0.279
25.5037 7.760 0.284
25.5242 8.167 0.292
25.5447 9.177 0.309
25.5651 8.375 0.295
25.5856 9.500 0.315
25.6060 10.583 0.332
25.6265 10.281 0.327
25.6470 9.417 0.313
25.6674 9.625 0.317
25.6879 9.740 0.319
25.7084 8.240 0.293
25.7288 8.552 0.298
25.7493 7.833 0.286
25.7697 8.177 0.292
25.7902 7.979 0.288
25.8107 7.698 0.283
25.8311 7.792 0.285
25.8516 7.625 0.282
25.8721 7.885 0.287
25.8925 7.542 0.280
25.9130 7.438 0.278
25.9334 7.906 0.287
25.9539 7.865 0.286
25.9744 7.927 0.287
25.9948 7.917 0.287
26.0153 7.969 0.288
26.0358 7.792 0.285
26.0562 7.604 0.281
26.0767 7.313 0.276
26.0971 8.125 0.291
26.1176 7.990 0.288
26.1381 6.906 0.268
26.1585 7.708 0.283
26.1790 7.969 0.288
26.1995 7.396 0.278
26.2199 7.552 0.280
26.2404 8.375 0.295
26.2609 7.854 0.286
26.2813 8.042 0.289
26.3018 7.708 0.283
26.3222 7.896 0.287
26.3427 7.708 0.283
26.3632 7.854 0.286
26.3836 7.698 0.283
26.4041 7.583 0.281
26.4246 7.594 0.281
26.4450 7.969 0.288
26.4655 7.833 0.286
26.4859 7.865 0.286
26.5064 7.583 0.281
26.5269 8.031 0.289
26.5473 7.594 0.281
26.5678 7.260 0.275
26.5883 7.885 0.287
26.6087 8.021 0.289
26.6292 7.688 0.283
26.6496 8.010 0.289
26.6701 7.896 0.287
26.6906 7.948 0.288
26.7110 8.354 0.295
26.7315 8.208 0.292
26.7520 8.323 0.294
26.7724 8.115 0.291
26.7929 8.646 0.300
26.8133 8.385 0.296
26.8338 8.844 0.304
26.8543 10.094 0.324
26.8747 10.594 0.332
26.8952 12.333 0.358
26.9157 14.198 0.385
26.9361 14.938 0.394
26.9566 17.042 0.421
26.9770 15.833 0.406
26.9975 15.135 0.397
27.0180 13.406 0.374
27.0384 11.406 0.345
27.0589 10.365 0.329
27.0794 9.854 0.320
27.0998 9.625 0.317
27.1203 9.083 0.308
27.1408 8.781 0.302
27.1612 8.979 0.306
27.1817 8.500 0.298
27.2021 8.958 0.305
27.2226 8.604 0.299
27.2431 9.000 0.306
27.2635 9.031 0.307
27.2840 10.292 0.327
27.3045 8.656 0.300
27.3249 8.906 0.305
27.3454 8.479 0.297
27.3658 9.552 0.315
27.3863 9.063 0.307
27.4068 9.427 0.313
27.4272 9.406 0.313
27.4477 10.208 0.326
27.4682 9.969 0.322
27.4886 11.302 0.343
27.5091 11.563 0.347
27.5295 11.281 0.343
27.5500 10.833 0.336
27.5705 10.531 0.331
27.5909 10.854 0.336
27.6114 10.885 0.337
27.6319 9.948 0.322
27.6523 10.438 0.330
27.6728 10.385 0.329
27.6932 10.198 0.326
27.7137 10.240 0.327
27.7342 10.760 0.335
27.7546 11.354 0.344
27.7751 10.865 0.336
27.7956 10.760 0.335
27.8160 10.823 0.336
27.8365 11.854 0.351
27.8569 11.677 0.349
27.8774 11.948 0.353
27.8979 12.083 0.355
27.9183 12.104 0.355
27.9388 12.740 0.364
27.9593 12.854 0.366
27.9797 12.281 0.358
28.0002 13.031 0.368
28.0207 13.031 0.368
28.0411 13.406 0.374
28.0616 12.698 0.364
28.0820 13.552 0.376
28.1025 12.906 0.367
28.1230 14.354 0.387
28.1434 13.052 0.369
28.1639 13.844 0.380
28.1844 12.958 0.367
28.2048 13.469 0.375
28.2253 13.615 0.377
28.2457 13.125 0.370
28.2662 13.458 0.374
28.2867 12.740 0.364
28.3071 13.125 0.370
28.3276 12.479 0.361
28.3481 12.854 0.366
28.3685 12.563 0.362
28.3890 13.229 0.371
28.4094 12.281 0.358
28.4299 12.177 0.356
28.4504 11.990 0.353
28.4708 12.646 0.363
28.4913 11.479 0.346
28.5118 12.323 0.358
28.5322 11.385 0.344
28.5527 11.813 0.351
28.5731 11.854 0.351
28.5936 12.042 0.354
28.6141 11.385 0.344
28.6345 10.969 0.338
28.6550 11.573 0.347
28.6755 11.021 0.339
28.6959 12.198 0.356
28.7164 11.958 0.353
28.7368 12.604 0.362
28.7573 13.385 0.373
28.7778 14.688 0.391
28.7982 17.427 0.426
28.8187 19.417 0.450
28.8392 21.000 0.468
28.8596 21.198 0.470
28.8801 20.250 0.459
28.9006 18.385 0.438
28.9210 16.573 0.415
28.9415 15.052 0.396
28.9619 13.052 0.369
28.9824 10.802 0.335
29.0029 9.708 0.318
29.0233 10.094 0.324
29.0438 8.990 0.306
29.0643 8.667 0.300
29.0847 8.750 0.302
29.1052 8.802 0.303
29.1256 8.917 0.305
29.1461 9.156 0.309
29.1666 8.583 0.299
29.1870 7.969 0.288
29.2075 8.448 0.297
29.2280 8.521 0.298
29.2484 8.417 0.296
29.2689 7.938 0.288
29.2893 8.656 0.300
29.3098 8.771 0.302
29.3303 8.906 0.305
29.3507 8.396 0.296
29.3712 8.500 0.298
29.3917 9.479 0.314
29.4121 8.813 0.303
29.4326 8.406 0.296
29.4530 8.313 0.294
29.4735 8.031 0.289
29.4940 7.677 0.283
29.5144 8.115 0.291
29.5349 7.917 0.287
29.5554 7.521 0.280
29.5758 7.656 0.282
29.5963 8.021 0.289
29.6168 7.813 0.285
29.6372 7.979 0.288
29.6577 7.271 0.275
29.6781 8.146 0.291
29.6986 7.927 0.287
29.7191 8.083 0.290
29.7395 7.677 0.283
29.7600 7.438 0.278
29.7805 7.198 0.274
29.8009 7.073 0.271
29.8214 7.073 0.271
29.8418 7.667 0.283
29.8623 7.177 0.273
29.8828 7.302 0.276
29.9032 7.021 0.270
29.9237 7.688 0.283
29.9442 8.646 0.300
29.9646 8.031 0.289
29.9851 7.552 0.280
30.0055 7.625 0.282
30.0260 7.552 0.280
30.0465 7.750 0.284
30.0669 7.146 0.273
30.0874 7.240 0.275
30.1079 7.448 0.279
30.1283 6.917 0.268
30.1488 7.146 0.273
30.1692 7.240 0.275
30.1897 6.698 0.264
30.2102 7.167 0.273
30.2306 7.458 0.279
30.2511 7.135 0.273
30.2716 7.438 0.278
30.2920 7.302 0.276
30.3125 6.906 0.268
30.3329 7.542 0.280
30.3534 7.219 0.274
30.3739 7.563 0.281
30.3943 7.000 0.270
30.4148 6.604 0.262
30.4353 7.760 0.284
30.4557 7.583 0.281
30.4762 7.385 0.277
30.4967 6.896 0.268
30.5171 7.156 0.273
30.5376 7.781 0.285
30.5580 6.990 0.270
30.5785 7.125 0.272
30.5990 6.938 0.269
30.6194 7.427 0.278
30.6399 6.271 0.256
30.6604 6.875 0.268
30.6808 6.688 0.264
30.7013 7.521 0.280
30.7217 7.073 0.271
30.7422 7.208 0.274
30.7627 7.135 0.273
30.7831 7.563 0.281
30.8036 7.396 0.278
30.8241 7.583 0.281
30.8445 8.396 0.296
30.8650 8.229 0.293
30.8854 8.094 0.290
30.9059 8.521 0.298
30.9264 8.479 0.297
30.9468 8.865 0.304
30.9673 11.208 0.342
30.9878 14.083 0.383
31.0082 19.542 0.451
31.0287 27.688 0.537
31.0491 34.240 0.597
31.0696 29.042 0.550
31.0901 22.896 0.488
31.1105 22.219 0.481
31.1310 21.781 0.476
31.1515 17.729 0.430
31.1719 12.865 0.366
31.1924 10.667 0.333
31.2128 9.615 0.316
31.2333 8.740 0.302
31.2538 8.719 0.301
31.2742 8.500 0.298
31.2947 8.083 0.290
31.3152 7.521 0.280
31.3356 7.760 0.284
31.3561 7.563 0.281
31.3766 8.125 0.291
31.3970 7.875 0.286
31.4175 7.969 0.288
31.4379 7.510 0.280
31.4584 7.583 0.281
31.4789 7.021 0.270
31.4993 7.229 0.274
31.5198 7.490 0.279
31.5403 7.375 0.277
31.5607 7.052 0.271
31.5812 6.969 0.269
31.6016 6.854 0.267
31.6221 7.292 0.276
31.6426 6.833 0.267
31.6630 7.333 0.276
31.6835 7.448 0.279
31.7040 7.198 0.274
31.7244 6.917 0.268
31.7449 7.188 0.274
31.7653 7.135 0.273
31.7858 6.771 0.266
31.8063 7.083 0.272
31.8267 7.396 0.278
31.8472 7.781 0.285
31.8677 7.708 0.283
31.8881 7.948 0.288
31.9086 8.052 0.290
31.9290 7.875 0.286
31.9495 8.042 0.289
31.9700 7.938 0.288
31.9904 8.448 0.297
32.0109 7.823 0.285
32.0314 8.010 0.289
32.0518 9.292 0.311
32.0723 9.583 0.316
32.0927 9.844 0.320
32.1132 11.427 0.345
32.1337 12.427 0.360
32.1541 12.719 0.364
32.1746 12.729 0.364
32.1951 13.250 0.372
32.2155 15.344 0.400
32.2360 17.313 0.425
32.2565 18.313 0.437
32.2769 19.281 0.448
32.2974 22.104 0.480
32.3178 24.208 0.502
32.3383 25.229 0.513
32.3588 25.260 0.513
32.3792 22.625 0.485
32.3997 19.458 0.450
32.4202 17.792 0.430
32.4406 15.792 0.406
32.4611 14.375 0.387
32.4815 11.917 0.352
32.5020 10.375 0.329
32.5225 9.917 0.321
32.5429 10.156 0.325
32.5634 10.333 0.328
32.5839 10.875 0.337
32.6043 12.552 0.362
32.6248 16.583 0.416
32.6452 20.292 0.460
32.6657 19.365 0.449
32.6862 16.896 0.420
32.7066 16.365 0.413
32.7271 14.760 0.392
32.7476 13.885 0.380
32.7680 12.156 0.356
32.7885 10.052 0.324
32.8089 9.073 0.307
32.8294 8.552 0.298
32.8499 8.031 0.289
32.8703 7.708 0.283
32.8908 7.479 0.279
32.9113 7.854 0.286
32.9317 7.490 0.279
32.9522 7.365 0.277
32.9726 7.542 0.280
32.9931 7.031 0.271
33.0136 7.271 0.275
33.0340 7.240 0.275
33.0545 6.958 0.269
33.0750 7.271 0.275
33.0954 7.323 0.276
33.1159 7.656 0.282
33.1364 7.208 0.274
33.1568 7.208 0.274
33.1773 7.698 0.283
33.1977 7.292 0.276
33.2182 7.229 0.274
33.2387 7.135 0.273
33.2591 7.177 0.273
33.2796 6.885 0.268
33.3001 6.802 0.266
33.3205 7.250 0.275
33.3410 7.375 0.277
33.3614 7.073 0.271
33.3819 7.479 0.279
33.4024 7.438 0.278
33.4228 7.604 0.281
33.4433 7.490 0.279
33.4638 6.760 0.265
33.4842 7.146 0.273
33.5047 7.260 0.275
33.5251 6.771 0.266
33.5456 6.906 0.268
33.5661 6.865 0.267
33.5865 6.833 0.267
33.6070 7.354 0.277
33.6275 6.677 0.264
33.6479 6.750 0.265
33.6684 6.969 0.269
33.6888 6.958 0.269
33.7093 6.438 0.259
33.7298 6.552 0.261
33.7502 6.563 0.261
33.7707 6.615 0.262
33.7912 6.698 0.264
33.8116 6.396 0.258
33.8321 7.260 0.275
33.8526 6.771 0.266
33.8730 6.521 0.261
33.8935 7.292 0.276
33.9139 7.667 0.283
33.9344 7.635 0.282
33.9549 7.698 0.283
33.9753 7.813 0.285
33.9958 7.406 0.278
34.0163 7.240 0.275
34.0367 7.656 0.282
34.0572 7.635 0.282
34.0776 7.323 0.276
34.0981 6.906 0.268
34.1186 7.010 0.270
34.1390 7.063 0.271
34.1595 7.188 0.274
34.1800 7.104 0.272
34.2004 6.990 0.270
34.2209 7.635 0.282
34.2413 8.010 0.289
34.2618 8.313 0.294
34.2823 8.031 0.289
34.3027 7.333 0.276
34.3232 8.156 0.291
34.3437 7.938 0.288
34.3641 7.896 0.287
34.3846 7.635 0.282
34.4050 6.813 0.266
34.4255 6.750 0.265
34.4460 7.260 0.275
34.4664 6.469 0.260
34.4869 6.333 0.257
34.5074 7.010 0.270
34.5278 6.583 0.262
34.5483 6.729 0.265
34.5687 6.708 0.264
34.5892 6.781 0.266
34.6097 6.198 0.254
34.6301 6.531 0.261
34.6506 6.219 0.255
34.6711 7.063 0.271
34.6915 6.313 0.256
34.7120 7.021 0.270
34.7325 6.885 0.268
34.7529 6.521 0.261
34.7734 6.948 0.269
34.7938 6.938 0.269
34.8143 6.365 0.257
34.8348 6.708 0.264
34.8552 7.042 0.271
34.8757 6.896 0.268
34.8962 6.708 0.264
34.9166 7.146 0.273
34.9371 9.000 0.306
34.9575 8.688 0.301
34.9780 10.250 0.327
34.9985 10.156 0.325
35.0189 9.125 0.308
35.0394 8.781 0.302
35.0599 8.833 0.303
35.0803 8.406 0.296
35.1008 7.958 0.288
35.1212 7.750 0.284
35.1417 7.625 0.282
35.1622 7.115 0.272
35.1826 7.146 0.273
35.2031 7.188 0.274
35.2236 6.635 0.263
35.2440 7.052 0.271
35.2645 6.865 0.267
35.2849 7.260 0.275
35.3054 7.198 0.274
35.3259 6.844 0.267
35.3463 7.073 0.271
35.3668 7.521 0.280
35.3873 7.823 0.285
35.4077 7.885 0.287
35.4282 7.979 0.288
35.4486 8.563 0.299
35.4691 9.198 0.310
35.4896 10.917 0.337
35.5100 10.583 0.332
35.5305 11.010 0.339
35.5510 11.188 0.341
35.5714 9.948 0.322
35.5919 9.531 0.315
35.6124 9.313 0.311
35.6328 8.396 0.296
35.6533 8.208 0.292
35.6737 7.635 0.282
35.6942 7.948 0.288
35.7147 7.417 0.278
35.7351 7.760 0.284
35.7556 7.083 0.272
35.7761 6.510 0.260
35.7965 6.604 0.262
35.8170 6.740 0.265
35.8374 6.885 0.268
35.8579 6.896 0.268
35.8784 6.563 0.261
35.8988 7.177 0.273
35.9193 7.052 0.271
35.9398 7.156 0.273
35.9602 6.510 0.260
35.9807 6.906 0.268
36.0011 6.948 0.269
36.0216 7.219 0.274
36.0421 6.917 0.268
36.0625 6.875 0.268
36.0830 7.698 0.283
36.1035 7.719 0.284
36.1239 7.948 0.288
36.1444 7.979 0.288
36.1648 8.427 0.296
36.1853 7.458 0.279
36.2058 8.063 0.290
36.2262 7.229 0.274
36.2467 7.750 0.284
36.2672 7.781 0.285
36.2876 7.688 0.283
36.3081 7.177 0.273
36.3285 7.458 0.279
36.3490 7.469 0.279
36.3695 8.010 0.289
36.3899 6.917 0.268
36.4104 7.802 0.285
36.4309 7.469 0.279
36.4513 8.104 0.291
36.4718 7.760 0.284
36.4923 8.260 0.293
36.5127 9.385 0.313
36.5332 8.510 0.298
36.5536 9.760 0.319
36.5741 11.917 0.352
36.5946 14.500 0.389
36.6150 19.563 0.451
36.6355 21.000 0.468
36.6560 19.104 0.446
36.6764 14.927 0.394
36.6969 14.635 0.390
36.7173 15.875 0.407
36.7378 15.625 0.403
36.7583 12.677 0.363
36.7787 11.198 0.342
36.7992 9.927 0.322
36.8197 9.271 0.311
36.8401 8.948 0.305
36.8606 9.531 0.315
36.8810 10.000 0.323
36.9015 9.990 0.323
36.9220 10.813 0.336
36.9424 12.896 0.367
36.9629 12.510 0.361
36.9834 13.604 0.376
37.0038 15.833 0.406
37.0243 18.802 0.443
37.0447 22.469 0.484
37.0652 27.323 0.533
37.0857 34.073 0.596
37.1061 38.458 0.633
37.1266 36.094 0.613
37.1471 28.844 0.548
37.1675 25.740 0.518
37.1880 24.802 0.508
37.2084 25.021 0.511
37.2289 21.073 0.469
37.2494 16.656 0.417
37.2698 13.344 0.373
37.2903 12.083 0.355
37.3108 10.854 0.336
37.3312 10.625 0.333
37.3517 8.875 0.304
37.3722 10.167 0.325
37.3926 9.458 0.314
37.4131 8.531 0.298
37.4335 8.271 0.294
37.4540 8.323 0.294
37.4745 9.063 0.307
37.4949 8.573 0.299
37.5154 8.427 0.296
37.5359 9.250 0.310
37.5563 8.563 0.299
37.5768 8.698 0.301
37.5972 8.500 0.298
37.6177 8.896 0.304
37.6382 9.146 0.309
37.6586 8.135 0.291
37.6791 8.865 0.304
37.6996 8.563 0.299
37.7200 8.979 0.306
37.7405 8.813 0.303
37.7609 8.719 0.301
37.7814 9.094 0.308
37.8019 10.406 0.329
37.8223 10.240 0.327
37.8428 9.813 0.320
37.8633 10.042 0.323
37.8837 10.104 0.324
37.9042 11.281 0.343
37.9246 11.667 0.349
37.9451 11.448 0.345
37.9656 12.344 0.359
37.9860 14.604 0.390
38.0065 18.469 0.439
38.0270 22.740 0.487
38.0474 24.625 0.506
38.0679 22.760 0.487
38.0884 19.688 0.453
38.1088 17.854 0.431
38.1293 19.021 0.445
38.1497 18.990 0.445
38.1702 17.240 0.424
38.1907 15.146 0.397
38.2111 13.885 0.380
38.2316 12.719 0.364
38.2521 12.531 0.361
38.2725 11.896 0.352
38.2930 12.313 0.358
38.3134 12.667 0.363
38.3339 12.083 0.355
38.3544 12.167 0.356
38.3748 11.854 0.351
38.3953 12.906 0.367
38.4158 13.479 0.375
38.4362 13.385 0.373
38.4567 15.656 0.404
38.4771 18.000 0.433
38.4976 17.823 0.431
38.5181 14.927 0.394
38.5385 14.635 0.390
38.5590 14.521 0.389
38.5795 14.000 0.382
38.5999 13.385 0.373
38.6204 12.438 0.360
38.6408 11.667 0.349
38.6613 11.010 0.339
38.6818 10.833 0.336
38.7022 10.146 0.325
38.7227 10.146 0.325
38.7432 9.583 0.316
38.7636 9.615 0.316
38.7841 9.396 0.313
38.8045 10.052 0.324
38.8250 9.417 0.313
38.8455 9.198 0.310
38.8659 9.281 0.311
38.8864 9.115 0.308
38.9069 8.531 0.298
38.9273 8.906 0.305
38.9478 8.438 0.296
38.9683 8.760 0.302
38.9887 8.521 0.298
39.0092 8.469 0.297
39.0296 8.500 0.298
39.0501 8.750 0.302
39.0706 7.958 0.288
39.0910 8.552 0.298
39.1115 7.896 0.287
39.1320 7.667 0.283
39.1524 8.031 0.289
39.1729 8.031 0.289
39.1933 8.104 0.291
39.2138 7.698 0.283
39.2343 8.094 0.290
39.2547 7.646 0.282
39.2752 7.500 0.280
39.2957 7.510 0.280
39.3161 7.865 0.286
39.3366 7.740 0.284
39.3570 7.646 0.282
39.3775 7.365 0.277
39.3980 7.323 0.276
39.4184 7.656 0.282
39.4389 7.490 0.279
39.4594 7.646 0.282
39.4798 7.354 0.277
39.5003 7.969 0.288
39.5207 7.635 0.282
39.5412 7.896 0.287
39.5617 7.688 0.283
39.5821 8.208 0.292
39.6026 7.875 0.286
39.6231 7.948 0.288
39.6435 8.083 0.290
39.6640 8.771 0.302
39.6844 9.031 0.307
39.7049 9.740 0.319
39.7254 9.719 0.318
39.7458 11.563 0.347
39.7663 13.583 0.376
39.7868 15.240 0.398
39.8072 18.448 0.438
39.8277 21.719 0.476
39.8482 22.875 0.488
39.8686 22.302 0.482
39.8891 20.958 0.467
39.9095 21.146 0.469
39.9300 20.417 0.461
39.9505 18.698 0.441
39.9709 15.948 0.408
39.9914 14.188 0.384
40.0119 12.896 0.367
40.0323 11.021 0.339
40.0528 10.052 0.324
40.0732 9.063 0.307
40.0937 9.104 0.308
40.1142 8.573 0.299
40.1346 8.031 0.289
40.1551 9.000 0.306
40.1756 8.385 0.296
40.1960 9.354 0.312
40.2165 10.271 0.327
40.2369 12.896 0.367
40.2574 18.354 0.437
40.2779 29.656 0.556
40.2983 32.896 0.585
40.3188 22.333 0.482
40.3393 14.729 0.392
40.3597 14.938 0.394
40.3802 18.594 0.440
40.4006 21.688 0.475
40.4211 14.458 0.388
40.4416 10.833 0.336
40.4620 8.698 0.301
40.4825 8.813 0.303
40.5030 8.313 0.294
40.5234 7.469 0.279
40.5439 7.542 0.280
40.5643 7.427 0.278
40.5848 6.781 0.266
40.6053 7.510 0.280
40.6257 7.063 0.271
40.6462 7.219 0.274
40.6667 6.927 0.269
40.6871 7.094 0.272
40.7076 7.344 0.277
40.7281 7.469 0.279
40.7485 7.625 0.282
40.7690 7.635 0.282
40.7894 8.427 0.296
40.8099 8.802 0.303
40.8304 9.625 0.317
40.8508 9.792 0.319
40.8713 9.146 0.309
40.8918 8.302 0.294
40.9122 9.406 0.313
40.9327 9.208 0.310
40.9531 9.448 0.314
40.9736 8.573 0.299
40.9941 7.625 0.282
41.0145 8.229 0.293
41.0350 8.583 0.299
41.0555 8.563 0.299
41.0759 10.354 0.328
41.0964 12.604 0.362
41.1168 15.625 0.403
41.1373 19.031 0.445
41.1578 20.073 0.457
41.1782 17.333 0.425
41.1987 14.198 0.385
41.2192 14.104 0.383
41.2396 14.854 0.393
41.2601 15.563 0.403
41.2805 14.073 0.383
41.3010 11.510 0.346
41.3215 9.740 0.319
41.3419 9.125 0.308
41.3624 8.198 0.292
41.3829 7.635 0.282
41.4033 7.813 0.285
41.4238 6.979 0.270
41.4442 7.094 0.272
41.4647 6.729 0.265
41.4852 6.771 0.266
41.5056 6.781 0.266
41.5261 6.344 0.257
41.5466 6.958 0.269
41.5670 6.594 0.262
41.5875 6.792 0.266
41.6080 6.240 0.255
41.6284 5.958 0.249
41.6489 5.729 0.244
41.6693 6.719 0.265
41.6898 6.688 0.264
41.7103 6.010 0.250
41.7307 6.708 0.264
41.7512 6.458 0.259
41.7717 6.708 0.264
41.7921 6.563 0.261
41.8126 6.375 0.258
41.8330 6.688 0.264
41.8535 6.406 0.258
41.8740 6.854 0.267
41.8944 7.229 0.274
41.9149 7.542 0.280
41.9354 7.948 0.288
41.9558 7.052 0.271
41.9763 6.927 0.269
41.9967 7.021 0.270
42.0172 6.823 0.267
42.0377 6.552 0.261
42.0581 6.719 0.265
42.0786 6.573 0.262
42.0991 6.156 0.253
42.1195 6.667 0.264
42.1400 5.865 0.247
42.1604 6.125 0.253
42.1809 6.948 0.269
42.2014 5.990 0.250
42.2218 6.240 0.255
42.2423 6.021 0.250
42.2628 6.375 0.258
42.2832 6.177 0.254
42.3037 6.146 0.253
42.3242 6.469 0.260
42.3446 6.365 0.257
42.3651 6.521 0.261
42.3855 6.427 0.259
42.4060 6.510 0.260
42.4265 5.906 0.248
42.4469 6.135 0.253
42.4674 6.094 0.252
42.4879 6.063 0.251
42.5083 6.583 0.262
42.5288 6.573 0.262
42.5492 6.469 0.260
42.5697 7.073 0.271
42.5902 6.667 0.264
42.6106 6.177 0.254
42.6311 6.365 0.257
42.6516 6.563 0.261
42.6720 6.323 0.257
42.6925 6.927 0.269
42.7129 6.750 0.265
42.7334 6.979 0.270
42.7539 6.240 0.255
42.7743 6.802 0.266
42.7948 6.698 0.264
42.8153 6.823 0.267
42.8357 6.490 0.260
42.8562 6.396 0.258
42.8766 6.708 0.264
42.8971 6.563 0.261
42.9176 6.760 0.265
42.9380 6.073 0.252
42.9585 6.271 0.256
42.9790 5.823 0.246
42.9994 6.146 0.253
43.0199 6.135 0.253
43.0403 6.708 0.264
43.0608 5.938 0.249
43.0813 6.313 0.256
43.1017 6.219 0.255
43.1222 6.042 0.251
43.1427 6.333 0.257
43.1631 7.083 0.272
43.1836 7.406 0.278
43.2041 7.740 0.284
43.2245 7.875 0.286
43.2450 9.417 0.313
43.2654 7.948 0.288
43.2859 8.021 0.289
43.3064 7.375 0.277
43.3268 7.250 0.275
43.3473 8.542 0.298
43.3678 8.323 0.294
43.3882 7.563 0.281
43.4087 7.906 0.287
43.4291 7.688 0.283
43.4496 7.938 0.288
43.4701 7.625 0.282
43.4905 8.333 0.295
43.5110 8.490 0.297
43.5315 9.198 0.310
43.5519 10.021 0.323
43.5724 12.042 0.354
43.5928 13.740 0.378
43.6133 18.208 0.436
43.6338 22.323 0.482
43.6542 26.313 0.524
43.6747 24.219 0.502
43.6952 20.208 0.459
43.7156 17.958 0.433
43.7361 17.740 0.430
43.7565 17.948 0.432
43.7770 17.469 0.427
43.7975 15.438 0.401
43.8179 11.865 0.352
43.8384 10.375 0.329
43.8589 9.719 0.318
43.8793 8.250 0.293
43.8998 8.583 0.299
43.9202 8.469 0.297
43.9407 7.313 0.276
43.9612 7.125 0.272
43.9816 6.802 0.266
44.0021 7.333 0.276
44.0226 6.938 0.269
44.0430 6.917 0.268
44.0635 6.625 0.263
44.0840 6.531 0.261
44.1044 6.531 0.261
44.1249 6.156 0.253
44.1453 6.521 0.261
44.1658 6.208 0.254
44.1863 6.115 0.252
44.2067 5.906 0.248
44.2272 6.260 0.255
44.2477 6.042 0.251
44.2681 6.552 0.261
44.2886 5.677 0.243
44.3090 6.219 0.255
44.3295 5.917 0.248
44.3500 5.948 0.249
44.3704 6.021 0.250
44.3909 6.260 0.255
44.4114 5.979 0.250
44.4318 5.740 0.245
44.4523 6.271 0.256
44.4727 6.396 0.258
44.4932 6.177 0.254
44.5137 6.729 0.265
44.5341 6.594 0.262
44.5546 6.188 0.254
44.5751 6.063 0.251
44.5955 5.917 0.248
44.6160 6.208 0.254
44.6364 5.698 0.244
44.6569 6.417 0.259
44.6774 6.240 0.255
44.6978 6.104 0.252
44.7183 6.427 0.259
44.7388 6.260 0.255
44.7592 6.344 0.257
44.7797 6.510 0.260
44.8001 6.677 0.264
44.8206 6.490 0.260
44.8411 6.865 0.267
44.8615 6.854 0.267
44.8820 7.448 0.279
44.9025 7.219 0.274
44.9229 7.896 0.287
44.9434 8.344 0.295
44.9639 8.313 0.294
44.9843 9.198 0.310
45.0048 9.979 0.322
45.0252 11.563 0.347
45.0457 12.625 0.363
45.0662 14.479 0.388
45.0866 14.750 0.392
45.1071 16.094 0.409
45.1276 16.750 0.418
45.1480 16.729 0.417
45.1685 16.375 0.413
45.1889 16.167 0.410
45.2094 14.844 0.393
45.2299 16.271 0.412
45.2503 16.302 0.412
45.2708 15.917 0.407
45.2913 14.979 0.395
45.3117 12.677 0.363
45.3322 10.510 0.331
45.3526 10.104 0.324
45.3731 9.865 0.321
45.3936 9.667 0.317
45.4140 9.354 0.312
45.4345 8.406 0.296
45.4550 7.667 0.283
45.4754 7.177 0.273
45.4959 6.854 0.267
45.5163 7.167 0.273
45.5368 6.542 0.261
45.5573 6.135 0.253
45.5777 6.656 0.263
45.5982 6.656 0.263
45.6187 6.698 0.264
45.6391 6.698 0.264
45.6596 6.625 0.263
45.6800 6.573 0.262
45.7005 6.719 0.265
45.7210 6.240 0.255
45.7414 6.719 0.265
45.7619 6.656 0.263
45.7824 6.354 0.257
45.8028 5.823 0.246
45.8233 6.302 0.256
45.8438 6.469 0.260
45.8642 6.250 0.255
45.8847 6.667 0.264
45.9051 6.073 0.252
45.9256 5.948 0.249
45.9461 6.469 0.260
45.9665 6.552 0.261
45.9870 6.208 0.254
46.0075 6.094 0.252
46.0279 6.417 0.259
46.0484 6.323 0.257
46.0688 6.500 0.260
46.0893 6.333 0.257
46.1098 6.115 0.252
46.1302 6.188 0.254
46.1507 6.427 0.259
46.1712 5.896 0.248
46.1916 5.948 0.249
46.2121 6.427 0.259
46.2325 6.156 0.253
46.2530 5.688 0.243
46.2735 6.375 0.258
46.2939 6.531 0.261
46.3144 6.458 0.259
46.3349 6.479 0.260
46.3553 6.490 0.260
46.3758 6.115 0.252
46.3962 6.615 0.262
46.4167 6.635 0.263
46.4372 6.813 0.266
46.4576 6.573 0.262
46.4781 6.552 0.261
46.4986 6.573 0.262
46.5190 6.583 0.262
46.5395 6.229 0.255
46.5600 6.396 0.258
46.5804 6.135 0.253
46.6009 6.104 0.252
46.6213 6.198 0.254
46.6418 6.646 0.263
46.6623 6.708 0.264
46.6827 6.125 0.253
46.7032 6.365 0.257
46.7237 6.313 0.256
46.7441 6.219 0.255
46.7646 5.927 0.248
46.7850 6.198 0.254
46.8055 6.177 0.254
46.8260 6.052 0.251
46.8464 5.573 0.241
46.8669 5.271 0.234
46.8874 5.823 0.246
46.9078 5.729 0.244
46.9283 6.135 0.253
46.9487 5.865 0.247
46.9692 5.448 0.238
46.9897 5.865 0.247
47.0101 5.740 0.245
47.0306 5.552 0.240
47.0511 6.083 0.252
47.0715 5.646 0.243
47.0920 5.646 0.243
47.1124 6.208 0.254
47.1329 5.750 0.245
47.1534 6.177 0.254
47.1738 6.417 0.259
47.1943 6.052 0.251
47.2148 6.542 0.261
47.2352 6.323 0.257
47.2557 5.885 0.248
47.2761 6.146 0.253
47.2966 6.063 0.251
47.3171 6.083 0.252
47.3375 6.521 0.261
47.3580 6.229 0.255
47.3785 6.417 0.259
47.3989 6.188 0.254
47.4194 6.885 0.268
47.4399 6.333 0.257
47.4603 6.938 0.269
47.4808 7.031 0.271
47.5012 7.292 0.276
47.5217 8.010 0.289
47.5422 8.396 0.296
47.5626 9.271 0.311
47.5831 10.875 0.337
47.6036 14.292 0.386
47.6240 15.604 0.403
47.6445 15.708 0.405
47.6649 12.490 0.361
47.6854 10.781 0.335
47.7059 10.156 0.325
47.7263 11.208 0.342
47.7468 11.125 0.340
47.7673 11.229 0.342
47.7877 9.521 0.315
47.8082 8.646 0.300
47.8286 8.260 0.293
47.8491 7.250 0.275
47.8696 7.333 0.276
47.8900 7.063 0.271
47.9105 7.146 0.273
47.9310 6.656 0.263
47.9514 6.990 0.270
47.9719 7.208 0.274
47.9923 7.333 0.276
48.0128 6.906 0.268
48.0333 7.188 0.274
48.0537 7.010 0.270
48.0742 7.156 0.273
48.0947 6.927 0.269
48.1151 7.104 0.272
48.1356 7.042 0.271
48.1560 7.385 0.277
48.1765 7.240 0.275
48.1970 7.188 0.274
48.2174 7.365 0.277
48.2379 7.458 0.279
48.2584 7.323 0.276
48.2788 7.479 0.279
48.2993 7.135 0.273
48.3198 7.927 0.287
48.3402 8.563 0.299
48.3607 8.875 0.304
48.3811 8.333 0.295
48.4016 8.750 0.302
48.4221 8.646 0.300
48.4425 8.677 0.301
48.4630 8.063 0.290
48.4835 8.510 0.298
48.5039 8.667 0.300
48.5244 8.885 0.304
48.5448 8.813 0.303
48.5653 8.344 0.295
48.5858 9.115 0.308
48.6062 8.833 0.303
48.6267 8.906 0.305
48.6472 9.156 0.309
48.6676 9.229 0.310
48.6881 10.125 0.325
48.7085 9.750 0.319
48.7290 9.563 0.316
48.7495 10.031 0.323
48.7699 9.750 0.319
48.7904 9.510 0.315
48.8109 9.833 0.320
48.8313 9.698 0.318
48.8518 9.521 0.315
48.8722 10.875 0.337
48.8927 9.781 0.319
48.9132 9.760 0.319
48.9336 10.156 0.325
48.9541 9.458 0.314
48.9746 9.802 0.320
48.9950 10.073 0.324
49.0155 10.042 0.323
49.0359 10.219 0.326
49.0564 10.688 0.334
49.0769 10.406 0.329
49.0973 10.635 0.333
49.1178 11.208 0.342
49.1383 10.854 0.336
49.1587 11.010 0.339
49.1792 10.469 0.330
49.1997 10.823 0.336
49.2201 10.677 0.333
49.2406 10.333 0.328
49.2610 10.698 0.334
49.2815 10.396 0.329
49.3020 10.365 0.329
49.3224 11.875 0.352
49.3429 11.229 0.342
49.3634 10.927 0.337
49.3838 10.313 0.328
49.4043 10.385 0.329
49.4247 10.938 0.338
49.4452 10.229 0.326
49.4657 9.979 0.322
49.4861 10.406 0.329
49.5066 10.333 0.328
49.5271 9.990 0.323
49.5475 9.948 0.322
49.5680 9.938 0.322
49.5884 9.240 0.310
49.6089 8.917 0.305
49.6294 9.313 0.311
49.6498 9.323 0.312
49.6703 9.458 0.314
49.6908 8.802 0.303
49.7112 8.917 0.305
49.7317 9.823 0.320
49.7521 9.990 0.323
49.7726 10.250 0.327
49.7931 11.656 0.348
49.8135 12.958 0.367
49.8340 15.740 0.405
49.8545 18.469 0.439
49.8749 19.479 0.450
49.8954 16.990 0.421
49.9158 14.344 0.387
49.9363 12.979 0.368
49.9568 12.104 0.355
49.9772 13.479 0.375
49.9977 13.833 0.380
50.0182 13.094 0.369
50.0386 11.406 0.345
50.0591 9.615 0.316
50.0796 8.521 0.298
50.1000 8.792 0.303
50.1205 8.073 0.290
50.1409 7.823 0.285
50.1614 7.854 0.286
50.1819 8.688 0.301
50.2023 8.927 0.305
50.2228 8.635 0.300
50.2433 8.833 0.303
50.2637 7.677 0.283
50.2842 7.583 0.281
50.3046 6.979 0.270
50.3251 7.271 0.275
50.3456 7.792 0.285
50.3660 7.656 0.282
50.3865 6.865 0.267
50.4070 6.792 0.266
50.4274 6.542 0.261
50.4479 6.740 0.265
50.4683 6.510 0.260
50.4888 6.417 0.259
50.5093 6.208 0.254
50.5297 5.802 0.246
50.5502 6.271 0.256
50.5707 6.448 0.259
50.5911 5.979 0.250
50.6116 5.948 0.249
50.6320 5.948 0.249
50.6525 6.021 0.250
50.6730 5.677 0.243
50.6934 5.990 0.250
50.7139 5.354 0.236
50.7344 5.375 0.237
50.7548 6.229 0.255
50.7753 6.313 0.256
50.7958 6.063 0.251
50.8162 6.469 0.260
50.8367 6.552 0.261
50.8571 6.740 0.265
50.8776 6.333 0.257
50.8981 6.656 0.263
50.9185 7.302 0.276
50.9390 8.823 0.303
50.9595 11.510 0.346
50.9799 13.979 0.382
51.0004 14.208 0.385
51.0208 10.552 0.332
51.0413 9.510 0.315
51.0618 9.375 0.313
51.0822 9.583 0.316
51.1027 10.583 0.332
51.1232 10.406 0.329
51.1436 10.281 0.327
51.1641 8.781 0.302
51.1845 7.479 0.279
51.2050 7.250 0.275
51.2255 7.146 0.273
51.2459 7.625 0.282
51.2664 7.458 0.279
51.2869 7.333 0.276
51.3073 7.625 0.282
51.3278 7.302 0.276
51.3482 6.688 0.264
51.3687 6.594 0.262
51.3892 6.354 0.257
51.4096 6.625 0.263
51.4301 6.250 0.255
51.4506 6.667 0.264
51.4710 6.729 0.265
51.4915 6.563 0.261
51.5119 6.542 0.261
51.5324 6.500 0.260
51.5529 6.188 0.254
51.5733 6.427 0.259
51.5938 6.323 0.257
51.6143 6.729 0.265
51.6347 7.021 0.270
51.6552 8.375 0.295
51.6757 8.344 0.295
51.6961 8.813 0.303
51.7166 8.135 0.291
51.7370 7.969 0.288
51.7575 7.625 0.282
51.7780 7.521 0.280
51.7984 7.250 0.275
51.8189 7.125 0.272
51.8394 7.021 0.270
51.8598 7.125 0.272
51.8803 6.583 0.262
51.9007 6.156 0.253
51.9212 6.396 0.258
51.9417 5.917 0.248
51.9621 5.385 0.237
51.9826 5.865 0.247
52.0031 5.250 0.234
52.0235 5.656 0.243
52.0440 6.094 0.252
52.0644 5.292 0.235
52.0849 5.448 0.238
52.1054 5.938 0.249
52.1258 5.813 0.246
52.1463 5.750 0.245
52.1668 5.458 0.238
52.1872 5.344 0.236
52.2077 5.896 0.248
52.2281 5.677 0.243
52.2486 5.302 0.235
52.2691 5.260 0.234
52.2895 5.000 0.228
52.3100 5.552 0.240
52.3305 5.958 0.249
52.3509 5.979 0.250
52.3714 5.635 0.242
52.3918 5.948 0.249
52.4123 6.260 0.255
52.4328 5.771 0.245
52.4532 5.729 0.244
52.4737 5.677 0.243
52.4942 5.813 0.246
52.5146 5.573 0.241
52.5351 5.375 0.237
52.5556 5.792 0.246
52.5760 5.635 0.242
52.5965 5.406 0.237
52.6169 5.000 0.228
52.6374 5.094 0.230
52.6579 5.302 0.235
52.6783 5.063 0.230
52.6988 5.333 0.236
52.7193 4.979 0.228
52.7397 5.302 0.235
52.7602 5.125 0.231
52.7806 4.875 0.225
52.8011 5.563 0.241
52.8216 4.792 0.223
52.8420 5.115 0.231
52.8625 5.240 0.234
52.8830 5.208 0.233
52.9034 5.365 0.236
52.9239 4.719 0.222
52.9443 5.698 0.244
52.9648 4.667 0.220
52.9853 4.948 0.227
53.0057 5.000 0.228
53.0262 5.260 0.234
53.0467 5.375 0.237
53.0671 5.313 0.235
53.0876 5.510 0.240
53.1080 5.625 0.242
53.1285 5.677 0.243
53.1490 6.000 0.250
53.1694 6.042 0.251
53.1899 6.906 0.268
53.2104 7.229 0.274
53.2308 7.031 0.271
53.2513 7.385 0.277
53.2717 8.448 0.297
53.2922 8.313 0.294
53.3127 9.000 0.306
53.3331 9.625 0.317
53.3536 8.563 0.299
53.3741 8.063 0.290
53.3945 8.281 0.294
53.4150 7.813 0.285
53.4355 8.031 0.289
53.4559 7.573 0.281
53.4764 7.885 0.287
53.4968 7.146 0.273
53.5173 6.563 0.261
53.5378 6.365 0.257
53.5582 6.208 0.254
53.5787 5.833 0.247
53.5992 5.333 0.236
53.6196 5.885 0.248
53.6401 5.292 0.235
53.6605 5.073 0.230
53.6810 4.865 0.225
53.7015 5.354 0.236
53.7219 5.646 0.243
53.7424 5.115 0.231
53.7629 5.427 0.238
53.7833 5.219 0.233
53.8038 4.917 0.226
53.8242 5.188 0.232
53.8447 5.135 0.231
53.8652 4.990 0.228
53.8856 5.177 0.232
53.9061 5.344 0.236
53.9266 4.708 0.221
53.9470 4.948 0.227
53.9675 5.479 0.239
53.9879 5.344 0.236
54.0084 5.271 0.234
54.0289 4.885 0.226
54.0493 5.500 0.239
54.0698 5.063 0.230
54.0903 5.729 0.244
54.1107 5.469 0.239
54.1312 5.698 0.244
54.1516 5.656 0.243
54.1721 6.656 0.263
54.1926 5.396 0.237
54.2130 6.240 0.255
54.2335 6.000 0.250
54.2540 6.427 0.259
54.2744 6.563 0.261
54.2949 6.375 0.258
54.3154 6.698 0.264
54.3358 6.573 0.262
54.3563 6.875 0.268
54.3767 6.500 0.260
54.3972 6.917 0.268
54.4177 7.115 0.272
54.4381 7.094 0.272
54.4586 6.740 0.265
54.4791 7.052 0.271
54.4995 7.094 0.272
54.5200 7.240 0.275
54.5404 6.719 0.265
54.5609 6.958 0.269
54.5814 6.740 0.265
54.6018 6.865 0.267
54.6223 6.365 0.257
54.6428 6.573 0.262
54.6632 6.094 0.252
54.6837 5.760 0.245
54.7041 5.990 0.250
54.7246 5.885 0.248
54.7451 5.760 0.245
54.7655 5.698 0.244
54.7860 5.625 0.242
54.8065 5.802 0.246
54.8269 6.146 0.253
54.8474 6.177 0.254
54.8678 5.938 0.249
54.8883 6.042 0.251
54.9088 5.823 0.246
54.9292 6.094 0.252
54.9497 6.146 0.253
54.9702 5.823 0.246
54.9906 6.177 0.254
55.0111 6.083 0.252
55.0316 6.271 0.256
55.0520 6.688 0.264
55.0725 7.615 0.282
55.0929 8.438 0.296
55.1134 8.573 0.299
55.1339 9.396 0.313
55.1543 11.135 0.341
55.1748 12.302 0.358
55.1953 14.219 0.385
55.2157 12.854 0.366
55.2362 12.240 0.357
55.2566 10.781 0.335
55.2771 10.333 0.328
55.2976 10.906 0.337
55.3180 11.208 0.342
55.3385 11.281 0.343
55.3590 12.260 0.357
55.3794 11.344 0.344
55.3999 10.490 0.331
55.4203 10.396 0.329
55.4408 10.104 0.324
55.4613 10.938 0.338
55.4817 11.250 0.342
55.5022 10.927 0.337
55.5227 11.635 0.348
55.5431 11.646 0.348
55.5636 11.281 0.343
55.5840 10.573 0.332
55.6045 9.906 0.321
55.6250 9.344 0.312
55.6454 8.604 0.299
55.6659 8.542 0.298
55.6864 9.042 0.307
55.7068 7.979 0.288
55.7273 7.917 0.287
55.7477 7.490 0.279
55.7682 6.833 0.267
55.7887 6.792 0.266
55.8091 6.594 0.262
55.8296 6.563 0.261
55.8501 6.552 0.261
55.8705 6.823 0.267
55.8910 6.677 0.264
55.9115 6.771 0.266
55.9319 6.010 0.250
55.9524 5.906 0.248
55.9728 6.281 0.256
55.9933 5.917 0.248
56.0138 5.781 0.245
56.0342 6.490 0.260
56.0547 6.354 0.257
56.0752 6.146 0.253
56.0956 6.250 0.255
56.1161 6.135 0.253
56.1365 6.573 0.262
56.1570 6.927 0.269
56.1775 7.771 0.285
56.1979 9.729 0.318
56.2184 9.521 0.315
56.2389 9.302 0.311
56.2593 8.208 0.292
56.2798 7.542 0.280
56.3002 6.854 0.267
56.3207 7.156 0.273
56.3412 6.979 0.270
56.3616 7.688 0.283
56.3821 7.708 0.283
56.4026 6.927 0.269
56.4230 5.938 0.249
56.4435 6.240 0.255
56.4639 5.365 0.236
56.4844 5.479 0.239
56.5049 5.844 0.247
56.5253 5.000 0.228
56.5458 5.219 0.233
56.5663 4.760 0.223
56.5867 4.719 0.222
56.6072 5.177 0.232
56.6276 4.854 0.225
56.6481 5.177 0.232
56.6686 4.635 0.220
56.6890 5.125 0.231
56.7095 5.115 0.231
56.7300 5.083 0.230
56.7504 5.031 0.229
56.7709 5.281 0.235
56.7914 5.458 0.238
56.8118 5.135 0.231
56.8323 4.802 0.224
56.8527 4.490 0.216
56.8732 4.875 0.225
56.8937 4.771 0.223
56.9141 4.875 0.225
56.9346 4.708 0.221
56.9551 4.344 0.213
56.9755 4.417 0.214
56.9960 4.240 0.210
57.0164 4.667 0.220
57.0369 5.156 0.232
57.0574 4.833 0.224
57.0778 4.250 0.210
57.0983 4.448 0.215
57.1188 4.375 0.213
57.1392 4.542 0.218
57.1597 5.000 0.228
57.1801 4.250 0.210
57.2006 4.344 0.213
57.2211 4.677 0.221
57.2415 4.552 0.218
57.2620 4.740 0.222
57.2825 4.396 0.214
57.3029 4.500 0.217
57.3234 4.563 0.218
57.3438 4.667 0.220
57.3643 4.417 0.214
57.3848 4.781 0.223
57.4052 4.875 0.225
57.4257 4.510 0.217
57.4462 4.448 0.215
57.4666 4.667 0.220
57.4871 4.448 0.215
57.5075 4.333 0.212
57.5280 5.052 0.229
57.5485 4.646 0.220
57.5689 4.656 0.220
57.5894 4.240 0.210
57.6099 4.885 0.226
57.6303 5.073 0.230
57.6508 4.823 0.224
57.6713 5.177 0.232
57.6917 4.729 0.222
57.7122 5.250 0.234
57.7326 4.719 0.222
57.7531 5.313 0.235
57.7736 5.146 0.232
57.7940 5.510 0.240
57.8145 5.792 0.246
57.8350 6.510 0.260
57.8554 6.760 0.265
57.8759 7.906 0.287
57.8963 8.885 0.304
57.9168 10.396 0.329
57.9373 9.781 0.319
57.9577 9.990 0.323
57.9782 8.448 0.297
57.9987 7.208 0.274
58.0191 6.813 0.266
58.0396 7.240 0.275
58.0600 6.833 0.267
58.0805 7.573 0.281
58.1010 7.427 0.278
58.1214 6.969 0.269
58.1419 6.094 0.252
58.1624 5.635 0.242
58.1828 5.490 0.239
58.2033 5.063 0.230
58.2237 4.927 0.227
58.2442 4.615 0.219
58.2647 5.208 0.233
58.2851 4.760 0.223
58.3056 5.292 0.235
58.3261 4.740 0.222
58.3465 4.542 0.218
58.3670 4.417 0.214
58.3874 4.719 0.222
58.4079 4.719 0.222
58.4284 4.813 0.224
58.4488 5.000 0.228
58.4693 4.552 0.218
58.4898 5.094 0.230
58.5102 5.010 0.228
58.5307 5.031 0.229
58.5512 5.104 0.231
58.5716 5.240 0.234
58.5921 5.167 0.232
58.6125 5.260 0.234
58.6330 5.802 0.246
58.6535 5.240 0.234
58.6739 5.646 0.243
58.6944 5.531 0.240
58.7149 5.656 0.243
58.7353 5.438 0.238
58.7558 5.333 0.236
58.7762 5.604 0.242
58.7967 4.958 0.227
58.8172 5.438 0.238
58.8376 5.042 0.229
58.8581 5.000 0.228
58.8786 4.979 0.228
58.8990 4.729 0.222
58.9195 4.833 0.224
58.9399 4.792 0.223
58.9604 4.844 0.225
58.9809 4.583 0.219
59.0013 5.198 0.233
59.0218 4.750 0.222
59.0423 4.771 0.223
59.0627 4.938 0.227
59.0832 4.177 0.209
59.1036 5.292 0.235
59.1241 4.698 0.221
59.1446 5.208 0.233
59.1650 5.948 0.249
59.1855 5.781 0.245
59.2060 6.969 0.269
59.2264 7.323 0.276
59.2469 7.156 0.273
59.2674 6.219 0.255
59.2878 6.250 0.255
59.3083 6.281 0.256
59.3287 5.802 0.246
59.3492 5.729 0.244
59.3697 5.521 0.240
59.3901 5.979 0.250
59.4106 6.094 0.252
59.4311 5.729 0.244
59.4515 5.510 0.240
59.4720 5.521 0.240
59.4924 5.292 0.235
59.5129 5.156 0.232
59.5334 5.313 0.235
59.5538 4.792 0.223
59.5743 4.823 0.224
59.5948 5.333 0.236
59.6152 5.219 0.233
59.6357 5.646 0.243
59.6561 5.615 0.242
59.6766 5.802 0.246
59.6971 5.781 0.245
59.7175 5.771 0.245
59.7380 6.208 0.254
59.7585 5.781 0.245
59.7789 6.240 0.255
59.7994 6.708 0.264
59.8198 6.656 0.263
59.8403 7.365 0.277
59.8608 7.510 0.280
59.8812 8.479 0.297
59.9017 8.042 0.289
59.9222 8.260 0.293
59.9426 6.969 0.269
59.9631 6.385 0.258
59.9835 6.708 0.264
60.0040 6.292 0.256
60.0245 6.438 0.259
60.0449 6.427 0.259
60.0654 6.542 0.261
60.0859 6.552 0.261
60.1063 5.406 0.237
60.1268 5.583 0.241
60.1473 5.260 0.234
60.1677 5.438 0.238
60.1882 4.771 0.223
60.2086 4.563 0.218
60.2291 4.729 0.222
60.2496 4.531 0.217
60.2700 4.813 0.224
60.2905 4.604 0.219
60.3110 4.344 0.213
60.3314 4.594 0.219
60.3519 4.333 0.212
60.3723 4.313 0.212
60.3928 4.594 0.219
60.4133 4.625 0.219
60.4337 4.417 0.214
60.4542 4.302 0.212
60.4747 4.323 0.212
60.4951 4.552 0.218
60.5156 4.448 0.215
60.5360 4.802 0.224
60.5565 4.406 0.214
60.5770 4.406 0.214
60.5974 4.708 0.221
60.6179 4.438 0.215
60.6384 4.719 0.222
60.6588 4.427 0.215
60.6793 4.688 0.221
60.6997 4.719 0.222
60.7202 5.104 0.231
60.7407 4.427 0.215
60.7611 4.563 0.218
60.7816 5.010 0.228
60.8021 4.708 0.221
60.8225 4.875 0.225
60.8430 4.802 0.224
60.8634 4.885 0.226
60.8839 4.844 0.225
60.9044 4.969 0.228
60.9248 4.771 0.223
60.9453 4.573 0.218
60.9658 4.448 0.215
60.9862 4.823 0.224
61.0067 4.771 0.223
61.0272 4.927 0.227
61.0476 4.781 0.223
61.0681 5.177 0.232
61.0885 4.479 0.216
61.1090 4.396 0.214
61.1295 4.635 0.220
61.1499 4.552 0.218
61.1704 4.521 0.217
61.1909 4.708 0.221
61.2113 4.635 0.220
61.2318 4.188 0.209
61.2522 4.188 0.209
61.2727 4.177 0.209
61.2932 4.010 0.204
61.3136 4.594 0.219
61.3341 4.292 0.211
61.3546 4.740 0.222
61.3750 4.417 0.214
61.3955 4.469 0.216
61.4159 4.219 0.210
61.4364 4.167 0.208
61.4569 4.385 0.214
61.4773 4.500 0.217
61.4978 4.823 0.224
61.5183 4.531 0.217
61.5387 4.677 0.221
61.5592 4.375 0.213
61.5796 4.031 0.205
61.6001 5.031 0.229
61.6206 4.542 0.218
61.6410 4.021 0.205
61.6615 4.865 0.225
61.6820 4.563 0.218
61.7024 4.260 0.211
61.7229 4.604 0.219
61.7433 4.323 0.212
61.7638 4.896 0.226
61.7843 4.385 0.214
61.8047 4.354 0.213
61.8252 4.563 0.218
61.8457 3.958 0.203
61.8661 4.708 0.221
61.8866 4.385 0.214
61.9071 4.323 0.212
61.9275 4.198 0.209
61.9480 4.448 0.215
61.9684 4.448 0.215
61.9889 4.635 0.220
62.0094 4.417 0.214
62.0298 4.625 0.219
62.0503 4.250 0.210
62.0708 4.917 0.226
62.0912 5.167 0.232
62.1117 5.396 0.237
62.1321 6.250 0.255
62.1526 5.885 0.248
62.1731 6.594 0.262
62.1935 6.583 0.262
62.2140 5.271 0.234
62.2345 5.073 0.230
62.2549 5.438 0.238
62.2754 4.885 0.226
62.2958 4.854 0.225
62.3163 5.146 0.232
62.3368 5.115 0.231
62.3572 5.479 0.239
62.3777 4.917 0.226
62.3982 4.656 0.220
62.4186 4.688 0.221
62.4391 4.417 0.214
62.4595 4.698 0.221
62.4800 4.490 0.216
62.5005 4.135 0.208
62.5209 4.250 0.210
62.5414 4.479 0.216
62.5619 4.521 0.217
62.5823 4.281 0.211
62.6028 4.104 0.207
62.6232 4.438 0.215
62.6437 4.656 0.220
62.6642 3.958 0.203
62.6846 4.385 0.214
62.7051 4.021 0.205
62.7256 4.250 0.210
62.7460 4.344 0.213
62.7665 4.344 0.213
62.7870 4.344 0.213
62.8074 4.646 0.220
62.8279 4.417 0.214
62.8483 4.406 0.214
62.8688 4.698 0.221
62.8893 4.292 0.211
62.9097 4.792 0.223
62.9302 3.969 0.203
62.9507 4.115 0.207
62.9711 4.292 0.211
62.9916 3.833 0.200
63.0120 4.271 0.211
63.0325 4.104 0.207
63.0530 4.115 0.207
63.0734 4.198 0.209
63.0939 4.000 0.204
63.1144 4.208 0.209
63.1348 4.531 0.217
63.1553 4.375 0.213
63.1757 4.427 0.215
63.1962 4.302 0.212
63.2167 4.521 0.217
63.2371 4.021 0.205
63.2576 4.385 0.214
63.2781 4.083 0.206
63.2985 5.104 0.231
63.3190 4.281 0.211
63.3394 4.281 0.211
63.3599 4.833 0.224
63.3804 4.583 0.219
63.4008 4.656 0.220
63.4213 4.396 0.214
63.4418 4.760 0.223
63.4622 4.552 0.218
63.4827 4.906 0.226
63.5032 4.490 0.216
63.5236 5.031 0.229
63.5441 4.698 0.221
63.5645 4.917 0.226
63.5850 5.260 0.234
63.6055 5.010 0.228
63.6259 5.333 0.236
63.6464 5.010 0.228
63.6669 5.240 0.234
63.6873 5.167 0.232
63.7078 5.167 0.232
63.7282 5.302 0.235
63.7487 5.302 0.235
63.7692 5.344 0.236
63.7896 5.438 0.238
63.8101 5.729 0.244
63.8306 5.313 0.235
63.8510 5.323 0.235
63.8715 5.375 0.237
63.8919 5.656 0.243
63.9124 5.750 0.245
63.9329 5.354 0.236
63.9533 5.427 0.238
63.9738 5.500 0.239
63.9943 5.927 0.248
64.0147 5.698 0.244
64.0352 5.906 0.248
64.0556 6.167 0.253
64.0761 5.719 0.244
64.0966 5.813 0.246
64.1170 5.052 0.229
64.1375 5.979 0.250
64.1580 5.677 0.243
64.1784 5.604 0.242
64.1989 5.729 0.244
64.2193 5.865 0.247
64.2398 5.469 0.239
64.2603 5.396 0.237
64.2807 5.760 0.245
64.3012 5.396 0.237
64.3217 5.333 0.236
64.3421 5.583 0.241
64.3626 5.104 0.231
64.3831 5.333 0.236
64.4035 5.542 0.240
64.4240 5.042 0.229
64.4444 5.427 0.238
64.4649 5.438 0.238
64.4854 5.240 0.234
64.5058 5.719 0.244
64.5263 5.448 0.238
64.5468 5.917 0.248
64.5672 6.146 0.253
64.5877 6.219 0.255
64.6081 7.063 0.271
64.6286 6.958 0.269
64.6491 7.510 0.280
64.6695 8.094 0.290
64.6900 7.844 0.286
64.7105 7.302 0.276
64.7309 7.104 0.272
64.7514 6.760 0.265
64.7718 6.469 0.260
64.7923 6.552 0.261
64.8128 6.667 0.264
64.8332 7.333 0.276
64.8537 7.271 0.275
64.8742 6.833 0.267
64.8946 6.490 0.260
64.9151 6.271 0.256
64.9355 5.958 0.249
64.9560 5.260 0.234
64.9765 5.406 0.237
64.9969 6.031 0.251
65.0174 5.917 0.248
65.0379 5.135 0.231
65.0583 5.219 0.233
65.0788 5.219 0.233
65.0992 5.146 0.232
65.1197 5.021 0.229
65.1402 4.927 0.227
65.1606 5.073 0.230
65.1811 4.906 0.226
65.2016 4.625 0.219
65.2220 5.198 0.233
65.2425 4.979 0.228
65.2630 4.719 0.222
65.2834 4.333 0.212
65.3039 4.250 0.210
65.3243 4.573 0.218
65.3448 4.448 0.215
65.3653 4.188 0.209
65.3857 4.427 0.215
65.4062 4.885 0.226
65.4267 4.667 0.220
65.4471 4.510 0.217
65.4676 4.396 0.214
65.4880 4.125 0.207
65.5085 4.563 0.218
65.5290 5.188 0.232
65.5494 4.792 0.223
65.5699 4.750 0.222
65.5904 5.031 0.229
65.6108 5.313 0.235
65.6313 5.021 0.229
65.6517 4.708 0.221
65.6722 4.760 0.223
65.6927 4.427 0.215
65.7131 4.417 0.214
65.7336 4.281 0.211
65.7541 4.604 0.219
65.7745 4.583 0.219
65.7950 4.760 0.223
65.8154 4.729 0.222
65.8359 4.865 0.225
65.8564 4.531 0.217
65.8768 4.438 0.215
65.8973 4.458 0.216
65.9178 4.281 0.211
65.9382 3.990 0.204
65.9587 4.260 0.211
65.9791 4.479 0.216
65.9996 4.281 0.211
66.0201 4.740 0.222
66.0405 4.031 0.205
66.0610 4.469 0.216
66.0815 4.583 0.219
66.1019 4.375 0.213
66.1224 4.219 0.210
66.1429 3.885 0.201
66.1633 4.344 0.213
66.1838 4.240 0.210
66.2042 4.365 0.213
66.2247 4.479 0.216
66.2452 4.313 0.212
66.2656 4.052 0.205
66.2861 4.365 0.213
66.3066 4.354 0.213
66.3270 4.094 0.207
66.3475 4.219 0.210
66.3679 4.156 0.208
66.3884 4.010 0.204
66.4089 4.615 0.219
66.4293 4.563 0.218
66.4498 4.177 0.209
66.4703 4.010 0.204
66.4907 4.021 0.205
66.5112 4.729 0.222
66.5316 4.448 0.215
66.5521 4.615 0.219
66.5726 4.552 0.218
66.5930 4.365 0.213
66.6135 4.177 0.209
66.6340 4.094 0.207
66.6544 4.396 0.214
66.6749 4.333 0.212
66.6953 4.385 0.214
66.7158 4.813 0.224
66.7363 4.219 0.210
66.7567 4.427 0.215
66.7772 4.375 0.213
66.7977 4.708 0.221
66.8181 4.531 0.217
66.8386 4.948 0.227
66.8590 5.365 0.236
66.8795 4.719 0.222
66.9000 4.771 0.223
66.9204 5.010 0.228
66.9409 5.052 0.229
66.9614 4.813 0.224
66.9818 5.417 0.238
67.0023 4.990 0.228
67.0228 5.188 0.232
67.0432 5.760 0.245
67.0637 6.583 0.262
67.0841 7.000 0.270
67.1046 7.615 0.282
67.1251 8.208 0.292
67.1455 9.177 0.309
67.1660 9.479 0.314
67.1865 9.698 0.318
67.2069 8.750 0.302
67.2274 7.917 0.287
67.2478 7.125 0.272
67.2683 6.917 0.268
67.2888 6.750 0.265
67.3092 7.104 0.272
67.3297 7.208 0.274
67.3502 7.646 0.282
67.3706 7.781 0.285
67.3911 6.573 0.262
67.4115 6.594 0.262
67.4320 6.313 0.256
67.4525 6.125 0.253
67.4729 5.479 0.239
67.4934 5.365 0.236
67.5139 5.542 0.240
67.5343 5.500 0.239
67.5548 5.573 0.241
67.5752 5.458 0.238
67.5957 5.656 0.243
67.6162 5.448 0.238
67.6366 5.677 0.243
67.6571 5.781 0.245
67.6776 5.531 0.240
67.6980 5.292 0.235
67.7185 5.802 0.246
67.7389 5.427 0.238
67.7594 5.458 0.238
67.7799 5.365 0.236
67.8003 5.292 0.235
67.8208 5.042 0.229
67.8413 4.896 0.226
67.8617 5.135 0.231
67.8822 5.094 0.230
67.9027 4.677 0.221
67.9231 4.021 0.205
67.9436 4.792 0.223
67.9640 5.021 0.229
67.9845 4.604 0.219
68.0050 4.333 0.212
68.0254 4.354 0.213
68.0459 4.531 0.217
68.0664 4.823 0.224
68.0868 4.865 0.225
68.1073 4.458 0.216
68.1277 4.500 0.217
68.1482 4.344 0.213
68.1687 4.896 0.226
68.1891 4.438 0.215
68.2096 4.615 0.219
68.2301 4.719 0.222
68.2505 4.573 0.218
68.2710 4.635 0.220
68.2914 4.719 0.222
68.3119 4.875 0.225
68.3324 5.177 0.232
68.3528 6.010 0.250
68.3733 5.260 0.234
68.3938 5.667 0.243
68.4142 5.188 0.232
68.4347 4.677 0.221
68.4551 4.750 0.222
68.4756 4.385 0.214
68.4961 4.708 0.221
68.5165 4.563 0.218
68.5370 4.885 0.226
68.5575 4.750 0.222
68.5779 4.625 0.219
68.5984 4.250 0.210
68.6189 4.333 0.212
68.6393 4.292 0.211
68.6598 4.240 0.210
68.6802 4.000 0.204
68.7007 4.031 0.205
68.7212 4.042 0.205
68.7416 4.292 0.211
68.7621 4.198 0.209
68.7826 4.188 0.209
68.8030 3.885 0.201
68.8235 3.813 0.199
68.8439 4.240 0.210
68.8644 4.156 0.208
68.8849 4.271 0.211
68.9053 4.938 0.227
68.9258 4.927 0.227
68.9463 5.146 0.232
68.9667 4.906 0.226
68.9872 6.063 0.251
69.0076 5.938 0.249
69.0281 5.729 0.244
69.0486 5.510 0.240
69.0690 5.115 0.231
69.0895 4.573 0.218
69.1100 4.948 0.227
69.1304 4.823 0.224
69.1509 5.000 0.228
69.1713 4.781 0.223
69.1918 5.469 0.239
69.2123 5.500 0.239
69.2327 5.906 0.248
69.2532 5.125 0.231
69.2737 5.313 0.235
69.2941 4.906 0.226
69.3146 5.083 0.230
69.3350 4.760 0.223
69.3555 4.521 0.217
69.3760 4.458 0.216
69.3964 4.563 0.218
69.4169 4.604 0.219
69.4374 4.698 0.221
69.4578 4.990 0.228
69.4783 4.667 0.220
69.4988 4.240 0.210
69.5192 4.990 0.228
69.5397 4.646 0.220
69.5601 4.854 0.225
69.5806 4.719 0.222
69.6011 4.458 0.216
69.6215 4.604 0.219
69.6420 4.448 0.215
69.6625 4.406 0.214
69.6829 4.177 0.209
69.7034 4.135 0.208
69.7238 3.823 0.200
69.7443 4.208 0.209
69.7648 4.031 0.205
69.7852 4.177 0.209
69.8057 4.156 0.208
69.8262 3.792 0.199
69.8466 4.188 0.209
69.8671 4.260 0.211
69.8875 4.031 0.205
69.9080 3.885 0.201
69.9285 4.094 0.207
69.9489 4.177 0.209
69.9694 4.010 0.204
69.9899 4.094 0.207
70.0103 4.302 0.212
70.0308 3.656 0.195
70.0512 3.958 0.203
70.0717 4.365 0.213
70.0922 4.229 0.210
70.1126 4.260 0.211
70.1331 3.677 0.196
70.1536 3.896 0.201
70.1740 3.615 0.194
70.1945 4.094 0.207
70.2149 3.792 0.199
70.2354 4.198 0.209
70.2559 4.104 0.207
70.2763 4.094 0.207
70.2968 3.823 0.200
70.3173 4.010 0.204
70.3377 3.802 0.199
70.3582 4.135 0.208
70.3787 4.542 0.218
70.3991 4.229 0.210
70.4196 3.979 0.204
70.4400 4.375 0.213
70.4605 4.313 0.212
70.4810 4.083 0.206
70.5014 4.344 0.213
70.5219 4.208 0.209
70.5424 4.396 0.214
70.5628 4.177 0.209
70.5833 4.240 0.210
70.6037 3.969 0.203
70.6242 3.958 0.203
70.6447 3.813 0.199
70.6651 4.083 0.206
70.6856 4.625 0.219
70.7061 4.167 0.208
70.7265 4.260 0.211
70.7470 4.021 0.205
70.7674 4.104 0.207
70.7879 4.115 0.207
70.8084 4.208 0.209
70.8288 4.490 0.216
70.8493 3.990 0.204
70.8698 4.042 0.205
70.8902 4.052 0.205
70.9107 4.240 0.210
70.9311 4.240 0.210
70.9516 3.979 0.204
70.9721 4.104 0.207
70.9925 4.427 0.215
71.0130 4.073 0.206
71.0335 4.354 0.213
71.0539 4.708 0.221
71.0744 4.833 0.224
71.0948 4.740 0.222
71.1153 5.010 0.228
71.1358 4.698 0.221
71.1562 4.625 0.219
71.1767 5.031 0.229
71.1972 5.052 0.229
71.2176 4.802 0.224
71.2381 4.646 0.220
71.2586 4.833 0.224
71.2790 4.698 0.221
71.2995 4.396 0.214
71.3199 5.281 0.235
71.3404 5.188 0.232
71.3609 5.000 0.228
71.3813 5.510 0.240
71.4018 5.510 0.240
71.4223 5.135 0.231
71.4427 5.177 0.232
71.4632 5.302 0.235
71.4836 5.375 0.237
71.5041 5.271 0.234
71.5246 5.146 0.232
71.5450 4.781 0.223
71.5655 5.240 0.234
71.5860 5.104 0.231
71.6064 5.219 0.233
71.6269 5.302 0.235
71.6473 5.604 0.242
71.6678 4.906 0.226
71.6883 5.292 0.235
71.7087 5.031 0.229
71.7292 4.885 0.226
71.7497 5.104 0.231
71.7701 5.156 0.232
71.7906 5.250 0.234
71.8110 4.844 0.225
71.8315 4.688 0.221
71.8520 5.031 0.229
71.8724 5.010 0.228
71.8929 5.229 0.233
71.9134 5.198 0.233
71.9338 4.729 0.222
71.9543 4.948 0.227
71.9747 4.896 0.226
71.9952 4.885 0.226
72.0157 4.938 0.227
72.0361 5.417 0.238
72.0566 4.979 0.228
72.0771 4.875 0.225
72.0975 4.802 0.224
72.1180 5.438 0.238
72.1385 5.250 0.234
72.1589 4.979 0.228
72.1794 4.979 0.228
72.1998 5.365 0.236
72.2203 5.000 0.228
72.2408 5.177 0.232
72.2612 4.750 0.222
72.2817 5.396 0.237
72.3022 4.781 0.223
72.3226 4.729 0.222
72.3431 5.042 0.229
72.3635 4.729 0.222
72.3840 4.448 0.215
72.4045 4.927 0.227
72.4249 4.781 0.223
72.4454 4.927 0.227
72.4659 4.729 0.222
72.4863 4.740 0.222
72.5068 4.250 0.210
72.5272 4.271 0.211
72.5477 4.063 0.206
72.5682 4.156 0.208
72.5886 4.219 0.210
72.6091 4.875 0.225
72.6296 4.115 0.207
72.6500 4.781 0.223
72.6705 4.292 0.211
72.6909 4.146 0.208
72.7114 4.396 0.214
72.7319 4.125 0.207
72.7523 4.042 0.205
72.7728 4.448 0.215
72.7933 4.125 0.207
72.8137 4.469 0.216
72.8342 4.552 0.218
72.8547 4.604 0.219
72.8751 4.250 0.210
72.8956 4.177 0.209
72.9160 4.563 0.218
72.9365 4.385 0.214
72.9570 4.115 0.207
72.9774 4.219 0.210
72.9979 3.635 0.195
73.0184 4.167 0.208
73.0388 4.250 0.210
73.0593 4.510 0.217
73.0797 3.927 0.202
73.1002 4.583 0.219
73.1207 3.813 0.199
73.1411 4.198 0.209
73.1616 3.760 0.198
73.1821 4.188 0.209
73.2025 3.948 0.203
73.2230 3.708 0.197
73.2434 3.865 0.201
73.2639 3.375 0.188
73.2844 3.771 0.198
73.3048 3.448 0.190
73.3253 3.667 0.195
73.3458 3.583 0.193
73.3662 3.521 0.192
73.3867 3.865 0.201
73.4071 3.344 0.187
73.4276 3.604 0.194
73.4481 3.427 0.189
73.4685 3.688 0.196
73.4890 3.552 0.192
73.5095 3.323 0.186
73.5299 3.375 0.188
73.5504 3.563 0.193
73.5708 3.635 0.195
73.5913 3.781 0.198
73.6118 3.542 0.192
73.6322 3.563 0.193
73.6527 3.552 0.192
73.6732 3.302 0.185
73.6936 3.760 0.198
73.7141 3.615 0.194
73.7346 3.344 0.187
73.7550 3.219 0.183
73.7755 3.865 0.201
73.7959 3.260 0.184
73.8164 3.271 0.185
73.8369 3.802 0.199
73.8573 3.604 0.194
73.8778 3.750 0.198
73.8983 3.760 0.198
73.9187 3.583 0.193
73.9392 3.885 0.201
73.9596 3.833 0.200
73.9801 3.854 0.200
74.0006 4.198 0.209
74.0210 3.688 0.196
74.0415 4.208 0.209
74.0620 4.177 0.209
74.0824 3.875 0.201
74.1029 3.646 0.195
74.1233 3.844 0.200
74.1438 3.896 0.201
74.1643 4.052 0.205
74.1847 3.844 0.200
74.2052 3.844 0.200
74.2257 3.604 0.194
74.2461 4.167 0.208
74.2666 3.740 0.197
74.2870 4.104 0.207
74.3075 4.229 0.210
74.3280 3.500 0.191
74.3484 3.750 0.198
74.3689 3.604 0.194
74.3894 3.854 0.200
74.4098 3.667 0.195
74.4303 3.708 0.197
74.4507 3.552 0.192
74.4712 3.156 0.181
74.4917 3.521 0.192
74.5121 3.885 0.201
74.5326 3.396 0.188
74.5531 3.865 0.201
74.5735 3.875 0.201
74.5940 3.354 0.187
74.6145 3.885 0.201
74.6349 3.031 0.178
74.6554 3.625 0.194
74.6758 3.667 0.195
74.6963 3.563 0.193
74.7168 3.271 0.185
74.7372 3.469 0.190
74.7577 3.292 0.185
74.7782 3.438 0.189
74.7986 3.188 0.182
74.8191 3.042 0.178
74.8395 3.646 0.195
74.8600 3.583 0.193
74.8805 3.688 0.196
74.9009 3.302 0.185
74.9214 3.583 0.193
74.9419 3.208 0.183
74.9623 3.385 0.188
74.9828 3.510 0.191
75.0032 3.458 0.190
75.0237 3.344 0.187
75.0442 3.615 0.194
75.0646 3.615 0.194
75.0851 3.656 0.195
75.1056 3.677 0.196
75.1260 3.490 0.191
75.1465 3.594 0.193
75.1669 3.177 0.182
75.1874 3.667 0.195
75.2079 3.438 0.189
75.2283 3.490 0.191
75.2488 3.188 0.182
75.2693 3.719 0.197
75.2897 3.156 0.181
75.3102 3.563 0.193
75.3306 3.677 0.196
75.3511 3.531 0.192
75.3716 3.490 0.191
75.3920 3.677 0.196
75.4125 3.531 0.192
75.4330 3.563 0.193
75.4534 3.344 0.187
75.4739 3.167 0.182
75.4944 3.250 0.184
75.5148 3.354 0.187
75.5353 3.563 0.193
75.5557 3.448 0.190
75.5762 3.490 0.191
75.5967 3.563 0.193
75.6171 3.802 0.199
75.6376 3.708 0.197
75.6581 3.594 0.193
75.6785 3.823 0.200
75.6990 3.615 0.194
75.7194 4.229 0.210
75.7399 4.281 0.211
75.7604 3.979 0.204
75.7808 4.458 0.216
75.8013 5.448 0.238
75.8218 5.438 0.238
75.8422 5.427 0.238
75.8627 4.354 0.213
75.8831 4.552 0.218
75.9036 4.448 0.215
75.9241 4.063 0.206
75.9445 4.156 0.208
75.9650 4.073 0.206
75.9855 4.083 0.206
76.0059 4.531 0.217
76.0264 4.323 0.212
76.0468 4.510 0.217
76.0673 4.365 0.213
76.0878 4.531 0.217
76.1082 4.500 0.217
76.1287 3.927 0.202
76.1492 3.948 0.203
76.1696 3.604 0.194
76.1901 3.958 0.203
76.2105 3.729 0.197
76.2310 3.177 0.182
76.2515 3.135 0.181
76.2719 3.635 0.195
76.2924 3.448 0.190
76.3129 3.271 0.185
76.3333 3.344 0.187
76.3538 3.594 0.193
76.3743 3.510 0.191
76.3947 3.396 0.188
76.4152 3.333 0.186
76.4356 3.240 0.184
76.4561 3.510 0.191
76.4766 3.417 0.189
76.4970 3.292 0.185
76.5175 3.302 0.185
76.5380 3.344 0.187
76.5584 3.271 0.185
76.5789 3.115 0.180
76.5993 3.385 0.188
76.6198 3.115 0.180
76.6403 3.313 0.186
76.6607 3.281 0.185
76.6812 3.094 0.180
76.7017 3.198 0.183
76.7221 3.323 0.186
76.7426 3.156 0.181
76.7630 3.135 0.181
76.7835 3.229 0.183
76.8040 2.927 0.175
76.8244 3.375 0.188
76.8449 3.500 0.191
76.8654 3.208 0.183
76.8858 3.302 0.185
76.9063 3.375 0.188
76.9267 3.229 0.183
76.9472 3.281 0.185
76.9677 3.031 0.178
76.9881 3.104 0.180
77.0086 3.333 0.186
77.0291 3.344 0.187
77.0495 3.135 0.181
77.0700 3.073 0.179
77.0905 3.417 0.189
77.1109 3.292 0.185
77.1314 3.656 0.195
77.1518 2.969 0.176
77.1723 3.156 0.181
77.1928 3.438 0.189
77.2132 3.240 0.184
77.2337 3.292 0.185
77.2542 3.469 0.190
77.2746 3.615 0.194
77.2951 3.479 0.190
77.3155 3.250 0.184
77.3360 3.635 0.195
77.3565 3.542 0.192
77.3769 3.698 0.196
77.3974 3.448 0.190
77.4179 3.469 0.190
77.4383 3.615 0.194
77.4588 3.396 0.188
77.4792 3.740 0.197
77.4997 3.990 0.204
77.5202 3.583 0.193
77.5406 4.010 0.204
77.5611 4.115 0.207
77.5816 4.521 0.217
77.6020 4.281 0.211
77.6225 3.750 0.198
77.6429 3.688 0.196
77.6634 3.573 0.193
77.6839 4.229 0.210
77.7043 3.667 0.195
77.7248 3.969 0.203
77.7453 3.854 0.200
77.7657 4.021 0.205
77.7862 3.833 0.200
77.8066 3.979 0.204
77.8271 3.771 0.198
77.8476 3.813 0.199
77.8680 3.958 0.203
77.8885 3.729 0.197
77.9090 3.719 0.197
77.9294 3.427 0.189
77.9499 3.646 0.195
77.9704 3.635 0.195
77.9908 3.552 0.192
78.0113 3.396 0.188
78.0317 3.760 0.198
78.0522 3.646 0.195
78.0727 3.646 0.195
78.0931 3.135 0.181
78.1136 3.833 0.200
78.1341 3.292 0.185
78.1545 3.563 0.193
78.1750 3.531 0.192
78.1954 3.250 0.184
78.2159 3.083 0.179
78.2364 3.542 0.192
78.2568 3.458 0.190
78.2773 3.677 0.196
78.2978 3.219 0.183
78.3182 3.458 0.190
78.3387 3.313 0.186
78.3591 3.979 0.204
78.3796 3.260 0.184
78.4001 3.438 0.189
78.4205 3.469 0.190
78.4410 3.271 0.185
78.4615 3.823 0.200
78.4819 3.240 0.184
78.5024 3.771 0.198
78.5228 3.719 0.197
78.5433 3.604 0.194
78.5638 3.531 0.192
78.5842 3.177 0.182
78.6047 3.417 0.189
78.6252 3.604 0.194
78.6456 3.760 0.198
78.6661 3.583 0.193
78.6865 3.323 0.186
78.7070 3.010 0.177
78.7275 3.458 0.190
78.7479 3.365 0.187
78.7684 3.198 0.183
78.7889 3.521 0.192
78.8093 3.625 0.194
78.8298 3.417 0.189
78.8503 3.240 0.184
78.8707 3.167 0.182
78.8912 3.750 0.198
78.9116 3.188 0.182
78.9321 3.542 0.192
78.9526 3.417 0.189
78.9730 3.375 0.188
78.9935 3.802 0.199
79.0140 3.500 0.191
79.0344 3.677 0.196
79.0549 3.479 0.190
79.0753 3.542 0.192
79.0958 3.260 0.184
79.1163 3.323 0.186
79.1367 3.552 0.192
79.1572 3.760 0.198
79.1777 3.156 0.181
79.1981 2.958 0.176
79.2186 3.396 0.188
79.2390 3.750 0.198
79.2595 3.313 0.186
79.2800 3.646 0.195
79.3004 3.219 0.183
79.3209 3.531 0.192
79.3414 3.563 0.193
79.3618 3.375 0.188
79.3823 3.552 0.192
79.4027 3.479 0.190
79.4232 3.750 0.198
79.4437 3.802 0.199
79.4641 3.729 0.197
79.4846 3.646 0.195
79.5051 3.844 0.200
79.5255 3.406 0.188
79.5460 3.375 0.188
79.5664 3.833 0.200
79.5869 4.073 0.206
79.6074 4.240 0.210
79.6278 3.771 0.198
79.6483 3.594 0.193
79.6688 3.479 0.190
79.6892 3.427 0.189
79.7097 3.594 0.193
79.7302 3.521 0.192
79.7506 3.625 0.194
79.7711 3.333 0.186
79.7915 3.375 0.188
79.8120 3.573 0.193
79.8325 3.906 0.202
79.8529 3.781 0.198
79.8734 3.208 0.183
79.8939 3.229 0.183
79.9143 3.688 0.196
79.9348 3.458 0.190
79.9552 3.344 0.187
79.9757 3.156 0.181
79.9962 3.052 0.178
