'Id: "" Comment: "" Operator: "Lab Manager" Anode: "Cu" Scantype: "Locked Coupled" TimePerStep: "96" X: "0" Y: "0" Z: "0" 
5.0000 24.594 0.506
5.0205 25.021 0.511
5.0409 25.042 0.511
5.0614 24.521 0.505
5.0819 25.042 0.511
5.1023 24.281 0.503
5.1228 25.313 0.513
5.1432 24.823 0.508
5.1637 23.854 0.498
5.1842 23.823 0.498
5.2046 24.229 0.502
5.2251 24.250 0.503
5.2456 23.771 0.498
5.2660 23.479 0.495
5.2865 23.583 0.496
5.3069 24.323 0.503
5.3274 23.604 0.496
5.3479 23.344 0.493
5.3683 23.875 0.499
5.3888 24.063 0.501
5.4093 23.698 0.497
5.4297 24.552 0.506
5.4502 23.073 0.490
5.4706 24.208 0.502
5.4911 23.667 0.497
5.5116 23.198 0.492
5.5320 23.406 0.494
5.5525 23.073 0.490
5.5730 23.802 0.498
5.5934 24.740 0.508
5.6139 22.198 0.481
5.6343 23.052 0.490
5.6548 21.958 0.478
5.6753 22.073 0.480
5.6957 23.406 0.494
5.7162 22.646 0.486
5.7367 23.219 0.492
5.7571 22.177 0.481
5.7776 22.719 0.486
5.7980 22.531 0.484
5.8185 22.844 0.488
5.8390 22.708 0.486
5.8594 23.573 0.496
5.8799 22.781 0.487
5.9004 22.500 0.484
5.9208 21.958 0.478
5.9413 22.625 0.485
5.9618 22.344 0.482
5.9822 22.719 0.486
6.0027 22.010 0.479
6.0231 22.438 0.483
6.0436 22.469 0.484
6.0641 22.802 0.487
6.0845 22.302 0.482
6.1050 22.656 0.486
6.1255 22.510 0.484
6.1459 22.219 0.481
6.1664 22.750 0.487
6.1868 22.063 0.479
6.2073 21.906 0.478
6.2278 23.375 0.493
6.2482 22.083 0.480
6.2687 21.594 0.474
6.2892 21.667 0.475
6.3096 22.354 0.483
6.3301 22.490 0.484
6.3505 23.479 0.495
6.3710 21.135 0.469
6.3915 21.740 0.476
6.4119 22.302 0.482
6.4324 22.365 0.483
6.4529 22.396 0.483
6.4733 22.344 0.482
6.4938 21.708 0.476
6.5142 22.229 0.481
6.5347 22.240 0.481
6.5552 21.135 0.469
6.5756 21.906 0.478
6.5961 21.854 0.477
6.6166 22.958 0.489
6.6370 22.208 0.481
6.6575 22.000 0.479
6.6779 22.198 0.481
6.6984 23.021 0.490
6.7189 23.594 0.496
6.7393 23.281 0.492
6.7598 22.625 0.485
6.7803 23.240 0.492
6.8007 22.906 0.488
6.8212 23.250 0.492
6.8417 23.115 0.491
6.8621 23.198 0.492
6.8826 24.500 0.505
6.9030 24.323 0.503
6.9235 25.531 0.516
6.9440 26.333 0.524
6.9644 25.906 0.519
6.9849 26.698 0.527
7.0054 28.354 0.543
7.0258 29.240 0.552
7.0463 30.135 0.560
7.0667 30.031 0.559
7.0872 32.031 0.578
7.1077 31.854 0.576
7.1281 28.719 0.547
7.1486 29.240 0.552
7.1691 28.135 0.541
7.1895 26.427 0.525
7.2100 26.469 0.525
7.2304 25.594 0.516
7.2509 24.521 0.505
7.2714 25.500 0.515
7.2918 24.906 0.509
7.3123 23.552 0.495
7.3328 23.365 0.493
7.3532 23.938 0.499
7.3737 24.135 0.501
7.3941 22.875 0.488
7.4146 24.021 0.500
7.4351 24.031 0.500
7.4555 23.302 0.493
7.4760 23.906 0.499
7.4965 24.688 0.507
7.5169 23.781 0.498
7.5374 23.073 0.490
7.5579 22.771 0.487
7.5783 23.625 0.496
7.5988 23.469 0.494
7.6192 23.000 0.489
7.6397 22.990 0.489
7.6602 22.698 0.486
7.6806 23.125 0.491
7.7011 23.708 0.497
7.7216 22.344 0.482
7.7420 23.938 0.499
7.7625 24.229 0.502
7.7829 23.635 0.496
7.8034 23.521 0.495
7.8239 23.896 0.499
7.8443 23.375 0.493
7.8648 23.750 0.497
7.8853 23.656 0.496
7.9057 23.438 0.494
7.9262 22.594 0.485
7.9466 23.031 0.490
7.9671 23.646 0.496
7.9876 23.375 0.493
8.0080 23.792 0.498
8.0285 23.229 0.492
8.0490 23.250 0.492
8.0694 23.750 0.497
8.0899 22.729 0.487
8.1103 22.667 0.486
8.1308 24.042 0.500
8.1513 24.521 0.505
8.1717 23.708 0.497
8.1922 23.125 0.491
8.2127 24.531 0.506
8.2331 24.156 0.502
8.2536 24.958 0.510
8.2740 23.875 0.499
8.2945 23.844 0.498
8.3150 24.260 0.503
8.3354 24.240 0.502
8.3559 23.917 0.499
8.3764 23.406 0.494
8.3968 23.094 0.490
8.4173 23.781 0.498
8.4378 23.427 0.494
8.4582 23.781 0.498
8.4787 23.646 0.496
8.4991 23.104 0.491
8.5196 22.917 0.489
8.5401 24.042 0.500
8.5605 23.813 0.498
8.5810 23.000 0.489
8.6015 23.302 0.493
8.6219 23.792 0.498
8.6424 23.740 0.497
8.6628 23.271 0.492
8.6833 24.844 0.509
8.7038 23.667 0.497
8.7242 24.000 0.500
8.7447 24.469 0.505
8.7652 24.521 0.505
8.7856 27.052 0.531
8.8061 25.552 0.516
8.8265 26.219 0.523
8.8470 26.844 0.529
8.8675 27.167 0.532
8.8879 27.792 0.538
8.9084 29.833 0.557
8.9289 31.000 0.568
8.9493 31.875 0.576
8.9698 33.938 0.595
8.9902 37.521 0.625
9.0107 43.333 0.672
9.0312 52.010 0.736
9.0516 69.052 0.848
9.0721 95.396 0.997
9.0926 124.792 1.140
9.1130 140.094 1.208
9.1335 114.302 1.091
9.1539 70.885 0.859
9.1744 44.729 0.683
9.1949 37.885 0.628
9.2153 38.250 0.631
9.2358 37.479 0.625
9.2563 41.073 0.654
9.2767 41.792 0.660
9.2972 42.125 0.662
9.3177 44.875 0.684
9.3381 44.438 0.680
9.3586 44.448 0.680
9.3790 42.677 0.667
9.3995 42.073 0.662
9.4200 41.229 0.655
9.4404 41.063 0.654
9.4609 42.729 0.667
9.4814 42.052 0.662
9.5018 44.698 0.682
9.5223 45.094 0.685
9.5427 47.719 0.705
9.5632 50.885 0.728
9.5837 55.250 0.759
9.6041 58.156 0.778
9.6246 61.063 0.798
9.6451 65.219 0.824
9.6655 67.219 0.837
9.6860 74.979 0.884
9.7064 79.823 0.912
9.7269 87.854 0.957
9.7474 101.115 1.026
9.7678 119.229 1.114
9.7883 143.885 1.224
9.8088 186.625 1.394
9.8292 256.208 1.634
9.8497 358.656 1.933
9.8701 500.354 2.283
9.8906 673.385 2.648
9.9111 703.021 2.706
9.9315 489.375 2.258
9.9520 244.240 1.595
9.9725 118.813 1.112
9.9929 80.313 0.915
10.0134 64.344 0.819
10.0338 56.344 0.766
10.0543 52.073 0.736
10.0748 46.990 0.700
10.0952 44.385 0.680
10.1157 41.917 0.661
10.1362 38.833 0.636
10.1566 35.156 0.605
10.1771 32.010 0.577
10.1976 30.625 0.565
10.2180 29.167 0.551
10.2385 28.521 0.545
10.2589 28.615 0.546
10.2794 27.740 0.538
10.2999 27.063 0.531
10.3203 27.115 0.531
10.3408 26.198 0.522
10.3613 25.531 0.516
10.3817 24.760 0.508
10.4022 24.823 0.508
10.4226 25.740 0.518
10.4431 24.094 0.501
10.4636 23.375 0.493
10.4840 23.781 0.498
10.5045 23.740 0.497
10.5250 23.792 0.498
10.5454 23.344 0.493
10.5659 23.344 0.493
10.5863 23.302 0.493
10.6068 23.792 0.498
10.6273 22.979 0.489
10.6477 23.083 0.490
10.6682 22.844 0.488
10.6887 23.615 0.496
10.7091 22.188 0.481
10.7296 21.688 0.475
10.7500 21.844 0.477
10.7705 22.479 0.484
10.7910 22.781 0.487
10.8114 21.281 0.471
10.8319 20.896 0.467
10.8524 21.458 0.473
10.8728 21.427 0.472
10.8933 20.896 0.467
10.9137 21.135 0.469
10.9342 21.802 0.477
10.9547 19.594 0.452
10.9751 20.448 0.462
10.9956 20.771 0.465
11.0161 19.917 0.455
11.0365 20.844 0.466
11.0570 19.635 0.452
11.0775 20.250 0.459
11.0979 20.333 0.460
11.1184 20.146 0.458
11.1388 19.781 0.454
11.1593 20.167 0.458
11.1798 18.292 0.437
11.2002 18.354 0.437
11.2207 18.542 0.439
11.2412 18.656 0.441
11.2616 18.813 0.443
11.2821 18.844 0.443
11.3025 18.885 0.444
11.3230 18.802 0.443
11.3435 19.427 0.450
11.3639 18.688 0.441
11.3844 18.229 0.436
11.4049 18.417 0.438
11.4253 18.833 0.443
11.4458 18.313 0.437
11.4662 18.396 0.438
11.4867 17.500 0.427
11.5072 18.094 0.434
11.5276 18.500 0.439
11.5481 17.552 0.428
11.5686 18.344 0.437
11.5890 17.594 0.428
11.6095 17.406 0.426
11.6299 17.771 0.430
11.6504 17.000 0.421
11.6709 17.073 0.422
11.6913 17.104 0.422
11.7118 16.948 0.420
11.7323 16.115 0.410
11.7527 16.365 0.413
11.7732 16.802 0.418
11.7937 16.844 0.419
11.8141 16.573 0.415
11.8346 16.552 0.415
11.8550 15.635 0.404
11.8755 16.406 0.413
11.8960 16.469 0.414
11.9164 16.125 0.410
11.9369 16.729 0.417
11.9574 16.563 0.415
11.9778 15.313 0.399
11.9983 15.531 0.402
12.0187 16.250 0.411
12.0392 16.073 0.409
12.0597 14.573 0.390
12.0801 15.229 0.398
12.1006 15.427 0.401
12.1211 14.990 0.395
12.1415 15.271 0.399
12.1620 15.302 0.399
12.1824 15.396 0.400
12.2029 15.042 0.396
12.2234 14.885 0.394
12.2438 14.844 0.393
12.2643 14.938 0.394
12.2848 15.115 0.397
12.3052 15.396 0.400
12.3257 15.531 0.402
12.3461 14.479 0.388
12.3666 15.042 0.396
12.3871 14.833 0.393
12.4075 14.354 0.387
12.4280 14.667 0.391
12.4485 14.854 0.393
12.4689 14.229 0.385
12.4894 14.083 0.383
12.5098 15.042 0.396
12.5303 14.094 0.383
12.5508 14.979 0.395
12.5712 13.625 0.377
12.5917 14.188 0.384
12.6122 13.990 0.382
12.6326 13.646 0.377
12.6531 13.813 0.379
12.6736 14.500 0.389
12.6940 14.021 0.382
12.7145 14.115 0.383
12.7349 13.365 0.373
12.7554 14.833 0.393
12.7759 13.969 0.381
12.7963 13.750 0.378
12.8168 13.146 0.370
12.8373 13.479 0.375
12.8577 13.021 0.368
12.8782 13.896 0.380
12.8986 13.385 0.373
12.9191 13.417 0.374
12.9396 13.010 0.368
12.9600 12.969 0.368
12.9805 13.073 0.369
13.0010 13.813 0.379
13.0214 12.948 0.367
13.0419 13.094 0.369
13.0623 13.896 0.380
13.0828 13.854 0.380
13.1033 13.000 0.368
13.1237 13.083 0.369
13.1442 13.750 0.378
13.1647 13.448 0.374
13.1851 12.979 0.368
13.2056 12.740 0.364
13.2260 13.125 0.370
13.2465 13.104 0.369
13.2670 12.958 0.367
13.2874 13.031 0.368
13.3079 12.885 0.366
13.3284 13.115 0.370
13.3488 12.979 0.368
13.3693 13.146 0.370
13.3897 13.021 0.368
13.4102 12.396 0.359
13.4307 12.573 0.362
13.4511 12.542 0.361
13.4716 13.177 0.370
13.4921 12.719 0.364
13.5125 13.271 0.372
13.5330 12.750 0.364
13.5535 12.844 0.366
13.5739 12.854 0.366
13.5944 12.854 0.366
13.6148 12.854 0.366
13.6353 13.219 0.371
13.6558 12.792 0.365
13.6762 12.521 0.361
13.6967 13.073 0.369
13.7172 12.594 0.362
13.7376 12.990 0.368
13.7581 11.698 0.349
13.7785 12.740 0.364
13.7990 13.042 0.369
13.8195 11.885 0.352
13.8399 12.719 0.364
13.8604 12.250 0.357
13.8809 12.740 0.364
13.9013 12.615 0.362
13.9218 12.375 0.359
13.9422 13.250 0.372
13.9627 13.250 0.372
13.9832 12.958 0.367
14.0036 13.219 0.371
14.0241 13.719 0.378
14.0446 13.385 0.373
14.0650 13.833 0.380
14.0855 14.365 0.387
14.1059 14.563 0.389
14.1264 15.052 0.396
14.1469 14.979 0.395
14.1673 14.885 0.394
14.1878 14.188 0.384
14.2083 14.240 0.385
14.2287 14.146 0.384
14.2492 13.688 0.378
14.2696 13.823 0.379
14.2901 13.115 0.370
14.3106 13.063 0.369
14.3310 12.333 0.358
14.3515 11.677 0.349
14.3720 11.958 0.353
14.3924 12.729 0.364
14.4129 11.646 0.348
14.4334 11.760 0.350
14.4538 12.198 0.356
14.4743 11.292 0.343
14.4947 11.323 0.343
14.5152 11.823 0.351
14.5357 11.938 0.353
14.5561 11.354 0.344
14.5766 11.510 0.346
14.5971 11.542 0.347
14.6175 11.490 0.346
14.6380 11.385 0.344
14.6584 11.385 0.344
14.6789 11.531 0.347
14.6994 10.688 0.334
14.7198 10.990 0.338
14.7403 11.229 0.342
14.7608 12.083 0.355
14.7812 11.333 0.344
14.8017 11.365 0.344
14.8221 11.594 0.348
14.8426 11.333 0.344
14.8631 11.073 0.340
14.8835 10.802 0.335
14.9040 11.396 0.345
14.9245 10.979 0.338
14.9449 11.188 0.341
14.9654 10.229 0.326
14.9858 11.490 0.346
15.0063 11.229 0.342
15.0268 11.167 0.341
15.0472 10.833 0.336
15.0677 11.479 0.346
15.0882 11.365 0.344
15.1086 10.646 0.333
15.1291 10.896 0.337
15.1495 10.656 0.333
15.1700 11.438 0.345
15.1905 10.625 0.333
15.2109 11.000 0.339
15.2314 10.990 0.338
15.2519 11.260 0.342
15.2723 11.563 0.347
15.2928 11.417 0.345
15.3133 10.792 0.335
15.3337 11.917 0.352
15.3542 11.823 0.351
15.3746 11.896 0.352
15.3951 12.042 0.354
15.4156 11.521 0.346
15.4360 11.510 0.346
15.4565 11.146 0.341
15.4770 11.385 0.344
15.4974 10.823 0.336
15.5179 10.938 0.338
15.5383 11.490 0.346
15.5588 11.219 0.342
15.5793 11.802 0.351
15.5997 11.979 0.353
15.6202 11.354 0.344
15.6407 11.573 0.347
15.6611 12.948 0.367
15.6816 13.604 0.376
15.7020 15.698 0.404
15.7225 19.844 0.455
15.7430 27.510 0.535
15.7634 40.125 0.647
15.7839 51.333 0.731
15.8044 45.323 0.687
15.8248 33.344 0.589
15.8453 24.146 0.502
15.8657 15.063 0.396
15.8862 12.000 0.354
15.9067 12.354 0.359
15.9271 11.115 0.340
15.9476 11.719 0.349
15.9681 11.229 0.342
15.9885 11.385 0.344
16.0090 11.146 0.341
16.0295 11.250 0.342
16.0499 11.000 0.339
16.0704 11.323 0.343
16.0908 11.240 0.342
16.1113 10.500 0.331
16.1318 10.604 0.332
16.1522 10.406 0.329
16.1727 10.875 0.337
16.1932 10.083 0.324
16.2136 10.417 0.329
16.2341 9.938 0.322
16.2545 10.365 0.329
16.2750 10.375 0.329
16.2955 10.750 0.335
16.3159 10.979 0.338
16.3364 10.125 0.325
16.3569 10.542 0.331
16.3773 10.292 0.327
16.3978 10.323 0.328
16.4182 10.438 0.330
16.4387 10.333 0.328
16.4592 11.156 0.341
16.4796 10.406 0.329
16.5001 10.844 0.336
16.5206 10.990 0.338
16.5410 10.792 0.335
16.5615 10.583 0.332
16.5819 10.063 0.324
16.6024 10.677 0.333
16.6229 10.500 0.331
16.6433 10.750 0.335
16.6638 10.583 0.332
16.6843 10.885 0.337
16.7047 10.313 0.328
16.7252 10.406 0.329
16.7456 10.917 0.337
16.7661 10.458 0.330
16.7866 10.635 0.333
16.8070 10.146 0.325
16.8275 10.802 0.335
16.8480 10.875 0.337
16.8684 10.583 0.332
16.8889 10.542 0.331
16.9094 10.875 0.337
16.9298 10.781 0.335
16.9503 11.052 0.339
16.9707 10.615 0.333
16.9912 10.698 0.334
17.0117 10.365 0.329
17.0321 11.125 0.340
17.0526 11.156 0.341
17.0731 11.229 0.342
17.0935 11.104 0.340
17.1140 10.417 0.329
17.1344 10.750 0.335
17.1549 11.500 0.346
17.1754 10.323 0.328
17.1958 11.438 0.345
17.2163 11.458 0.345
17.2368 11.063 0.339
17.2572 11.323 0.343
17.2777 11.490 0.346
17.2981 11.625 0.348
17.3186 12.042 0.354
17.3391 11.531 0.347
17.3595 12.021 0.354
17.3800 11.760 0.350
17.4005 11.510 0.346
17.4209 12.479 0.361
17.4414 11.708 0.349
17.4618 11.719 0.349
17.4823 12.271 0.358
17.5028 12.333 0.358
17.5232 12.458 0.360
17.5437 13.219 0.371
17.5642 12.854 0.366
17.5846 12.875 0.366
17.6051 12.885 0.366
17.6255 13.469 0.375
17.6460 12.708 0.364
17.6665 13.135 0.370
17.6869 12.740 0.364
17.7074 13.750 0.378
17.7279 14.313 0.386
17.7483 14.438 0.388
17.7688 15.854 0.406
17.7893 16.760 0.418
17.8097 18.385 0.438
17.8302 19.510 0.451
17.8506 19.240 0.448
17.8711 18.302 0.437
17.8916 17.479 0.427
17.9120 17.365 0.425
17.9325 17.802 0.431
17.9530 17.094 0.422
17.9734 17.188 0.423
17.9939 17.667 0.429
18.0143 17.729 0.430
18.0348 17.938 0.432
18.0553 19.833 0.455
18.0757 20.396 0.461
18.0962 21.958 0.478
18.1167 20.969 0.467
18.1371 20.646 0.464
18.1576 19.625 0.452
18.1780 20.417 0.461
18.1985 20.094 0.458
18.2190 20.958 0.467
18.2394 22.208 0.481
18.2599 22.354 0.483
18.2804 23.573 0.496
18.3008 21.885 0.477
18.3213 22.073 0.480
18.3417 21.802 0.477
18.3622 22.115 0.480
18.3827 22.906 0.488
18.4031 22.323 0.482
18.4236 22.052 0.479
18.4441 23.073 0.490
18.4645 23.615 0.496
18.4850 23.375 0.493
18.5054 23.552 0.495
18.5259 24.094 0.501
18.5464 24.740 0.508
18.5668 24.667 0.507
18.5873 24.948 0.510
18.6078 24.625 0.506
18.6282 25.115 0.511
18.6487 24.771 0.508
18.6692 25.438 0.515
18.6896 23.271 0.492
18.7101 24.083 0.501
18.7305 23.938 0.499
18.7510 22.802 0.487
18.7715 22.854 0.488
18.7919 22.094 0.480
18.8124 22.219 0.481
18.8329 23.844 0.498
18.8533 23.469 0.494
18.8738 27.115 0.531
18.8942 26.167 0.522
18.9147 26.042 0.521
18.9352 22.677 0.486
18.9556 21.073 0.469
18.9761 18.635 0.441
18.9966 18.604 0.440
19.0170 17.635 0.429
19.0375 17.156 0.423
19.0579 17.031 0.421
19.0784 16.948 0.420
19.0989 17.073 0.422
19.1193 16.740 0.418
19.1398 17.240 0.424
19.1603 17.323 0.425
19.1807 16.708 0.417
19.2012 16.583 0.416
19.2216 16.333 0.412
19.2421 16.531 0.415
19.2626 16.750 0.418
19.2830 16.219 0.411
19.3035 17.417 0.426
19.3240 16.021 0.409
19.3444 16.802 0.418
19.3649 16.781 0.418
19.3853 16.563 0.415
19.4058 17.198 0.423
19.4263 17.240 0.424
19.4467 17.552 0.428
19.4672 17.677 0.429
19.4877 17.750 0.430
19.5081 18.115 0.434
19.5286 19.323 0.449
19.5491 20.281 0.460
19.5695 21.500 0.473
19.5900 22.063 0.479
19.6104 23.365 0.493
19.6309 24.000 0.500
19.6514 24.896 0.509
19.6718 25.448 0.515
19.6923 28.208 0.542
19.7128 31.156 0.570
19.7332 35.458 0.608
19.7537 43.094 0.670
19.7741 54.250 0.752
19.7946 76.469 0.892
19.8151 119.427 1.115
19.8355 169.302 1.328
19.8560 193.865 1.421
19.8765 153.115 1.263
19.8969 123.427 1.134
19.9174 90.469 0.971
19.9378 52.219 0.738
19.9583 35.458 0.608
19.9788 28.354 0.543
19.9992 25.115 0.511
20.0197 23.896 0.499
20.0402 22.552 0.485
20.0606 21.667 0.475
20.0811 20.656 0.464
20.1015 19.688 0.453
20.1220 19.844 0.455
20.1425 18.417 0.438
20.1629 18.833 0.443
20.1834 18.063 0.434
20.2039 18.729 0.442
20.2243 18.740 0.442
20.2448 19.594 0.452
20.2653 18.396 0.438
20.2857 19.125 0.446
20.3062 19.823 0.454
20.3266 19.573 0.452
20.3471 19.375 0.449
20.3676 18.844 0.443
20.3880 19.406 0.450
20.4085 19.365 0.449
20.4290 19.990 0.456
20.4494 18.594 0.440
20.4699 19.188 0.447
20.4903 19.250 0.448
20.5108 19.240 0.448
20.5313 18.667 0.441
20.5517 18.417 0.438
20.5722 17.531 0.427
20.5927 18.021 0.433
20.6131 17.479 0.427
20.6336 16.333 0.412
20.6540 15.708 0.405
20.6745 15.646 0.404
20.6950 15.760 0.405
20.7154 16.198 0.411
20.7359 15.385 0.400
20.7564 14.917 0.394
20.7768 15.042 0.396
20.7973 14.094 0.383
20.8177 14.635 0.390
20.8382 13.771 0.379
20.8587 14.354 0.387
20.8791 14.021 0.382
20.8996 13.521 0.375
20.9201 14.260 0.385
20.9405 14.385 0.387
20.9610 14.146 0.384
20.9814 14.385 0.387
21.0019 13.448 0.374
21.0224 13.385 0.373
21.0428 13.917 0.381
21.0633 13.458 0.374
21.0838 13.438 0.374
21.1042 13.406 0.374
21.1247 14.135 0.384
21.1452 14.656 0.391
21.1656 14.458 0.388
21.1861 15.594 0.403
21.2065 15.865 0.407
21.2270 16.750 0.418
21.2475 17.167 0.423
21.2679 16.333 0.412
21.2884 16.146 0.410
21.3089 14.823 0.393
21.3293 15.167 0.397
21.3498 15.479 0.402
21.3702 14.719 0.392
21.3907 15.010 0.395
21.4112 14.250 0.385
21.4316 14.188 0.384
21.4521 13.875 0.380
21.4726 12.906 0.367
21.4930 13.031 0.368
21.5135 12.802 0.365
21.5339 12.552 0.362
21.5544 12.552 0.362
21.5749 12.333 0.358
21.5953 11.792 0.350
21.6158 12.365 0.359
21.6363 11.854 0.351
21.6567 12.021 0.354
21.6772 11.594 0.348
21.6976 12.188 0.356
21.7181 12.479 0.361
21.7386 11.760 0.350
21.7590 11.917 0.352
21.7795 11.156 0.341
21.8000 11.740 0.350
21.8204 11.635 0.348
21.8409 11.917 0.352
21.8613 11.615 0.348
21.8818 11.458 0.345
21.9023 11.563 0.347
21.9227 12.083 0.355
21.9432 12.021 0.354
21.9637 11.729 0.350
21.9841 12.208 0.357
22.0046 12.771 0.365
22.0251 12.927 0.367
22.0455 14.031 0.382
22.0660 15.771 0.405
22.0864 15.833 0.406
22.1069 16.104 0.410
22.1274 19.229 0.448
22.1478 23.719 0.497
22.1683 28.740 0.547
22.1888 38.198 0.631
22.2092 41.500 0.657
22.2297 39.052 0.638
22.2501 34.333 0.598
22.2706 29.823 0.557
22.2911 24.010 0.500
22.3115 20.271 0.460
22.3320 18.469 0.439
22.3525 16.719 0.417
22.3729 14.896 0.394
22.3934 14.417 0.388
22.4138 13.885 0.380
22.4343 13.302 0.372
22.4548 13.948 0.381
22.4752 12.531 0.361
22.4957 12.438 0.360
22.5162 12.240 0.357
22.5366 12.313 0.358
22.5571 12.615 0.362
22.5775 11.854 0.351
22.5980 11.448 0.345
22.6185 12.760 0.365
22.6389 11.927 0.352
22.6594 11.625 0.348
22.6799 11.646 0.348
22.7003 11.625 0.348
22.7208 10.823 0.336
22.7412 11.781 0.350
22.7617 11.448 0.345
22.7822 11.354 0.344
22.8026 11.635 0.348
22.8231 11.458 0.345
22.8436 13.469 0.375
22.8640 13.646 0.377
22.8845 16.073 0.409
22.9050 19.385 0.449
22.9254 21.260 0.471
22.9459 18.177 0.435
22.9663 17.552 0.428
22.9868 16.740 0.418
23.0073 13.385 0.373
23.0277 12.010 0.354
23.0482 11.302 0.343
23.0687 11.031 0.339
23.0891 11.021 0.339
23.1096 10.500 0.331
23.1300 10.813 0.336
23.1505 10.833 0.336
23.1710 10.469 0.330
23.1914 10.552 0.332
23.2119 10.333 0.328
23.2324 10.000 0.323
23.2528 10.906 0.337
23.2733 10.208 0.326
23.2937 9.979 0.322
23.3142 10.229 0.326
23.3347 10.344 0.328
23.3551 10.708 0.334
23.3756 10.542 0.331
23.3961 10.813 0.336
23.4165 11.073 0.340
23.4370 10.115 0.325
23.4574 10.583 0.332
23.4779 10.177 0.326
23.4984 10.938 0.338
23.5188 10.615 0.333
23.5393 10.073 0.324
23.5598 10.354 0.328
23.5802 10.344 0.328
23.6007 10.625 0.333
23.6211 10.667 0.333
23.6416 11.083 0.340
23.6621 10.531 0.331
23.6825 11.031 0.339
23.7030 11.208 0.342
23.7235 10.625 0.333
23.7439 10.313 0.328
23.7644 9.813 0.320
23.7849 10.229 0.326
23.8053 9.750 0.319
23.8258 10.125 0.325
23.8462 9.458 0.314
23.8667 9.792 0.319
23.8872 9.344 0.312
23.9076 9.885 0.321
23.9281 9.844 0.320
23.9486 9.542 0.315
23.9690 9.427 0.313
23.9895 9.656 0.317
24.0099 9.531 0.315
24.0304 9.292 0.311
24.0509 9.781 0.319
24.0713 9.229 0.310
24.0918 9.625 0.317
24.1123 9.531 0.315
24.1327 9.229 0.310
24.1532 9.844 0.320
24.1736 10.406 0.329
24.1941 10.563 0.332
24.2146 10.583 0.332
24.2350 11.031 0.339
24.2555 10.771 0.335
24.2760 10.854 0.336
24.2964 10.229 0.326
24.3169 11.490 0.346
24.3373 12.125 0.355
24.3578 12.802 0.365
24.3783 11.146 0.341
24.3987 10.927 0.337
24.4192 11.302 0.343
24.4397 11.010 0.339
24.4601 9.969 0.322
24.4806 9.125 0.308
24.5011 9.333 0.312
24.5215 9.813 0.320
24.5420 9.792 0.319
24.5624 9.677 0.317
24.5829 9.063 0.307
24.6034 9.208 0.310
24.6238 9.198 0.310
24.6443 9.542 0.315
24.6648 9.417 0.313
24.6852 10.969 0.338
24.7057 10.448 0.330
24.7261 10.198 0.326
24.7466 9.573 0.316
24.7671 10.292 0.327
24.7875 9.333 0.312
24.8080 9.073 0.307
24.8285 9.042 0.307
24.8489 9.094 0.308
24.8694 8.490 0.297
24.8898 8.948 0.305
24.9103 8.719 0.301
24.9308 8.677 0.301
24.9512 9.104 0.308
24.9717 8.885 0.304
24.9922 9.063 0.307
25.0126 9.042 0.307
25.0331 9.344 0.312
25.0535 8.979 0.306
25.0740 7.927 0.287
25.0945 8.990 0.306
25.1149 9.427 0.313
25.1354 8.417 0.296
25.1559 8.969 0.306
25.1763 9.042 0.307
25.1968 8.969 0.306
25.2172 8.563 0.299
25.2377 8.427 0.296
25.2582 8.438 0.296
25.2786 8.667 0.300
25.2991 8.781 0.302
25.3196 8.604 0.299
25.3400 8.354 0.295
25.3605 9.219 0.310
25.3810 8.979 0.306
25.4014 8.135 0.291
25.4219 8.781 0.302
25.4423 8.927 0.305
25.4628 9.094 0.308
25.4833 9.219 0.310
25.5037 9.125 0.308
25.5242 9.125 0.308
25.5447 10.344 0.328
25.5651 11.698 0.349
25.5856 13.938 0.381
25.6060 16.031 0.409
25.6265 14.125 0.384
25.6470 12.875 0.366
25.6674 12.146 0.356
25.6879 11.354 0.344
25.7084 9.792 0.319
25.7288 9.427 0.313
25.7493 9.365 0.312
25.7697 9.021 0.307
25.7902 9.031 0.307
25.8107 8.354 0.295
25.8311 8.656 0.300
25.8516 8.490 0.297
25.8721 8.573 0.299
25.8925 8.552 0.298
25.9130 9.375 0.313
25.9334 8.594 0.299
25.9539 8.927 0.305
25.9744 9.271 0.311
25.9948 9.063 0.307
26.0153 9.531 0.315
26.0358 8.479 0.297
26.0562 8.573 0.299
26.0767 8.917 0.305
26.0971 8.448 0.297
26.1176 8.771 0.302
26.1381 8.771 0.302
26.1585 9.198 0.310
26.1790 8.771 0.302
26.1995 9.000 0.306
26.2199 9.396 0.313
26.2404 8.813 0.303
26.2609 8.802 0.303
26.2813 8.604 0.299
26.3018 8.906 0.305
26.3222 8.677 0.301
26.3427 9.042 0.307
26.3632 8.594 0.299
26.3836 8.396 0.296
26.4041 8.740 0.302
26.4246 8.969 0.306
26.4450 8.198 0.292
26.4655 7.906 0.287
26.4859 7.948 0.288
26.5064 9.042 0.307
26.5269 8.917 0.305
26.5473 8.750 0.302
26.5678 8.667 0.300
26.5883 8.917 0.305
26.6087 8.490 0.297
26.6292 8.823 0.303
26.6496 8.771 0.302
26.6701 8.052 0.290
26.6906 8.958 0.305
26.7110 9.021 0.307
26.7315 8.604 0.299
26.7520 8.865 0.304
26.7724 8.583 0.299
26.7929 8.490 0.297
26.8133 9.031 0.307
26.8338 9.125 0.308
26.8543 9.250 0.310
26.8747 8.792 0.303
26.8952 8.896 0.304
26.9157 9.031 0.307
26.9361 8.719 0.301
26.9566 8.885 0.304
26.9770 8.438 0.296
26.9975 9.094 0.308
27.0180 8.771 0.302
27.0384 8.667 0.300
27.0589 9.219 0.310
27.0794 9.344 0.312
27.0998 8.885 0.304
27.1203 9.115 0.308
27.1408 8.635 0.300
27.1612 9.104 0.308
27.1817 8.771 0.302
27.2021 9.000 0.306
27.2226 9.115 0.308
27.2431 9.125 0.308
27.2635 9.958 0.322
27.2840 9.500 0.315
27.3045 9.458 0.314
27.3249 9.438 0.314
27.3454 9.635 0.317
27.3658 9.229 0.310
27.3863 8.625 0.300
27.4068 8.510 0.298
27.4272 9.573 0.316
27.4477 10.323 0.328
27.4682 12.188 0.356
27.4886 14.385 0.387
27.5091 14.417 0.388
27.5295 11.563 0.347
27.5500 11.719 0.349
27.5705 11.292 0.343
27.5909 10.063 0.324
27.6114 9.208 0.310
27.6319 8.698 0.301
27.6523 8.958 0.305
27.6728 8.698 0.301
27.6932 7.917 0.287
27.7137 8.708 0.301
27.7342 8.927 0.305
27.7546 9.000 0.306
27.7751 8.219 0.293
27.7956 8.823 0.303
27.8160 8.479 0.297
27.8365 8.875 0.304
27.8569 8.625 0.300
27.8774 8.375 0.295
27.8979 8.344 0.295
27.9183 8.625 0.300
27.9388 8.729 0.302
27.9593 8.625 0.300
27.9797 8.698 0.301
28.0002 7.854 0.286
28.0207 8.323 0.294
28.0411 8.490 0.297
28.0616 8.813 0.303
28.0820 8.604 0.299
28.1025 7.979 0.288
28.1230 7.990 0.288
28.1434 7.833 0.286
28.1639 8.104 0.291
28.1844 7.771 0.285
28.2048 8.406 0.296
28.2253 8.229 0.293
28.2457 8.271 0.294
28.2662 8.052 0.290
28.2867 8.104 0.291
28.3071 8.490 0.297
28.3276 8.042 0.289
28.3481 8.354 0.295
28.3685 7.646 0.282
28.3890 8.010 0.289
28.4094 8.073 0.290
28.4299 8.167 0.292
28.4504 7.927 0.287
28.4708 8.240 0.293
28.4913 8.167 0.292
28.5118 8.063 0.290
28.5322 8.063 0.290
28.5527 7.427 0.278
28.5731 8.021 0.289
28.5936 8.313 0.294
28.6141 8.083 0.290
28.6345 7.750 0.284
28.6550 8.000 0.289
28.6755 7.979 0.288
28.6959 8.271 0.294
28.7164 7.990 0.288
28.7368 8.448 0.297
28.7573 7.781 0.285
28.7778 8.302 0.294
28.7982 8.385 0.296
28.8187 8.219 0.293
28.8392 8.427 0.296
28.8596 8.865 0.304
28.8801 8.271 0.294
28.9006 8.083 0.290
28.9210 8.417 0.296
28.9415 8.198 0.292
28.9619 8.104 0.291
28.9824 8.375 0.295
29.0029 7.719 0.284
29.0233 8.417 0.296
29.0438 7.500 0.280
29.0643 7.802 0.285
29.0847 7.875 0.286
29.1052 7.750 0.284
29.1256 7.625 0.282
29.1461 7.760 0.284
29.1666 8.042 0.289
29.1870 7.625 0.282
29.2075 7.677 0.283
29.2280 7.854 0.286
29.2484 7.385 0.277
29.2689 7.740 0.284
29.2893 7.750 0.284
29.3098 8.479 0.297
29.3303 8.500 0.298
29.3507 8.104 0.291
29.3712 9.438 0.314
29.3917 9.354 0.312
29.4121 9.292 0.311
29.4326 8.563 0.299
29.4530 9.427 0.313
29.4735 8.677 0.301
29.4940 8.375 0.295
29.5144 7.792 0.285
29.5349 8.010 0.289
29.5554 7.833 0.286
29.5758 8.885 0.304
29.5963 8.771 0.302
29.6168 8.646 0.300
29.6372 7.760 0.284
29.6577 8.844 0.304
29.6781 7.958 0.288
29.6986 8.229 0.293
29.7191 8.063 0.290
29.7395 7.708 0.283
29.7600 7.906 0.287
29.7805 8.104 0.291
29.8009 7.646 0.282
29.8214 7.313 0.276
29.8418 7.396 0.278
29.8623 7.375 0.277
29.8828 7.323 0.276
29.9032 7.500 0.280
29.9237 7.573 0.281
29.9442 7.979 0.288
29.9646 7.229 0.274
29.9851 8.042 0.289
30.0055 7.771 0.285
30.0260 7.635 0.282
30.0465 7.563 0.281
30.0669 7.438 0.278
30.0874 7.188 0.274
30.1079 7.625 0.282
30.1283 7.385 0.277
30.1488 7.698 0.283
30.1692 7.448 0.279
30.1897 7.875 0.286
30.2102 8.073 0.290
30.2306 7.229 0.274
30.2511 7.542 0.280
30.2716 7.458 0.279
30.2920 7.948 0.288
30.3125 7.646 0.282
30.3329 7.615 0.282
30.3534 7.917 0.287
30.3739 7.563 0.281
30.3943 7.510 0.280
30.4148 7.500 0.280
30.4353 7.750 0.284
30.4557 7.240 0.275
30.4762 7.479 0.279
30.4967 7.563 0.281
30.5171 7.292 0.276
30.5376 7.042 0.271
30.5580 7.594 0.281
30.5785 8.052 0.290
30.5990 7.438 0.278
30.6194 8.115 0.291
30.6399 7.635 0.282
30.6604 7.677 0.283
30.6808 7.313 0.276
30.7013 7.604 0.281
30.7217 7.833 0.286
30.7422 8.135 0.291
30.7627 7.604 0.281
30.7831 8.198 0.292
30.8036 8.656 0.300
30.8241 8.708 0.301
30.8445 9.115 0.308
30.8650 9.500 0.315
30.8854 10.052 0.324
30.9059 10.365 0.329
30.9264 10.333 0.328
30.9468 13.125 0.370
30.9673 16.510 0.415
30.9878 22.271 0.482
31.0082 29.656 0.556
31.0287 39.760 0.644
31.0491 42.927 0.669
31.0696 40.813 0.652
31.0901 38.427 0.633
31.1105 38.375 0.632
31.1310 33.104 0.587
31.1515 27.313 0.533
31.1719 21.250 0.470
31.1924 18.802 0.443
31.2128 15.104 0.397
31.2333 12.750 0.364
31.2538 11.948 0.353
31.2742 10.750 0.335
31.2947 10.385 0.329
31.3152 9.719 0.318
31.3356 9.104 0.308
31.3561 8.885 0.304
31.3766 8.677 0.301
31.3970 8.406 0.296
31.4175 7.948 0.288
31.4379 7.833 0.286
31.4584 8.281 0.294
31.4789 7.500 0.280
31.4993 7.802 0.285
31.5198 8.031 0.289
31.5403 7.469 0.279
31.5607 7.708 0.283
31.5812 7.542 0.280
31.6016 7.740 0.284
31.6221 8.094 0.290
31.6426 8.167 0.292
31.6630 7.354 0.277
31.6835 7.521 0.280
31.7040 7.521 0.280
31.7244 7.396 0.278
31.7449 7.417 0.278
31.7653 7.594 0.281
31.7858 7.490 0.279
31.8063 8.198 0.292
31.8267 8.646 0.300
31.8472 8.719 0.301
31.8677 8.917 0.305
31.8881 8.323 0.294
31.9086 8.542 0.298
31.9290 8.625 0.300
31.9495 8.292 0.294
31.9700 8.521 0.298
31.9904 8.104 0.291
32.0109 8.188 0.292
32.0314 7.979 0.288
32.0518 8.656 0.300
32.0723 9.188 0.309
32.0927 9.271 0.311
32.1132 9.698 0.318
32.1337 10.229 0.326
32.1541 10.219 0.326
32.1746 10.823 0.336
32.1951 12.000 0.354
32.2155 14.698 0.391
32.2360 16.156 0.410
32.2565 14.958 0.395
32.2769 12.885 0.366
32.2974 12.188 0.356
32.3178 13.125 0.370
32.3383 12.396 0.359
32.3588 10.292 0.327
32.3792 9.719 0.318
32.3997 10.135 0.325
32.4202 9.906 0.321
32.4406 10.146 0.325
32.4611 10.125 0.325
32.4815 11.031 0.339
32.5020 11.115 0.340
32.5225 11.802 0.351
32.5429 12.510 0.361
32.5634 12.792 0.365
32.5839 14.813 0.393
32.6043 16.813 0.418
32.6248 18.323 0.437
32.6452 19.115 0.446
32.6657 19.031 0.445
32.6862 17.219 0.424
32.7066 15.885 0.407
32.7271 15.365 0.400
32.7476 13.469 0.375
32.7680 11.896 0.352
32.7885 10.042 0.323
32.8089 9.802 0.320
32.8294 9.281 0.311
32.8499 8.344 0.295
32.8703 8.583 0.299
32.8908 8.583 0.299
32.9113 8.542 0.298
32.9317 8.271 0.294
32.9522 8.354 0.295
32.9726 8.115 0.291
32.9931 8.531 0.298
33.0136 8.167 0.292
33.0340 7.885 0.287
33.0545 8.073 0.290
33.0750 8.260 0.293
33.0954 8.177 0.292
33.1159 7.594 0.281
33.1364 8.208 0.292
33.1568 7.813 0.285
33.1773 8.958 0.305
33.1977 8.833 0.303
33.2182 8.354 0.295
33.2387 8.521 0.298
33.2591 8.677 0.301
33.2796 8.250 0.293
33.3001 7.979 0.288
33.3205 7.677 0.283
33.3410 7.823 0.285
33.3614 8.271 0.294
33.3819 8.521 0.298
33.4024 7.990 0.288
33.4228 8.375 0.295
33.4433 8.333 0.295
33.4638 8.333 0.295
33.4842 7.896 0.287
33.5047 7.958 0.288
33.5251 8.198 0.292
33.5456 7.542 0.280
33.5661 7.396 0.278
33.5865 7.073 0.271
33.6070 7.698 0.283
33.6275 7.000 0.270
33.6479 7.260 0.275
33.6684 7.719 0.284
33.6888 7.573 0.281
33.7093 7.396 0.278
33.7298 7.344 0.277
33.7502 7.490 0.279
33.7707 7.156 0.273
33.7912 6.875 0.268
33.8116 7.583 0.281
33.8321 7.302 0.276
33.8526 7.594 0.281
33.8730 7.740 0.284
33.8935 7.406 0.278
33.9139 7.333 0.276
33.9344 7.719 0.284
33.9549 7.646 0.282
33.9753 7.604 0.281
33.9958 7.552 0.280
34.0163 7.469 0.279
34.0367 8.010 0.289
34.0572 7.813 0.285
34.0776 7.667 0.283
34.0981 7.417 0.278
34.1186 8.313 0.294
34.1390 8.365 0.295
34.1595 8.229 0.293
34.1800 8.667 0.300
34.2004 9.167 0.309
34.2209 11.448 0.345
34.2413 12.240 0.357
34.2618 13.469 0.375
34.2823 11.656 0.348
34.3027 10.646 0.333
34.3232 10.760 0.335
34.3437 10.854 0.336
34.3641 10.365 0.329
34.3846 9.229 0.310
34.4050 8.906 0.305
34.4255 8.521 0.298
34.4460 8.625 0.300
34.4664 7.979 0.288
34.4869 7.760 0.284
34.5074 8.385 0.296
34.5278 7.979 0.288
34.5483 7.948 0.288
34.5687 7.719 0.284
34.5892 7.833 0.286
34.6097 7.823 0.285
34.6301 7.729 0.284
34.6506 7.594 0.281
34.6711 7.667 0.283
34.6915 7.542 0.280
34.7120 7.573 0.281
34.7325 7.396 0.278
34.7529 7.521 0.280
34.7734 7.427 0.278
34.7938 7.948 0.288
34.8143 7.677 0.283
34.8348 7.885 0.287
34.8552 7.990 0.288
34.8757 7.490 0.279
34.8962 9.260 0.311
34.9166 9.896 0.321
34.9371 11.292 0.343
34.9575 14.240 0.385
34.9780 15.146 0.397
34.9985 12.917 0.367
35.0189 10.917 0.337
35.0394 10.792 0.335
35.0599 12.260 0.357
35.0803 11.302 0.343
35.1008 9.792 0.319
35.1212 8.208 0.292
35.1417 8.490 0.297
35.1622 7.677 0.283
35.1826 7.521 0.280
35.2031 7.760 0.284
35.2236 7.740 0.284
35.2440 7.344 0.277
35.2645 7.469 0.279
35.2849 7.708 0.283
35.3054 7.750 0.284
35.3259 7.729 0.284
35.3463 7.573 0.281
35.3668 7.802 0.285
35.3873 7.708 0.283
35.4077 7.615 0.282
35.4282 7.917 0.287
35.4486 7.573 0.281
35.4691 7.479 0.279
35.4896 7.792 0.285
35.5100 8.240 0.293
35.5305 8.292 0.294
35.5510 8.510 0.298
35.5714 8.240 0.293
35.5919 8.750 0.302
35.6124 8.708 0.301
35.6328 8.385 0.296
35.6533 7.896 0.287
35.6737 8.063 0.290
35.6942 8.229 0.293
35.7147 8.438 0.296
35.7351 8.656 0.300
35.7556 8.740 0.302
35.7761 8.365 0.295
35.7965 9.313 0.311
35.8170 8.604 0.299
35.8374 9.448 0.314
35.8579 9.698 0.318
35.8784 9.354 0.312
35.8988 9.833 0.320
35.9193 9.292 0.311
35.9398 9.802 0.320
35.9602 10.292 0.327
35.9807 10.417 0.329
36.0011 10.896 0.337
36.0216 11.271 0.343
36.0421 11.708 0.349
36.0625 12.448 0.360
36.0830 13.219 0.371
36.1035 13.365 0.373
36.1239 14.115 0.383
36.1444 14.583 0.390
36.1648 14.958 0.395
36.1853 15.448 0.401
36.2058 15.344 0.400
36.2262 14.719 0.392
36.2467 14.000 0.382
36.2672 14.635 0.390
36.2876 13.604 0.376
36.3081 13.427 0.374
36.3285 13.583 0.376
36.3490 14.010 0.382
36.3695 14.167 0.384
36.3899 14.219 0.385
36.4104 13.396 0.374
36.4309 14.302 0.386
36.4513 14.760 0.392
36.4718 14.979 0.395
36.4923 15.302 0.399
36.5127 15.458 0.401
36.5332 16.802 0.418
36.5536 18.573 0.440
36.5741 19.802 0.454
36.5946 22.333 0.482
36.6150 25.542 0.516
36.6355 25.208 0.512
36.6560 22.260 0.482
36.6764 20.094 0.458
36.6969 20.573 0.463
36.7173 20.667 0.464
36.7378 19.719 0.453
36.7583 16.990 0.421
36.7787 16.427 0.414
36.7992 15.979 0.408
36.8197 15.146 0.397
36.8401 14.583 0.390
36.8606 14.958 0.395
36.8810 15.219 0.398
36.9015 16.313 0.412
36.9220 15.729 0.405
36.9424 16.219 0.411
36.9629 16.948 0.420
36.9834 17.573 0.428
37.0038 18.125 0.435
37.0243 21.010 0.468
37.0447 24.031 0.500
37.0652 27.031 0.531
37.0857 31.813 0.576
37.1061 33.177 0.588
37.1266 31.125 0.569
37.1471 27.740 0.538
37.1675 25.646 0.517
37.1880 25.813 0.519
37.2084 24.156 0.502
37.2289 21.219 0.470
37.2494 19.688 0.453
37.2698 17.000 0.421
37.2903 15.438 0.401
37.3108 14.854 0.393
37.3312 14.010 0.382
37.3517 14.219 0.385
37.3722 13.552 0.376
37.3926 13.365 0.373
37.4131 13.021 0.368
37.4335 12.188 0.356
37.4540 11.458 0.345
37.4745 11.656 0.348
37.4949 11.823 0.351
37.5154 11.250 0.342
37.5359 11.208 0.342
37.5563 11.885 0.352
37.5768 11.135 0.341
37.5972 10.833 0.336
37.6177 11.167 0.341
37.6382 10.500 0.331
37.6586 11.344 0.344
37.6791 11.208 0.342
37.6996 10.500 0.331
37.7200 10.927 0.337
37.7405 11.219 0.342
37.7609 11.208 0.342
37.7814 10.990 0.338
37.8019 10.854 0.336
37.8223 10.885 0.337
37.8428 11.365 0.344
37.8633 11.479 0.346
37.8837 11.656 0.348
37.9042 11.917 0.352
37.9246 11.813 0.351
37.9451 13.146 0.370
37.9656 13.958 0.381
37.9860 14.792 0.393
38.0065 16.156 0.410
38.0270 17.656 0.429
38.0474 20.406 0.461
38.0679 19.385 0.449
38.0884 17.531 0.427
38.1088 16.802 0.418
38.1293 16.385 0.413
38.1497 16.042 0.409
38.1702 15.604 0.403
38.1907 14.698 0.391
38.2111 13.802 0.379
38.2316 12.542 0.361
38.2521 13.146 0.370
38.2725 13.906 0.381
38.2930 13.094 0.369
38.3134 12.719 0.364
38.3339 12.042 0.354
38.3544 12.229 0.357
38.3748 12.385 0.359
38.3953 12.302 0.358
38.4158 12.844 0.366
38.4362 13.260 0.372
38.4567 14.500 0.389
38.4771 16.063 0.409
38.4976 15.604 0.403
38.5181 13.969 0.381
38.5385 13.063 0.369
38.5590 13.302 0.372
38.5795 13.281 0.372
38.5999 12.500 0.361
38.6204 12.146 0.356
38.6408 11.010 0.339
38.6613 10.740 0.334
38.6818 10.521 0.331
38.7022 10.448 0.330
38.7227 10.281 0.327
38.7432 10.063 0.324
38.7636 10.208 0.326
38.7841 10.135 0.325
38.8045 10.438 0.330
38.8250 9.906 0.321
38.8455 9.427 0.313
38.8659 9.698 0.318
38.8864 9.292 0.311
38.9069 9.917 0.321
38.9273 9.615 0.316
38.9478 9.969 0.322
38.9683 9.781 0.319
38.9887 9.760 0.319
39.0092 8.927 0.305
39.0296 9.125 0.308
39.0501 9.448 0.314
39.0706 9.760 0.319
39.0910 9.792 0.319
39.1115 9.250 0.310
39.1320 9.396 0.313
39.1524 9.000 0.306
39.1729 9.031 0.307
39.1933 8.740 0.302
39.2138 9.323 0.312
39.2343 9.427 0.313
39.2547 10.010 0.323
39.2752 9.698 0.318
39.2957 9.021 0.307
39.3161 9.115 0.308
39.3366 8.854 0.304
39.3570 8.479 0.297
39.3775 9.521 0.315
39.3980 9.458 0.314
39.4184 9.500 0.315
39.4389 9.479 0.314
39.4594 8.938 0.305
39.4798 9.229 0.310
39.5003 8.708 0.301
39.5207 9.021 0.307
39.5412 8.875 0.304
39.5617 9.031 0.307
39.5821 8.990 0.306
39.6026 9.438 0.314
39.6231 8.844 0.304
39.6435 9.646 0.317
39.6640 8.708 0.301
39.6844 8.885 0.304
39.7049 9.146 0.309
39.7254 10.333 0.328
39.7458 9.740 0.319
39.7663 10.333 0.328
39.7868 10.729 0.334
39.8072 11.406 0.345
39.8277 11.948 0.353
39.8482 11.521 0.346
39.8686 10.938 0.338
39.8891 10.740 0.334
39.9095 10.542 0.331
39.9300 11.156 0.341
39.9505 9.615 0.316
39.9709 9.885 0.321
39.9914 9.250 0.310
40.0119 9.510 0.315
40.0323 9.385 0.313
40.0528 8.813 0.303
40.0732 9.031 0.307
40.0937 9.010 0.306
40.1142 8.958 0.305
40.1346 9.458 0.314
40.1551 9.406 0.313
40.1756 9.146 0.309
40.1960 9.281 0.311
40.2165 9.406 0.313
40.2369 9.844 0.320
40.2574 11.313 0.343
40.2779 12.625 0.363
40.2983 13.823 0.379
40.3188 12.646 0.363
40.3393 11.854 0.351
40.3597 11.250 0.342
40.3802 12.292 0.358
40.4006 11.948 0.353
40.4211 11.813 0.351
40.4416 10.323 0.328
40.4620 10.073 0.324
40.4825 9.521 0.315
40.5030 9.813 0.320
40.5234 9.708 0.318
40.5439 8.604 0.299
40.5643 8.698 0.301
40.5848 9.021 0.307
40.6053 8.219 0.293
40.6257 8.750 0.302
40.6462 8.365 0.295
40.6667 8.813 0.303
40.6871 9.448 0.314
40.7076 9.500 0.315
40.7281 8.781 0.302
40.7485 9.344 0.312
40.7690 10.323 0.328
40.7894 11.958 0.353
40.8099 14.208 0.385
40.8304 14.219 0.385
40.8508 11.896 0.352
40.8713 11.552 0.347
40.8918 11.615 0.348
40.9122 11.677 0.349
40.9327 11.979 0.353
40.9531 10.906 0.337
40.9736 10.135 0.325
40.9941 10.167 0.325
41.0145 9.708 0.318
41.0350 9.396 0.313
41.0555 10.031 0.323
41.0759 10.021 0.323
41.0964 11.042 0.339
41.1168 12.917 0.367
41.1373 13.958 0.381
41.1578 15.292 0.399
41.1782 14.542 0.389
41.1987 12.938 0.367
41.2192 12.219 0.357
41.2396 12.490 0.361
41.2601 12.719 0.364
41.2805 12.146 0.356
41.3010 11.802 0.351
41.3215 10.448 0.330
41.3419 9.115 0.308
41.3624 8.958 0.305
41.3829 9.188 0.309
41.4033 8.906 0.305
41.4238 8.521 0.298
41.4442 8.646 0.300
41.4647 8.135 0.291
41.4852 8.083 0.290
41.5056 7.958 0.288
41.5261 7.406 0.278
41.5466 7.979 0.288
41.5670 7.375 0.277
41.5875 8.042 0.289
41.6080 7.750 0.284
41.6284 7.969 0.288
41.6489 8.031 0.289
41.6693 7.490 0.279
41.6898 8.052 0.290
41.7103 7.896 0.287
41.7307 7.708 0.283
41.7512 7.698 0.283
41.7717 8.125 0.291
41.7921 7.792 0.285
41.8126 7.708 0.283
41.8330 8.781 0.302
41.8535 9.188 0.309
41.8740 9.396 0.313
41.8944 10.865 0.336
41.9149 11.292 0.343
41.9354 10.250 0.327
41.9558 8.979 0.306
41.9763 9.125 0.308
41.9967 9.531 0.315
42.0172 9.521 0.315
42.0377 9.115 0.308
42.0581 8.865 0.304
42.0786 8.156 0.291
42.0991 8.344 0.295
42.1195 7.875 0.286
42.1400 8.208 0.292
42.1604 8.229 0.293
42.1809 7.990 0.288
42.2014 7.698 0.283
42.2218 8.646 0.300
42.2423 8.260 0.293
42.2628 8.323 0.294
42.2832 8.417 0.296
42.3037 8.969 0.306
42.3242 9.240 0.310
42.3446 9.479 0.314
42.3651 9.354 0.312
42.3855 9.844 0.320
42.4060 9.333 0.312
42.4265 9.260 0.311
42.4469 9.344 0.312
42.4674 8.948 0.305
42.4879 9.750 0.319
42.5083 9.698 0.318
42.5288 10.833 0.336
42.5492 10.677 0.333
42.5697 9.938 0.322
42.5902 9.594 0.316
42.6106 10.052 0.324
42.6311 10.042 0.323
42.6516 10.615 0.333
42.6720 10.042 0.323
42.6925 10.167 0.325
42.7129 10.010 0.323
42.7334 10.094 0.324
42.7539 9.885 0.321
42.7743 9.521 0.315
42.7948 9.813 0.320
42.8153 9.375 0.313
42.8357 8.698 0.301
42.8562 8.750 0.302
42.8766 9.010 0.306
42.8971 9.531 0.315
42.9176 9.427 0.313
42.9380 8.500 0.298
42.9585 9.146 0.309
42.9790 8.646 0.300
42.9994 8.760 0.302
43.0199 8.667 0.300
43.0403 9.083 0.308
43.0608 8.927 0.305
43.0813 8.813 0.303
43.1017 8.698 0.301
43.1222 9.271 0.311
43.1427 8.948 0.305
43.1631 9.396 0.313
43.1836 9.313 0.311
43.2041 9.688 0.318
43.2245 10.333 0.328
43.2450 9.844 0.320
43.2654 10.698 0.334
43.2859 9.896 0.321
43.3064 9.708 0.318
43.3268 10.156 0.325
43.3473 10.750 0.335
43.3678 10.479 0.330
43.3882 10.458 0.330
43.4087 11.417 0.345
43.4291 10.865 0.336
43.4496 11.125 0.340
43.4701 11.135 0.341
43.4905 11.115 0.340
43.5110 11.531 0.347
43.5315 11.396 0.345
43.5519 12.375 0.359
43.5724 13.521 0.375
43.5928 15.281 0.399
43.6133 17.406 0.426
43.6338 19.948 0.456
43.6542 20.823 0.466
43.6747 20.333 0.460
43.6952 17.031 0.421
43.7156 16.906 0.420
43.7361 16.531 0.415
43.7565 16.635 0.416
43.7770 16.208 0.411
43.7975 14.844 0.393
43.8179 13.229 0.371
43.8384 11.552 0.347
43.8589 11.229 0.342
43.8793 10.479 0.330
43.8998 10.323 0.328
43.9202 9.479 0.314
43.9407 9.271 0.311
43.9612 9.198 0.310
43.9816 8.896 0.304
44.0021 9.240 0.310
44.0226 8.885 0.304
44.0430 9.292 0.311
44.0635 8.104 0.291
44.0840 8.594 0.299
44.1044 8.500 0.298
44.1249 8.740 0.302
44.1453 8.313 0.294
44.1658 7.688 0.283
44.1863 7.729 0.284
44.2067 8.042 0.289
44.2272 8.219 0.293
44.2477 7.250 0.275
44.2681 8.281 0.294
44.2886 8.042 0.289
44.3090 8.177 0.292
44.3295 7.729 0.284
44.3500 7.885 0.287
44.3704 8.604 0.299
44.3909 7.698 0.283
44.4114 7.771 0.285
44.4318 7.646 0.282
44.4523 7.323 0.276
44.4727 7.948 0.288
44.4932 8.229 0.293
44.5137 8.219 0.293
44.5341 8.052 0.290
44.5546 8.385 0.296
44.5751 7.542 0.280
44.5955 8.073 0.290
44.6160 7.375 0.277
44.6364 8.240 0.293
44.6569 8.240 0.293
44.6774 8.240 0.293
44.6978 8.021 0.289
44.7183 8.146 0.291
44.7388 7.656 0.282
44.7592 8.417 0.296
44.7797 8.385 0.296
44.8001 7.469 0.279
44.8206 8.469 0.297
44.8411 7.979 0.288
44.8615 8.458 0.297
44.8820 8.354 0.295
44.9025 8.594 0.299
44.9229 8.510 0.298
44.9434 8.094 0.290
44.9639 8.458 0.297
44.9843 8.729 0.302
45.0048 8.188 0.292
45.0252 8.396 0.296
45.0457 8.219 0.293
45.0662 8.479 0.297
45.0866 8.094 0.290
45.1071 8.427 0.296
45.1276 8.594 0.299
45.1480 7.833 0.286
45.1685 8.458 0.297
45.1889 9.073 0.307
45.2094 9.646 0.317
45.2299 9.677 0.317
45.2503 10.510 0.331
45.2708 10.823 0.336
45.2913 10.396 0.329
45.3117 10.125 0.325
45.3322 10.115 0.325
45.3526 9.875 0.321
45.3731 8.927 0.305
45.3936 8.927 0.305
45.4140 8.927 0.305
45.4345 8.094 0.290
45.4550 8.094 0.290
45.4754 7.635 0.282
45.4959 7.813 0.285
45.5163 7.750 0.284
45.5368 7.958 0.288
45.5573 7.281 0.275
45.5777 7.302 0.276
45.5982 8.302 0.294
45.6187 7.094 0.272
45.6391 7.063 0.271
45.6596 7.333 0.276
45.6800 7.292 0.276
45.7005 7.177 0.273
45.7210 7.563 0.281
45.7414 7.521 0.280
45.7619 7.917 0.287
45.7824 7.125 0.272
45.8028 6.990 0.270
45.8233 7.313 0.276
45.8438 7.573 0.281
45.8642 6.479 0.260
45.8847 6.958 0.269
45.9051 7.844 0.286
45.9256 7.552 0.280
45.9461 7.854 0.286
45.9665 7.625 0.282
45.9870 7.688 0.283
46.0075 7.750 0.284
46.0279 7.417 0.278
46.0484 7.313 0.276
46.0688 7.052 0.271
46.0893 7.031 0.271
46.1098 7.198 0.274
46.1302 6.958 0.269
46.1507 6.771 0.266
46.1712 7.021 0.270
46.1916 7.156 0.273
46.2121 6.917 0.268
46.2325 6.958 0.269
46.2530 6.448 0.259
46.2735 7.260 0.275
46.2939 6.677 0.264
46.3144 6.677 0.264
46.3349 6.698 0.264
46.3553 7.000 0.270
46.3758 6.583 0.262
46.3962 6.646 0.263
46.4167 6.615 0.262
46.4372 6.500 0.260
46.4576 6.469 0.260
46.4781 6.896 0.268
46.4986 6.719 0.265
46.5190 6.979 0.270
46.5395 7.042 0.271
46.5600 7.542 0.280
46.5804 7.198 0.274
46.6009 7.896 0.287
46.6213 8.479 0.297
46.6418 9.448 0.314
46.6623 8.708 0.301
46.6827 7.833 0.286
46.7032 7.125 0.272
46.7237 7.417 0.278
46.7441 7.688 0.283
46.7646 7.708 0.283
46.7850 8.292 0.294
46.8055 7.208 0.274
46.8260 7.156 0.273
46.8464 7.219 0.274
46.8669 7.031 0.271
46.8874 6.719 0.265
46.9078 6.135 0.253
46.9283 6.823 0.267
46.9487 6.740 0.265
46.9692 7.104 0.272
46.9897 6.938 0.269
47.0101 6.229 0.255
47.0306 7.010 0.270
47.0511 6.750 0.265
47.0715 6.521 0.261
47.0920 6.885 0.268
47.1124 6.469 0.260
47.1329 7.042 0.271
47.1534 6.938 0.269
47.1738 7.125 0.272
47.1943 6.708 0.264
47.2148 6.896 0.268
47.2352 6.771 0.266
47.2557 6.302 0.256
47.2761 6.688 0.264
47.2966 7.365 0.277
47.3171 7.354 0.277
47.3375 7.260 0.275
47.3580 7.146 0.273
47.3785 7.219 0.274
47.3989 7.823 0.285
47.4194 7.573 0.281
47.4399 7.250 0.275
47.4603 7.604 0.281
47.4808 7.885 0.287
47.5012 7.979 0.288
47.5217 8.406 0.296
47.5422 9.031 0.307
47.5626 8.844 0.304
47.5831 9.792 0.319
47.6036 10.708 0.334
47.6240 11.073 0.340
47.6445 11.969 0.353
47.6649 11.313 0.343
47.6854 10.729 0.334
47.7059 10.469 0.330
47.7263 10.313 0.328
47.7468 10.469 0.330
47.7673 10.479 0.330
47.7877 10.083 0.324
47.8082 9.156 0.309
47.8286 8.865 0.304
47.8491 8.688 0.301
47.8696 8.646 0.300
47.8900 8.219 0.293
47.9105 7.833 0.286
47.9310 7.479 0.279
47.9514 7.688 0.283
47.9719 7.813 0.285
47.9923 7.604 0.281
48.0128 7.396 0.278
48.0333 7.417 0.278
48.0537 7.438 0.278
48.0742 7.260 0.275
48.0947 7.667 0.283
48.1151 7.656 0.282
48.1356 7.406 0.278
48.1560 7.854 0.286
48.1765 7.646 0.282
48.1970 7.917 0.287
48.2174 7.448 0.279
48.2379 7.813 0.285
48.2584 7.510 0.280
48.2788 8.198 0.292
48.2993 8.604 0.299
48.3198 7.729 0.284
48.3402 8.563 0.299
48.3607 8.271 0.294
48.3811 8.250 0.293
48.4016 8.427 0.296
48.4221 8.344 0.295
48.4425 8.115 0.291
48.4630 8.240 0.293
48.4835 8.000 0.289
48.5039 8.427 0.296
48.5244 8.646 0.300
48.5448 7.813 0.285
48.5653 8.083 0.290
48.5858 8.250 0.293
48.6062 8.042 0.289
48.6267 7.521 0.280
48.6472 7.333 0.276
48.6676 7.344 0.277
48.6881 7.917 0.287
48.7085 8.250 0.293
48.7290 7.979 0.288
48.7495 7.427 0.278
48.7699 7.448 0.279
48.7904 7.354 0.277
48.8109 7.115 0.272
48.8313 7.167 0.273
48.8518 7.698 0.283
48.8722 7.156 0.273
48.8927 7.531 0.280
48.9132 6.958 0.269
48.9336 7.479 0.279
48.9541 6.688 0.264
48.9746 7.104 0.272
48.9950 6.490 0.260
49.0155 6.333 0.257
49.0359 6.302 0.256
49.0564 6.885 0.268
49.0769 7.073 0.271
49.0973 6.906 0.268
49.1178 7.594 0.281
49.1383 7.438 0.278
49.1587 6.448 0.259
49.1792 7.188 0.274
49.1997 7.219 0.274
49.2201 7.240 0.275
49.2406 7.615 0.282
49.2610 7.281 0.275
49.2815 7.542 0.280
49.3020 7.333 0.276
49.3224 7.260 0.275
49.3429 7.813 0.285
49.3634 7.948 0.288
49.3838 7.781 0.285
49.4043 8.031 0.289
49.4247 7.656 0.282
49.4452 7.646 0.282
49.4657 7.875 0.286
49.4861 7.167 0.273
49.5066 8.208 0.292
49.5271 7.688 0.283
49.5475 7.510 0.280
49.5680 7.771 0.285
49.5884 7.490 0.279
49.6089 7.729 0.284
49.6294 8.031 0.289
49.6498 7.604 0.281
49.6703 8.177 0.292
49.6908 8.396 0.296
49.7112 8.219 0.293
49.7317 9.365 0.312
49.7521 9.302 0.311
49.7726 10.250 0.327
49.7931 11.667 0.349
49.8135 12.073 0.355
49.8340 13.385 0.373
49.8545 15.177 0.398
49.8749 16.375 0.413
49.8954 15.177 0.398
49.9158 14.656 0.391
49.9363 13.219 0.371
49.9568 13.385 0.373
49.9772 13.875 0.380
49.9977 13.073 0.369
50.0182 13.104 0.369
50.0386 12.958 0.367
50.0591 11.333 0.344
50.0796 10.719 0.334
50.1000 10.604 0.332
50.1205 9.958 0.322
50.1409 10.156 0.325
50.1614 9.115 0.308
50.1819 9.896 0.321
50.2023 10.052 0.324
50.2228 10.010 0.323
50.2433 10.229 0.326
50.2637 10.042 0.323
50.2842 10.094 0.324
50.3046 10.052 0.324
50.3251 10.188 0.326
50.3456 9.688 0.318
50.3660 8.729 0.302
50.3865 8.729 0.302
50.4070 8.594 0.299
50.4274 8.750 0.302
50.4479 8.635 0.300
50.4683 7.958 0.288
50.4888 8.219 0.293
50.5093 8.417 0.296
50.5297 7.698 0.283
50.5502 7.542 0.280
50.5707 7.625 0.282
50.5911 7.990 0.288
50.6116 7.677 0.283
50.6320 7.646 0.282
50.6525 7.552 0.280
50.6730 7.677 0.283
50.6934 7.740 0.284
50.7139 7.542 0.280
50.7344 7.875 0.286
50.7548 7.615 0.282
50.7753 6.990 0.270
50.7958 7.198 0.274
50.8162 7.813 0.285
50.8367 7.542 0.280
50.8571 7.333 0.276
50.8776 7.135 0.273
50.8981 7.427 0.278
50.9185 7.573 0.281
50.9390 8.302 0.294
50.9595 8.188 0.292
50.9799 8.813 0.303
51.0004 9.063 0.307
51.0208 8.865 0.304
51.0413 8.281 0.294
51.0618 7.792 0.285
51.0822 7.594 0.281
51.1027 7.625 0.282
51.1232 8.073 0.290
51.1436 7.823 0.285
51.1641 7.667 0.283
51.1845 7.344 0.277
51.2050 7.469 0.279
51.2255 6.865 0.267
51.2459 7.229 0.274
51.2664 7.281 0.275
51.2869 7.708 0.283
51.3073 7.250 0.275
51.3278 7.990 0.288
51.3482 7.156 0.273
51.3687 6.969 0.269
51.3892 7.344 0.277
51.4096 6.802 0.266
51.4301 6.917 0.268
51.4506 6.917 0.268
51.4710 6.969 0.269
51.4915 7.083 0.272
51.5119 6.542 0.261
51.5324 6.656 0.263
51.5529 6.958 0.269
51.5733 6.865 0.267
51.5938 7.104 0.272
51.6143 7.479 0.279
51.6347 7.500 0.280
51.6552 8.135 0.291
51.6757 8.135 0.291
51.6961 8.604 0.299
51.7166 7.635 0.282
51.7370 7.594 0.281
51.7575 7.542 0.280
51.7780 7.552 0.280
51.7984 7.802 0.285
51.8189 7.115 0.272
51.8394 7.594 0.281
51.8598 7.156 0.273
51.8803 7.250 0.275
51.9007 7.000 0.270
51.9212 6.552 0.261
51.9417 6.417 0.259
51.9621 6.927 0.269
51.9826 6.760 0.265
52.0031 6.563 0.261
52.0235 5.906 0.248
52.0440 6.531 0.261
52.0644 6.698 0.264
52.0849 6.302 0.256
52.1054 6.146 0.253
52.1258 6.344 0.257
52.1463 7.000 0.270
52.1668 6.125 0.253
52.1872 6.167 0.253
52.2077 5.906 0.248
52.2281 5.771 0.245
52.2486 6.198 0.254
52.2691 6.281 0.256
52.2895 6.365 0.257
52.3100 6.781 0.266
52.3305 6.146 0.253
52.3509 6.708 0.264
52.3714 5.635 0.242
52.3918 6.448 0.259
52.4123 6.271 0.256
52.4328 6.469 0.260
52.4532 6.438 0.259
52.4737 6.990 0.270
52.4942 6.396 0.258
52.5146 6.031 0.251
52.5351 5.844 0.247
52.5556 6.594 0.262
52.5760 5.813 0.246
52.5965 6.240 0.255
52.6169 6.031 0.251
52.6374 5.688 0.243
52.6579 5.740 0.245
52.6783 5.625 0.242
52.6988 5.896 0.248
52.7193 5.885 0.248
52.7397 5.885 0.248
52.7602 5.969 0.249
52.7806 5.500 0.239
52.8011 6.250 0.255
52.8216 6.042 0.251
52.8420 5.375 0.237
52.8625 5.802 0.246
52.8830 5.750 0.245
52.9034 6.042 0.251
52.9239 5.865 0.247
52.9443 6.156 0.253
52.9648 5.990 0.250
52.9853 6.323 0.257
53.0057 5.969 0.249
53.0262 5.792 0.246
53.0467 6.135 0.253
53.0671 6.521 0.261
53.0876 6.333 0.257
53.1080 6.198 0.254
53.1285 6.083 0.252
53.1490 5.854 0.247
53.1694 6.406 0.258
53.1899 6.490 0.260
53.2104 5.969 0.249
53.2308 6.177 0.254
53.2513 6.250 0.255
53.2717 5.958 0.249
53.2922 5.760 0.245
53.3127 5.677 0.243
53.3331 6.000 0.250
53.3536 5.854 0.247
53.3741 6.073 0.252
53.3945 5.594 0.241
53.4150 5.979 0.250
53.4355 5.917 0.248
53.4559 6.125 0.253
53.4764 5.740 0.245
53.4968 5.771 0.245
53.5173 5.406 0.237
53.5378 5.427 0.238
53.5582 5.750 0.245
53.5787 5.948 0.249
53.5992 5.865 0.247
53.6196 5.729 0.244
53.6401 5.646 0.243
53.6605 5.927 0.248
53.6810 5.865 0.247
53.7015 6.063 0.251
53.7219 6.260 0.255
53.7424 6.563 0.261
53.7629 6.219 0.255
53.7833 5.990 0.250
53.8038 5.594 0.241
53.8242 6.063 0.251
53.8447 5.177 0.232
53.8652 6.073 0.252
53.8856 5.688 0.243
53.9061 5.615 0.242
53.9266 5.542 0.240
53.9470 5.323 0.235
53.9675 5.813 0.246
53.9879 5.625 0.242
54.0084 5.802 0.246
54.0289 6.156 0.253
54.0493 5.771 0.245
54.0698 6.354 0.257
54.0903 6.063 0.251
54.1107 5.948 0.249
54.1312 6.604 0.262
54.1516 6.115 0.252
54.1721 6.010 0.250
54.1926 5.958 0.249
54.2130 6.083 0.252
54.2335 6.000 0.250
54.2540 5.635 0.242
54.2744 6.167 0.253
54.2949 6.000 0.250
54.3154 6.115 0.252
54.3358 6.052 0.251
54.3563 6.250 0.255
54.3767 5.688 0.243
54.3972 6.167 0.253
54.4177 6.042 0.251
54.4381 5.667 0.243
54.4586 5.292 0.235
54.4791 5.677 0.243
54.4995 6.208 0.254
54.5200 5.854 0.247
54.5404 6.302 0.256
54.5609 6.302 0.256
54.5814 6.365 0.257
54.6018 5.979 0.250
54.6223 5.729 0.244
54.6428 5.885 0.248
54.6632 5.698 0.244
54.6837 5.938 0.249
54.7041 5.906 0.248
54.7246 6.021 0.250
54.7451 5.792 0.246
54.7655 6.042 0.251
54.7860 6.104 0.252
54.8065 5.760 0.245
54.8269 6.146 0.253
54.8474 6.563 0.261
54.8678 6.250 0.255
54.8883 6.010 0.250
54.9088 6.135 0.253
54.9292 6.125 0.253
54.9497 5.813 0.246
54.9702 6.292 0.256
54.9906 6.365 0.257
55.0111 6.510 0.260
55.0316 6.594 0.262
55.0520 7.073 0.271
55.0725 8.490 0.297
55.0929 8.771 0.302
55.1134 10.500 0.331
55.1339 11.625 0.348
55.1543 11.885 0.352
55.1748 13.458 0.374
55.1953 14.583 0.390
55.2157 14.813 0.393
55.2362 13.833 0.380
55.2566 13.854 0.380
55.2771 13.094 0.369
55.2976 12.542 0.361
55.3180 12.500 0.361
55.3385 12.865 0.366
55.3590 12.344 0.359
55.3794 10.854 0.336
55.3999 9.844 0.320
55.4203 9.250 0.310
55.4408 8.865 0.304
55.4613 8.417 0.296
55.4817 8.156 0.291
55.5022 7.813 0.285
55.5227 7.302 0.276
55.5431 7.469 0.279
55.5636 6.490 0.260
55.5840 6.688 0.264
55.6045 6.813 0.266
55.6250 6.469 0.260
55.6454 6.167 0.253
55.6659 6.375 0.258
55.6864 6.083 0.252
55.7068 6.198 0.254
55.7273 6.313 0.256
55.7477 6.729 0.265
55.7682 6.625 0.263
55.7887 6.542 0.261
55.8091 6.948 0.269
55.8296 6.490 0.260
55.8501 6.438 0.259
55.8705 6.438 0.259
55.8910 6.604 0.262
55.9115 6.698 0.264
55.9319 6.813 0.266
55.9524 6.563 0.261
55.9728 7.146 0.273
55.9933 6.938 0.269
56.0138 7.042 0.271
56.0342 7.010 0.270
56.0547 7.125 0.272
56.0752 7.385 0.277
56.0956 7.625 0.282
56.1161 7.979 0.288
56.1365 8.625 0.300
56.1570 9.125 0.308
56.1775 10.281 0.327
56.1979 10.552 0.332
56.2184 10.990 0.338
56.2389 11.542 0.347
56.2593 9.802 0.320
56.2798 9.448 0.314
56.3002 8.729 0.302
56.3207 8.375 0.295
56.3412 8.927 0.305
56.3616 9.021 0.307
56.3821 8.688 0.301
56.4026 8.208 0.292
56.4230 7.448 0.279
56.4435 7.219 0.274
56.4639 6.594 0.262
56.4844 6.385 0.258
56.5049 6.281 0.256
56.5253 6.208 0.254
56.5458 6.031 0.251
56.5663 5.969 0.249
56.5867 5.802 0.246
56.6072 5.260 0.234
56.6276 5.948 0.249
56.6481 5.833 0.247
56.6686 6.594 0.262
56.6890 6.583 0.262
56.7095 7.115 0.272
56.7300 6.875 0.268
56.7504 6.396 0.258
56.7709 6.031 0.251
56.7914 5.406 0.237
56.8118 6.104 0.252
56.8323 5.823 0.246
56.8527 6.271 0.256
56.8732 6.156 0.253
56.8937 5.740 0.245
56.9141 5.604 0.242
56.9346 5.865 0.247
56.9551 6.063 0.251
56.9755 5.875 0.247
56.9960 5.188 0.232
57.0164 5.729 0.244
57.0369 5.260 0.234
57.0574 5.042 0.229
57.0778 5.146 0.232
57.0983 5.708 0.244
57.1188 5.083 0.230
57.1392 5.073 0.230
57.1597 5.510 0.240
57.1801 5.656 0.243
57.2006 5.031 0.229
57.2211 5.438 0.238
57.2415 5.396 0.237
57.2620 5.417 0.238
57.2825 5.344 0.236
57.3029 5.719 0.244
57.3234 5.156 0.232
57.3438 5.177 0.232
57.3643 5.240 0.234
57.3848 5.542 0.240
57.4052 5.448 0.238
57.4257 5.552 0.240
57.4462 5.563 0.241
57.4666 5.771 0.245
57.4871 5.833 0.247
57.5075 5.740 0.245
57.5280 5.833 0.247
57.5485 5.979 0.250
57.5689 5.708 0.244
57.5894 5.688 0.243
57.6099 6.188 0.254
57.6303 5.458 0.238
57.6508 5.979 0.250
57.6713 5.927 0.248
57.6917 5.990 0.250
57.7122 6.052 0.251
57.7326 5.958 0.249
57.7531 5.698 0.244
57.7736 6.094 0.252
57.7940 6.438 0.259
57.8145 6.760 0.265
57.8350 7.146 0.273
57.8554 7.323 0.276
57.8759 7.500 0.280
57.8963 8.677 0.301
57.9168 8.844 0.304
57.9373 9.302 0.311
57.9577 9.333 0.312
57.9782 9.083 0.308
57.9987 7.958 0.288
58.0191 8.146 0.291
58.0396 8.083 0.290
58.0600 8.354 0.295
58.0805 8.135 0.291
58.1010 7.969 0.288
58.1214 7.698 0.283
58.1419 6.896 0.268
58.1624 6.771 0.266
58.1828 6.667 0.264
58.2033 6.854 0.267
58.2237 6.458 0.259
58.2442 6.771 0.266
58.2647 6.396 0.258
58.2851 6.542 0.261
58.3056 5.844 0.247
58.3261 6.688 0.264
58.3465 5.458 0.238
58.3670 5.583 0.241
58.3874 5.771 0.245
58.4079 6.271 0.256
58.4284 5.750 0.245
58.4488 5.552 0.240
58.4693 6.719 0.265
58.4898 5.865 0.247
58.5102 5.990 0.250
58.5307 6.281 0.256
58.5512 6.260 0.255
58.5716 6.271 0.256
58.5921 5.927 0.248
58.6125 6.167 0.253
58.6330 6.031 0.251
58.6535 5.813 0.246
58.6739 5.698 0.244
58.6944 6.302 0.256
58.7149 5.510 0.240
58.7353 6.250 0.255
58.7558 6.073 0.252
58.7762 5.646 0.243
58.7967 5.865 0.247
58.8172 5.865 0.247
58.8376 6.125 0.253
58.8581 6.125 0.253
58.8786 6.396 0.258
58.8990 5.969 0.249
58.9195 6.052 0.251
58.9399 6.438 0.259
58.9604 5.917 0.248
58.9809 5.896 0.248
59.0013 6.458 0.259
59.0218 6.031 0.251
59.0423 5.875 0.247
59.0627 5.958 0.249
59.0832 6.250 0.255
59.1036 6.740 0.265
59.1241 6.625 0.263
59.1446 6.865 0.267
59.1650 7.135 0.273
59.1855 7.396 0.278
59.2060 7.333 0.276
59.2264 7.875 0.286
59.2469 7.719 0.284
59.2674 7.875 0.286
59.2878 7.365 0.277
59.3083 6.677 0.264
59.3287 6.438 0.259
59.3492 6.250 0.255
59.3697 6.552 0.261
59.3901 6.729 0.265
59.4106 6.427 0.259
59.4311 6.229 0.255
59.4515 5.542 0.240
59.4720 5.365 0.236
59.4924 5.948 0.249
59.5129 5.458 0.238
59.5334 5.854 0.247
59.5538 5.563 0.241
59.5743 5.781 0.245
59.5948 5.563 0.241
59.6152 5.490 0.239
59.6357 5.333 0.236
59.6561 5.385 0.237
59.6766 5.500 0.239
59.6971 5.344 0.236
59.7175 5.427 0.238
59.7380 5.427 0.238
59.7585 5.479 0.239
59.7789 6.031 0.251
59.7994 6.250 0.255
59.8198 5.927 0.248
59.8403 6.365 0.257
59.8608 6.979 0.270
59.8812 7.260 0.275
59.9017 7.646 0.282
59.9222 6.844 0.267
59.9426 6.927 0.269
59.9631 6.792 0.266
59.9835 6.990 0.270
60.0040 7.281 0.275
60.0245 6.750 0.265
60.0449 6.958 0.269
60.0654 6.313 0.256
60.0859 6.417 0.259
60.1063 6.375 0.258
60.1268 6.000 0.250
60.1473 6.542 0.261
60.1677 6.219 0.255
60.1882 5.615 0.242
60.2086 5.792 0.246
60.2291 5.760 0.245
60.2496 5.844 0.247
60.2700 5.260 0.234
60.2905 5.500 0.239
60.3110 5.594 0.241
60.3314 5.198 0.233
60.3519 5.385 0.237
60.3723 5.219 0.233
60.3928 5.427 0.238
60.4133 5.313 0.235
60.4337 5.302 0.235
60.4542 5.198 0.233
60.4747 5.073 0.230
60.4951 4.875 0.225
60.5156 5.406 0.237
60.5360 5.125 0.231
60.5565 4.875 0.225
60.5770 5.042 0.229
60.5974 5.552 0.240
60.6179 5.063 0.230
60.6384 4.938 0.227
60.6588 4.875 0.225
60.6793 5.375 0.237
60.6997 5.292 0.235
60.7202 5.219 0.233
60.7407 5.500 0.239
60.7611 5.333 0.236
60.7816 4.948 0.227
60.8021 5.188 0.232
60.8225 4.760 0.223
60.8430 5.354 0.236
60.8634 4.917 0.226
60.8839 4.906 0.226
60.9044 5.219 0.233
60.9248 5.396 0.237
60.9453 5.083 0.230
60.9658 5.313 0.235
60.9862 5.052 0.229
61.0067 5.188 0.232
61.0272 5.031 0.229
61.0476 5.000 0.228
61.0681 5.188 0.232
61.0885 5.563 0.241
61.1090 4.823 0.224
61.1295 5.292 0.235
61.1499 4.948 0.227
61.1704 4.719 0.222
61.1909 4.990 0.228
61.2113 4.979 0.228
61.2318 4.854 0.225
61.2522 4.573 0.218
61.2727 5.219 0.233
61.2932 4.708 0.221
61.3136 5.031 0.229
61.3341 5.333 0.236
61.3546 5.344 0.236
61.3750 5.292 0.235
61.3955 5.417 0.238
61.4159 5.146 0.232
61.4364 5.031 0.229
61.4569 4.802 0.224
61.4773 4.771 0.223
61.4978 4.677 0.221
61.5183 4.979 0.228
61.5387 5.010 0.228
61.5592 5.031 0.229
61.5796 4.563 0.218
61.6001 5.281 0.235
61.6206 5.073 0.230
61.6410 4.917 0.226
61.6615 4.927 0.227
61.6820 5.333 0.236
61.7024 4.594 0.219
61.7229 4.313 0.212
61.7433 4.615 0.219
61.7638 4.594 0.219
61.7843 4.990 0.228
61.8047 4.990 0.228
61.8252 4.552 0.218
61.8457 4.771 0.223
61.8661 4.750 0.222
61.8866 4.719 0.222
61.9071 4.740 0.222
61.9275 5.177 0.232
61.9480 4.771 0.223
61.9684 5.542 0.240
61.9889 5.188 0.232
62.0094 5.031 0.229
62.0298 4.917 0.226
62.0503 5.219 0.233
62.0708 4.958 0.227
62.0912 5.313 0.235
62.1117 5.365 0.236
62.1321 5.625 0.242
62.1526 5.958 0.249
62.1731 5.958 0.249
62.1935 5.875 0.247
62.2140 5.698 0.244
62.2345 5.635 0.242
62.2549 5.438 0.238
62.2754 5.042 0.229
62.2958 4.771 0.223
62.3163 5.063 0.230
62.3368 5.771 0.245
62.3572 5.146 0.232
62.3777 5.021 0.229
62.3982 4.958 0.227
62.4186 5.177 0.232
62.4391 4.729 0.222
62.4595 4.875 0.225
62.4800 5.083 0.230
62.5005 4.656 0.220
62.5209 5.083 0.230
62.5414 4.781 0.223
62.5619 4.604 0.219
62.5823 4.646 0.220
62.6028 4.677 0.221
62.6232 4.604 0.219
62.6437 4.781 0.223
62.6642 4.688 0.221
62.6846 4.990 0.228
62.7051 4.844 0.225
62.7256 5.000 0.228
62.7460 4.604 0.219
62.7665 4.583 0.219
62.7870 4.938 0.227
62.8074 4.938 0.227
62.8279 4.833 0.224
62.8483 4.615 0.219
62.8688 5.010 0.228
62.8893 4.500 0.217
62.9097 4.875 0.225
62.9302 4.677 0.221
62.9507 5.063 0.230
62.9711 4.729 0.222
62.9916 4.750 0.222
63.0120 4.844 0.225
63.0325 4.896 0.226
63.0530 5.031 0.229
63.0734 4.865 0.225
63.0939 5.333 0.236
63.1144 4.635 0.220
63.1348 4.552 0.218
63.1553 4.688 0.221
63.1757 4.760 0.223
63.1962 4.604 0.219
63.2167 4.594 0.219
63.2371 5.198 0.233
63.2576 4.833 0.224
63.2781 4.896 0.226
63.2985 4.948 0.227
63.3190 5.271 0.234
63.3394 5.146 0.232
63.3599 5.167 0.232
63.3804 5.135 0.231
63.4008 4.865 0.225
63.4213 5.240 0.234
63.4418 5.010 0.228
63.4622 5.156 0.232
63.4827 5.135 0.231
63.5032 5.365 0.236
63.5236 5.698 0.244
63.5441 5.010 0.228
63.5645 5.031 0.229
63.5850 5.323 0.235
63.6055 5.521 0.240
63.6259 5.292 0.235
63.6464 5.406 0.237
63.6669 5.333 0.236
63.6873 5.792 0.246
63.7078 5.052 0.229
63.7282 5.385 0.237
63.7487 5.490 0.239
63.7692 5.573 0.241
63.7896 5.219 0.233
63.8101 5.594 0.241
63.8306 5.469 0.239
63.8510 5.792 0.246
63.8715 5.656 0.243
63.8919 5.406 0.237
63.9124 5.917 0.248
63.9329 5.344 0.236
63.9533 5.646 0.243
63.9738 5.625 0.242
63.9943 5.958 0.249
64.0147 5.750 0.245
64.0352 5.417 0.238
64.0556 6.104 0.252
64.0761 5.896 0.248
64.0966 5.906 0.248
64.1170 6.052 0.251
64.1375 5.813 0.246
64.1580 5.344 0.236
64.1784 5.188 0.232
64.1989 5.656 0.243
64.2193 5.844 0.247
64.2398 5.688 0.243
64.2603 5.573 0.241
64.2807 5.719 0.244
64.3012 5.448 0.238
64.3217 5.594 0.241
64.3421 5.156 0.232
64.3626 5.552 0.240
64.3831 5.406 0.237
64.4035 5.125 0.231
64.4240 5.510 0.240
64.4444 5.698 0.244
64.4649 5.250 0.234
64.4854 5.594 0.241
64.5058 5.438 0.238
64.5263 5.698 0.244
64.5468 5.917 0.248
64.5672 6.115 0.252
64.5877 6.500 0.260
64.6081 5.917 0.248
64.6286 6.552 0.261
64.6491 7.448 0.279
64.6695 7.781 0.285
64.6900 7.708 0.283
64.7105 7.552 0.280
64.7309 7.135 0.273
64.7514 7.063 0.271
64.7718 7.292 0.276
64.7923 7.260 0.275
64.8128 6.938 0.269
64.8332 7.250 0.275
64.8537 7.240 0.275
64.8742 6.823 0.267
64.8946 7.073 0.271
64.9151 6.281 0.256
64.9355 6.188 0.254
64.9560 5.823 0.246
64.9765 5.823 0.246
64.9969 5.792 0.246
65.0174 5.865 0.247
65.0379 5.781 0.245
65.0583 5.000 0.228
65.0788 5.708 0.244
65.0992 5.625 0.242
65.1197 4.938 0.227
65.1402 5.135 0.231
65.1606 4.740 0.222
65.1811 5.333 0.236
65.2016 5.281 0.235
65.2220 5.208 0.233
65.2425 4.740 0.222
65.2630 4.792 0.223
65.2834 4.688 0.221
65.3039 5.198 0.233
65.3243 4.979 0.228
65.3448 5.500 0.239
65.3653 5.010 0.228
65.3857 4.948 0.227
65.4062 4.938 0.227
65.4267 5.021 0.229
65.4471 5.031 0.229
65.4676 5.000 0.228
65.4880 5.125 0.231
65.5085 4.938 0.227
65.5290 5.563 0.241
65.5494 5.667 0.243
65.5699 5.719 0.244
65.5904 6.104 0.252
65.6108 6.281 0.256
65.6313 5.990 0.250
65.6517 5.833 0.247
65.6722 6.167 0.253
65.6927 5.552 0.240
65.7131 5.594 0.241
65.7336 5.521 0.240
65.7541 5.417 0.238
65.7745 5.875 0.247
65.7950 5.167 0.232
65.8154 5.479 0.239
65.8359 5.260 0.234
65.8564 5.635 0.242
65.8768 5.031 0.229
65.8973 4.958 0.227
65.9178 5.083 0.230
65.9382 4.865 0.225
65.9587 4.813 0.224
65.9791 5.042 0.229
65.9996 4.885 0.226
66.0201 4.771 0.223
66.0405 4.792 0.223
66.0610 4.813 0.224
66.0815 4.833 0.224
66.1019 4.844 0.225
66.1224 4.656 0.220
66.1429 4.635 0.220
66.1633 4.740 0.222
66.1838 4.896 0.226
66.2042 4.542 0.218
66.2247 4.365 0.213
66.2452 4.792 0.223
66.2656 4.781 0.223
66.2861 4.833 0.224
66.3066 4.448 0.215
66.3270 4.729 0.222
66.3475 4.844 0.225
66.3679 4.875 0.225
66.3884 4.729 0.222
66.4089 4.396 0.214
66.4293 4.438 0.215
66.4498 4.688 0.221
66.4703 4.729 0.222
66.4907 4.813 0.224
66.5112 4.729 0.222
66.5316 4.604 0.219
66.5521 4.906 0.226
66.5726 4.740 0.222
66.5930 4.354 0.213
66.6135 4.813 0.224
66.6340 4.948 0.227
66.6544 4.563 0.218
66.6749 4.938 0.227
66.6953 4.875 0.225
66.7158 4.833 0.224
66.7363 4.677 0.221
66.7567 4.719 0.222
66.7772 4.823 0.224
66.7977 4.854 0.225
66.8181 5.104 0.231
66.8386 4.885 0.226
66.8590 4.667 0.220
66.8795 5.333 0.236
66.9000 5.510 0.240
66.9204 5.292 0.235
66.9409 5.260 0.234
66.9614 4.990 0.228
66.9818 5.302 0.235
67.0023 5.396 0.237
67.0228 4.844 0.225
67.0432 5.625 0.242
67.0637 6.115 0.252
67.0841 6.646 0.263
67.1046 6.781 0.266
67.1251 6.656 0.263
67.1455 7.583 0.281
67.1660 8.208 0.292
67.1865 7.990 0.288
67.2069 7.729 0.284
67.2274 7.771 0.285
67.2478 7.094 0.272
67.2683 6.833 0.267
67.2888 6.500 0.260
67.3092 7.000 0.270
67.3297 7.188 0.274
67.3502 7.104 0.272
67.3706 7.083 0.272
67.3911 6.635 0.263
67.4115 7.063 0.271
67.4320 6.417 0.259
67.4525 5.615 0.242
67.4729 6.177 0.254
67.4934 5.281 0.235
67.5139 5.406 0.237
67.5343 5.479 0.239
67.5548 5.094 0.230
67.5752 5.063 0.230
67.5957 5.260 0.234
67.6162 5.021 0.229
67.6366 4.885 0.226
67.6571 5.510 0.240
67.6776 5.052 0.229
67.6980 4.927 0.227
67.7185 5.250 0.234
67.7389 4.708 0.221
67.7594 5.115 0.231
67.7799 5.552 0.240
67.8003 5.073 0.230
67.8208 5.125 0.231
67.8413 4.719 0.222
67.8617 5.052 0.229
67.8822 4.885 0.226
67.9027 5.271 0.234
67.9231 4.958 0.227
67.9436 5.292 0.235
67.9640 5.385 0.237
67.9845 5.490 0.239
68.0050 5.438 0.238
68.0254 5.417 0.238
68.0459 5.198 0.233
68.0664 5.188 0.232
68.0868 5.313 0.235
68.1073 5.281 0.235
68.1277 5.177 0.232
68.1482 5.302 0.235
68.1687 5.333 0.236
68.1891 5.135 0.231
68.2096 5.990 0.250
68.2301 5.573 0.241
68.2505 5.010 0.228
68.2710 5.646 0.243
68.2914 5.375 0.237
68.3119 5.583 0.241
68.3324 5.667 0.243
68.3528 6.438 0.259
68.3733 6.042 0.251
68.3938 5.667 0.243
68.4142 5.906 0.248
68.4347 5.573 0.241
68.4551 5.573 0.241
68.4756 5.552 0.240
68.4961 5.688 0.243
68.5165 5.250 0.234
68.5370 5.104 0.231
68.5575 5.552 0.240
68.5779 5.594 0.241
68.5984 5.573 0.241
68.6189 4.604 0.219
68.6393 4.802 0.224
68.6598 4.490 0.216
68.6802 4.719 0.222
68.7007 4.604 0.219
68.7212 4.792 0.223
68.7416 4.979 0.228
68.7621 5.083 0.230
68.7826 4.781 0.223
68.8030 4.625 0.219
68.8235 4.552 0.218
68.8439 4.719 0.222
68.8644 5.042 0.229
68.8849 5.010 0.228
68.9053 5.240 0.234
68.9258 4.875 0.225
68.9463 5.146 0.232
68.9667 5.156 0.232
68.9872 5.521 0.240
69.0076 5.969 0.249
69.0281 5.177 0.232
69.0486 6.167 0.253
69.0690 5.854 0.247
69.0895 5.427 0.238
69.1100 5.490 0.239
69.1304 5.448 0.238
69.1509 5.260 0.234
69.1713 5.073 0.230
69.1918 4.854 0.225
69.2123 5.615 0.242
69.2327 5.302 0.235
69.2532 5.427 0.238
69.2737 5.740 0.245
69.2941 5.365 0.236
69.3146 5.135 0.231
69.3350 5.073 0.230
69.3555 5.073 0.230
69.3760 4.781 0.223
69.3964 4.594 0.219
69.4169 4.771 0.223
69.4374 5.010 0.228
69.4578 5.063 0.230
69.4783 4.635 0.220
69.4988 4.573 0.218
69.5192 4.375 0.213
69.5397 4.188 0.209
69.5601 4.208 0.209
69.5806 4.448 0.215
69.6011 4.531 0.217
69.6215 4.385 0.214
69.6420 4.281 0.211
69.6625 4.292 0.211
69.6829 3.823 0.200
69.7034 4.375 0.213
69.7238 4.646 0.220
69.7443 4.500 0.217
69.7648 4.292 0.211
69.7852 4.167 0.208
69.8057 4.510 0.217
69.8262 3.906 0.202
69.8466 4.219 0.210
69.8671 4.177 0.209
69.8875 4.448 0.215
69.9080 4.583 0.219
69.9285 4.167 0.208
69.9489 4.250 0.210
69.9694 4.573 0.218
69.9899 4.396 0.214
70.0103 4.115 0.207
70.0308 4.063 0.206
70.0512 4.167 0.208
70.0717 4.260 0.211
70.0922 4.500 0.217
70.1126 4.615 0.219
70.1331 4.219 0.210
70.1536 3.833 0.200
70.1740 4.542 0.218
70.1945 4.604 0.219
70.2149 4.427 0.215
70.2354 3.969 0.203
70.2559 4.094 0.207
70.2763 4.313 0.212
70.2968 4.156 0.208
70.3173 4.323 0.212
70.3377 4.448 0.215
70.3582 3.927 0.202
70.3787 4.417 0.214
70.3991 3.677 0.196
70.4196 4.260 0.211
70.4400 4.521 0.217
70.4605 4.271 0.211
70.4810 3.938 0.203
70.5014 4.344 0.213
70.5219 4.094 0.207
70.5424 4.208 0.209
70.5628 3.813 0.199
70.5833 3.844 0.200
70.6037 4.146 0.208
70.6242 4.354 0.213
70.6447 4.479 0.216
70.6651 4.104 0.207
70.6856 3.990 0.204
70.7061 3.802 0.199
70.7265 4.104 0.207
70.7470 4.365 0.213
70.7674 4.031 0.205
70.7879 4.000 0.204
70.8084 4.208 0.209
70.8288 4.385 0.214
70.8493 4.281 0.211
70.8698 4.260 0.211
70.8902 4.188 0.209
70.9107 4.125 0.207
70.9311 4.333 0.212
70.9516 4.427 0.215
70.9721 3.958 0.203
70.9925 4.042 0.205
71.0130 4.365 0.213
71.0335 4.188 0.209
71.0539 4.177 0.209
71.0744 4.385 0.214
71.0948 4.146 0.208
71.1153 4.104 0.207
71.1358 4.260 0.211
71.1562 3.969 0.203
71.1767 4.146 0.208
71.1972 4.500 0.217
71.2176 4.031 0.205
71.2381 4.396 0.214
71.2586 4.115 0.207
71.2790 4.219 0.210
71.2995 3.927 0.202
71.3199 4.000 0.204
71.3404 3.938 0.203
71.3609 3.885 0.201
71.3813 4.354 0.213
71.4018 3.781 0.198
71.4223 4.073 0.206
71.4427 3.823 0.200
71.4632 3.729 0.197
71.4836 3.958 0.203
71.5041 3.979 0.204
71.5246 3.906 0.202
71.5450 4.042 0.205
71.5655 4.167 0.208
71.5860 3.833 0.200
71.6064 4.375 0.213
71.6269 4.115 0.207
71.6473 4.000 0.204
71.6678 3.938 0.203
71.6883 4.010 0.204
71.7087 4.021 0.205
71.7292 4.073 0.206
71.7497 3.823 0.200
71.7701 3.896 0.201
71.7906 3.948 0.203
71.8110 4.083 0.206
71.8315 3.333 0.186
71.8520 4.063 0.206
71.8724 3.719 0.197
71.8929 4.073 0.206
71.9134 3.938 0.203
71.9338 3.448 0.190
71.9543 3.688 0.196
71.9747 4.146 0.208
71.9952 3.740 0.197
72.0157 3.813 0.199
72.0361 3.677 0.196
72.0566 4.042 0.205
72.0771 4.292 0.211
72.0975 4.135 0.208
72.1180 3.844 0.200
72.1385 3.719 0.197
72.1589 4.177 0.209
72.1794 3.979 0.204
72.1998 4.021 0.205
72.2203 4.375 0.213
72.2408 3.875 0.201
72.2612 3.760 0.198
72.2817 3.979 0.204
72.3022 3.719 0.197
72.3226 3.917 0.202
72.3431 3.948 0.203
72.3635 4.063 0.206
72.3840 3.927 0.202
72.4045 4.146 0.208
72.4249 4.052 0.205
72.4454 3.948 0.203
72.4659 3.833 0.200
72.4863 3.885 0.201
72.5068 3.865 0.201
72.5272 4.063 0.206
72.5477 3.531 0.192
72.5682 4.323 0.212
72.5886 4.063 0.206
72.6091 3.833 0.200
72.6296 4.135 0.208
72.6500 4.042 0.205
72.6705 3.719 0.197
72.6909 3.865 0.201
72.7114 4.073 0.206
72.7319 4.000 0.204
72.7523 4.063 0.206
72.7728 4.135 0.208
72.7933 3.885 0.201
72.8137 4.271 0.211
72.8342 4.177 0.209
72.8547 4.115 0.207
72.8751 3.979 0.204
72.8956 4.094 0.207
72.9160 3.948 0.203
72.9365 4.125 0.207
72.9570 3.938 0.203
72.9774 4.219 0.210
72.9979 4.188 0.209
73.0184 4.000 0.204
73.0388 4.052 0.205
73.0593 4.042 0.205
73.0797 3.990 0.204
73.1002 4.063 0.206
73.1207 3.979 0.204
73.1411 3.885 0.201
73.1616 3.854 0.200
73.1821 3.833 0.200
73.2025 3.406 0.188
73.2230 3.448 0.190
73.2434 3.698 0.196
73.2639 3.771 0.198
73.2844 3.479 0.190
73.3048 3.604 0.194
73.3253 3.844 0.200
73.3458 3.917 0.202
73.3662 3.875 0.201
73.3867 3.729 0.197
73.4071 3.885 0.201
73.4276 3.979 0.204
73.4481 4.000 0.204
73.4685 3.542 0.192
73.4890 3.396 0.188
73.5095 3.490 0.191
73.5299 3.854 0.200
73.5504 3.719 0.197
73.5708 3.563 0.193
73.5913 4.177 0.209
73.6118 4.125 0.207
73.6322 3.688 0.196
73.6527 3.479 0.190
73.6732 3.573 0.193
73.6936 3.417 0.189
73.7141 3.688 0.196
73.7346 3.531 0.192
73.7550 4.219 0.210
73.7755 3.844 0.200
73.7959 3.719 0.197
73.8164 4.177 0.209
73.8369 3.677 0.196
73.8573 3.281 0.185
73.8778 3.615 0.194
73.8983 3.802 0.199
73.9187 3.594 0.193
73.9392 4.281 0.211
73.9596 4.250 0.210
73.9801 3.865 0.201
74.0006 4.021 0.205
74.0210 3.958 0.203
74.0415 4.188 0.209
74.0620 4.094 0.207
74.0824 3.958 0.203
74.1029 3.875 0.201
74.1233 4.021 0.205
74.1438 3.823 0.200
74.1643 3.938 0.203
74.1847 4.021 0.205
74.2052 3.542 0.192
74.2257 3.740 0.197
74.2461 3.948 0.203
74.2666 3.979 0.204
74.2870 3.646 0.195
74.3075 3.927 0.202
74.3280 4.063 0.206
74.3484 3.677 0.196
74.3689 3.448 0.190
74.3894 3.771 0.198
74.4098 3.563 0.193
74.4303 3.500 0.191
74.4507 4.115 0.207
74.4712 3.531 0.192
74.4917 4.021 0.205
74.5121 3.438 0.189
74.5326 3.365 0.187
74.5531 3.708 0.197
74.5735 3.292 0.185
74.5940 3.542 0.192
74.6145 3.563 0.193
74.6349 3.635 0.195
74.6554 3.854 0.200
74.6758 3.948 0.203
74.6963 3.854 0.200
74.7168 3.521 0.192
74.7372 3.323 0.186
74.7577 3.698 0.196
74.7782 3.594 0.193
74.7986 3.594 0.193
74.8191 3.542 0.192
74.8395 3.365 0.187
74.8600 3.365 0.187
74.8805 3.135 0.181
74.9009 3.146 0.181
74.9214 4.031 0.205
74.9419 3.573 0.193
74.9623 3.583 0.193
74.9828 4.219 0.210
75.0032 3.583 0.193
75.0237 3.771 0.198
75.0442 3.667 0.195
75.0646 4.031 0.205
75.0851 3.729 0.197
75.1056 3.563 0.193
75.1260 3.604 0.194
75.1465 4.021 0.205
75.1669 3.469 0.190
75.1874 3.188 0.182
75.2079 3.667 0.195
75.2283 3.500 0.191
75.2488 3.802 0.199
75.2693 3.656 0.195
75.2897 3.760 0.198
75.3102 4.073 0.206
75.3306 3.823 0.200
75.3511 3.406 0.188
75.3716 4.167 0.208
75.3920 3.542 0.192
75.4125 3.479 0.190
75.4330 3.854 0.200
75.4534 3.833 0.200
75.4739 4.156 0.208
75.4944 4.063 0.206
75.5148 3.490 0.191
75.5353 4.219 0.210
75.5557 3.781 0.198
75.5762 3.750 0.198
75.5967 4.073 0.206
75.6171 3.792 0.199
75.6376 4.021 0.205
75.6581 3.990 0.204
75.6785 4.135 0.208
75.6990 3.865 0.201
75.7194 4.438 0.215
75.7399 4.500 0.217
75.7604 4.583 0.219
75.7808 4.677 0.221
75.8013 5.115 0.231
75.8218 4.802 0.224
75.8422 5.115 0.231
75.8627 4.865 0.225
75.8831 5.135 0.231
75.9036 4.656 0.220
75.9241 4.635 0.220
75.9445 4.594 0.219
75.9650 4.698 0.221
75.9855 4.927 0.227
76.0059 4.042 0.205
76.0264 4.583 0.219
76.0468 4.333 0.212
76.0673 4.281 0.211
76.0878 4.375 0.213
76.1082 4.250 0.210
76.1287 4.531 0.217
76.1492 4.438 0.215
76.1696 4.271 0.211
76.1901 3.667 0.195
76.2105 3.854 0.200
76.2310 3.990 0.204
76.2515 4.021 0.205
76.2719 3.948 0.203
76.2924 4.240 0.210
76.3129 3.708 0.197
76.3333 4.063 0.206
76.3538 4.135 0.208
76.3743 4.177 0.209
76.3947 3.677 0.196
76.4152 3.771 0.198
76.4356 3.906 0.202
76.4561 3.990 0.204
76.4766 4.042 0.205
76.4970 4.031 0.205
76.5175 3.708 0.197
76.5380 3.896 0.201
76.5584 4.073 0.206
76.5789 3.854 0.200
76.5993 3.552 0.192
76.6198 3.635 0.195
76.6403 4.021 0.205
76.6607 3.646 0.195
76.6812 3.740 0.197
76.7017 3.750 0.198
76.7221 3.844 0.200
76.7426 3.813 0.199
76.7630 4.031 0.205
76.7835 3.740 0.197
76.8040 3.302 0.185
76.8244 3.792 0.199
76.8449 4.063 0.206
76.8654 4.094 0.207
76.8858 3.583 0.193
76.9063 4.010 0.204
76.9267 3.542 0.192
76.9472 3.750 0.198
76.9677 4.146 0.208
76.9881 3.521 0.192
77.0086 3.854 0.200
77.0291 3.542 0.192
77.0495 4.021 0.205
77.0700 3.958 0.203
77.0905 3.573 0.193
77.1109 3.896 0.201
77.1314 3.958 0.203
77.1518 3.781 0.198
77.1723 3.771 0.198
77.1928 3.813 0.199
77.2132 3.677 0.196
77.2337 3.771 0.198
77.2542 4.125 0.207
77.2746 3.594 0.193
77.2951 3.802 0.199
77.3155 3.479 0.190
77.3360 3.698 0.196
77.3565 4.094 0.207
77.3769 3.719 0.197
77.3974 4.125 0.207
77.4179 3.969 0.203
77.4383 3.979 0.204
77.4588 4.167 0.208
77.4792 3.927 0.202
77.4997 4.438 0.215
77.5202 4.313 0.212
77.5406 4.271 0.211
77.5611 4.521 0.217
77.5816 4.188 0.209
77.6020 4.427 0.215
77.6225 4.177 0.209
77.6429 4.094 0.207
77.6634 4.156 0.208
77.6839 4.063 0.206
77.7043 4.010 0.204
77.7248 4.042 0.205
77.7453 4.552 0.218
77.7657 4.010 0.204
77.7862 4.240 0.210
77.8066 4.448 0.215
77.8271 4.323 0.212
77.8476 4.469 0.216
77.8680 4.188 0.209
77.8885 4.146 0.208
77.9090 4.229 0.210
77.9294 4.542 0.218
77.9499 4.125 0.207
77.9704 4.448 0.215
77.9908 3.729 0.197
78.0113 4.198 0.209
78.0317 4.042 0.205
78.0522 3.781 0.198
78.0727 4.156 0.208
78.0931 4.177 0.209
78.1136 4.208 0.209
78.1341 3.656 0.195
78.1545 3.760 0.198
78.1750 3.438 0.189
78.1954 4.229 0.210
78.2159 3.906 0.202
78.2364 4.021 0.205
78.2568 3.896 0.201
78.2773 3.750 0.198
78.2978 4.250 0.210
78.3182 3.458 0.190
78.3387 4.156 0.208
78.3591 4.063 0.206
78.3796 3.792 0.199
78.4001 3.875 0.201
78.4205 3.990 0.204
78.4410 4.167 0.208
78.4615 3.646 0.195
78.4819 3.823 0.200
78.5024 4.031 0.205
78.5228 4.104 0.207
78.5433 3.823 0.200
78.5638 4.115 0.207
78.5842 3.938 0.203
78.6047 3.844 0.200
78.6252 3.927 0.202
78.6456 3.719 0.197
78.6661 4.042 0.205
78.6865 4.448 0.215
78.7070 3.677 0.196
78.7275 3.917 0.202
78.7479 3.552 0.192
78.7684 3.646 0.195
78.7889 3.781 0.198
78.8093 4.021 0.205
78.8298 4.188 0.209
78.8503 4.010 0.204
78.8707 3.823 0.200
78.8912 3.927 0.202
78.9116 3.708 0.197
78.9321 4.094 0.207
78.9526 3.802 0.199
78.9730 3.583 0.193
78.9935 3.750 0.198
79.0140 3.719 0.197
79.0344 3.875 0.201
79.0549 3.854 0.200
79.0753 3.750 0.198
79.0958 3.542 0.192
79.1163 3.948 0.203
79.1367 3.375 0.188
79.1572 3.833 0.200
79.1777 3.771 0.198
79.1981 3.865 0.201
79.2186 3.667 0.195
79.2390 3.885 0.201
79.2595 3.896 0.201
79.2800 3.958 0.203
79.3004 3.385 0.188
79.3209 3.896 0.201
79.3414 3.802 0.199
79.3618 3.938 0.203
79.3823 3.646 0.195
79.4027 3.979 0.204
79.4232 3.896 0.201
79.4437 3.708 0.197
79.4641 3.802 0.199
79.4846 3.906 0.202
79.5051 3.760 0.198
79.5255 4.229 0.210
79.5460 4.313 0.212
79.5664 4.563 0.218
79.5869 3.760 0.198
79.6074 4.240 0.210
79.6278 4.302 0.212
79.6483 3.896 0.201
79.6688 3.896 0.201
79.6892 4.052 0.205
79.7097 3.938 0.203
79.7302 3.917 0.202
79.7506 4.010 0.204
79.7711 4.208 0.209
79.7915 4.354 0.213
79.8120 4.146 0.208
79.8325 3.854 0.200
79.8529 3.688 0.196
79.8734 4.094 0.207
79.8939 3.792 0.199
79.9143 3.583 0.193
79.9348 3.885 0.201
79.9552 3.885 0.201
79.9757 3.740 0.197
79.9962 3.844 0.200
