'Id: "" Comment: "" Operator: "Lab Manager" Anode: "Cu" Scantype: "Locked Coupled" TimePerStep: "96" X: "0" Y: "0" Z: "0" 
5.0000 25.844 0.519
5.0205 25.406 0.514
5.0409 26.010 0.521
5.0614 25.417 0.515
5.0819 25.854 0.519
5.1023 25.667 0.517
5.1228 26.135 0.522
5.1432 25.635 0.517
5.1637 24.635 0.507
5.1842 25.385 0.514
5.2046 25.094 0.511
5.2251 24.948 0.510
5.2456 26.115 0.522
5.2660 25.094 0.511
5.2865 25.500 0.515
5.3069 25.490 0.515
5.3274 25.500 0.515
5.3479 24.521 0.505
5.3683 25.323 0.514
5.3888 24.729 0.508
5.4093 24.896 0.509
5.4297 25.510 0.515
5.4502 25.177 0.512
5.4706 25.104 0.511
5.4911 24.094 0.501
5.5116 23.990 0.500
5.5320 26.177 0.522
5.5525 24.594 0.506
5.5730 24.479 0.505
5.5934 25.156 0.512
5.6139 25.385 0.514
5.6343 23.854 0.498
5.6548 23.229 0.492
5.6753 24.510 0.505
5.6957 23.583 0.496
5.7162 24.688 0.507
5.7367 23.958 0.500
5.7571 24.365 0.504
5.7776 23.635 0.496
5.7980 24.177 0.502
5.8185 23.417 0.494
5.8390 23.771 0.498
5.8594 24.073 0.501
5.8799 24.333 0.503
5.9004 22.906 0.488
5.9208 23.646 0.496
5.9413 23.615 0.496
5.9618 24.375 0.504
5.9822 23.656 0.496
6.0027 23.677 0.497
6.0231 23.229 0.492
6.0436 23.688 0.497
6.0641 22.938 0.489
6.0845 23.427 0.494
6.1050 23.781 0.498
6.1255 24.604 0.506
6.1459 23.708 0.497
6.1664 22.219 0.481
6.1868 23.510 0.495
6.2073 24.094 0.501
6.2278 22.958 0.489
6.2482 23.458 0.494
6.2687 23.656 0.496
6.2892 23.927 0.499
6.3096 22.635 0.486
6.3301 22.479 0.484
6.3505 23.906 0.499
6.3710 23.792 0.498
6.3915 22.563 0.485
6.4119 23.052 0.490
6.4324 22.583 0.485
6.4529 22.938 0.489
6.4733 23.406 0.494
6.4938 23.031 0.490
6.5142 23.302 0.493
6.5347 22.719 0.486
6.5552 23.604 0.496
6.5756 24.094 0.501
6.5961 23.333 0.493
6.6166 24.167 0.502
6.6370 22.573 0.485
6.6575 22.510 0.484
6.6779 21.958 0.478
6.6984 22.938 0.489
6.7189 23.010 0.490
6.7393 22.646 0.486
6.7598 23.052 0.490
6.7803 23.000 0.489
6.8007 22.500 0.484
6.8212 23.625 0.496
6.8417 23.021 0.490
6.8621 23.417 0.494
6.8826 22.594 0.485
6.9030 23.021 0.490
6.9235 23.417 0.494
6.9440 24.010 0.500
6.9644 22.365 0.483
6.9849 22.198 0.481
7.0054 23.188 0.491
7.0258 23.208 0.492
7.0463 22.271 0.482
7.0667 23.125 0.491
7.0872 22.948 0.489
7.1077 22.969 0.489
7.1281 23.958 0.500
7.1486 23.156 0.491
7.1691 23.667 0.497
7.1895 22.625 0.485
7.2100 23.042 0.490
7.2304 22.667 0.486
7.2509 22.844 0.488
7.2714 22.813 0.487
7.2918 23.719 0.497
7.3123 23.094 0.490
7.3328 23.167 0.491
7.3532 23.260 0.492
7.3737 22.417 0.483
7.3941 22.115 0.480
7.4146 23.583 0.496
7.4351 23.365 0.493
7.4555 23.052 0.490
7.4760 23.813 0.498
7.4965 22.563 0.485
7.5169 23.646 0.496
7.5374 23.948 0.499
7.5579 23.229 0.492
7.5783 23.229 0.492
7.5988 22.823 0.488
7.6192 23.208 0.492
7.6397 23.292 0.493
7.6602 22.865 0.488
7.6806 22.677 0.486
7.7011 23.490 0.495
7.7216 23.271 0.492
7.7420 23.479 0.495
7.7625 23.698 0.497
7.7829 23.000 0.489
7.8034 24.073 0.501
7.8239 22.250 0.481
7.8443 22.917 0.489
7.8648 23.375 0.493
7.8853 23.552 0.495
7.9057 22.688 0.486
7.9262 23.552 0.495
7.9466 23.250 0.492
7.9671 24.677 0.507
7.9876 23.688 0.497
8.0080 23.458 0.494
8.0285 23.542 0.495
8.0490 23.740 0.497
8.0694 23.167 0.491
8.0899 22.833 0.488
8.1103 24.240 0.502
8.1308 23.615 0.496
8.1513 23.021 0.490
8.1717 23.719 0.497
8.1922 24.188 0.502
8.2127 23.281 0.492
8.2331 23.635 0.496
8.2536 23.302 0.493
8.2740 23.323 0.493
8.2945 24.052 0.501
8.3150 23.042 0.490
8.3354 22.927 0.489
8.3559 23.240 0.492
8.3764 23.104 0.491
8.3968 23.083 0.490
8.4173 23.656 0.496
8.4378 22.781 0.487
8.4582 23.719 0.497
8.4787 23.667 0.497
8.4991 23.823 0.498
8.5196 23.771 0.498
8.5401 23.177 0.491
8.5605 23.906 0.499
8.5810 22.531 0.484
8.6015 23.271 0.492
8.6219 22.615 0.485
8.6424 23.333 0.493
8.6628 23.573 0.496
8.6833 23.594 0.496
8.7038 22.938 0.489
8.7242 23.469 0.494
8.7447 23.885 0.499
8.7652 24.250 0.503
8.7856 22.823 0.488
8.8061 24.104 0.501
8.8265 24.073 0.501
8.8470 24.781 0.508
8.8675 25.583 0.516
8.8879 26.104 0.521
8.9084 25.740 0.518
8.9289 24.729 0.508
8.9493 25.313 0.513
8.9698 24.479 0.505
8.9902 25.250 0.513
9.0107 27.052 0.531
9.0312 28.010 0.540
9.0516 30.938 0.568
9.0721 30.354 0.562
9.0926 28.635 0.546
9.1130 25.667 0.517
9.1335 24.854 0.509
9.1539 25.000 0.510
9.1744 24.875 0.509
9.1949 24.333 0.503
9.2153 25.198 0.512
9.2358 26.302 0.523
9.2563 26.385 0.524
9.2767 25.135 0.512
9.2972 24.781 0.508
9.3177 25.667 0.517
9.3381 26.156 0.522
9.3586 26.021 0.521
9.3790 26.344 0.524
9.3995 26.094 0.521
9.4200 27.167 0.532
9.4404 26.781 0.528
9.4609 28.813 0.548
9.4814 29.531 0.555
9.5018 32.354 0.581
9.5223 34.729 0.601
9.5427 36.667 0.618
9.5632 39.635 0.643
9.5837 42.396 0.665
9.6041 45.177 0.686
9.6246 48.115 0.708
9.6451 53.333 0.745
9.6655 58.031 0.777
9.6860 64.969 0.823
9.7064 78.844 0.906
9.7269 97.854 1.010
9.7474 130.542 1.166
9.7678 188.771 1.402
9.7883 278.073 1.702
9.8088 425.729 2.106
9.8292 652.052 2.606
9.8497 866.250 3.004
9.8701 718.604 2.736
9.8906 397.010 2.034
9.9111 166.292 1.316
9.9315 82.677 0.928
9.9520 54.552 0.754
9.9725 48.573 0.711
9.9929 45.813 0.691
10.0134 43.021 0.669
10.0338 41.469 0.657
10.0543 40.729 0.651
10.0748 38.135 0.630
10.0952 35.438 0.608
10.1157 31.458 0.572
10.1362 30.063 0.560
10.1566 28.010 0.540
10.1771 27.719 0.537
10.1976 27.458 0.535
10.2180 27.469 0.535
10.2385 26.635 0.527
10.2589 26.469 0.525
10.2794 26.917 0.530
10.2999 26.042 0.521
10.3203 25.385 0.514
10.3408 26.271 0.523
10.3613 25.760 0.518
10.3817 25.719 0.518
10.4022 24.510 0.505
10.4226 26.365 0.524
10.4431 24.177 0.502
10.4636 24.740 0.508
10.4840 24.344 0.504
10.5045 23.948 0.499
10.5250 24.667 0.507
10.5454 24.219 0.502
10.5659 25.073 0.511
10.5863 24.115 0.501
10.6068 24.031 0.500
10.6273 23.896 0.499
10.6477 23.500 0.495
10.6682 23.906 0.499
10.6887 23.896 0.499
10.7091 24.177 0.502
10.7296 24.073 0.501
10.7500 23.646 0.496
10.7705 24.146 0.502
10.7910 23.219 0.492
10.8114 22.865 0.488
10.8319 22.500 0.484
10.8524 23.094 0.490
10.8728 22.792 0.487
10.8933 23.000 0.489
10.9137 22.135 0.480
10.9342 22.771 0.487
10.9547 22.573 0.485
10.9751 21.896 0.478
10.9956 23.229 0.492
11.0161 21.031 0.468
11.0365 21.885 0.477
11.0570 21.958 0.478
11.0775 20.896 0.467
11.0979 20.708 0.464
11.1184 22.417 0.483
11.1388 21.292 0.471
11.1593 21.156 0.469
11.1798 21.146 0.469
11.2002 21.490 0.473
11.2207 21.188 0.470
11.2412 20.385 0.461
11.2616 21.365 0.472
11.2821 21.083 0.469
11.3025 20.177 0.458
11.3230 20.177 0.458
11.3435 20.302 0.460
11.3639 20.563 0.463
11.3844 20.219 0.459
11.4049 20.531 0.462
11.4253 19.729 0.453
11.4458 20.615 0.463
11.4662 19.458 0.450
11.4867 20.281 0.460
11.5072 19.135 0.446
11.5276 20.167 0.458
11.5481 19.240 0.448
11.5686 19.927 0.456
11.5890 19.875 0.455
11.6095 19.417 0.450
11.6299 19.542 0.451
11.6504 19.479 0.450
11.6709 18.396 0.438
11.6913 18.750 0.442
11.7118 18.490 0.439
11.7323 18.844 0.443
11.7527 18.948 0.444
11.7732 17.406 0.426
11.7937 18.521 0.439
11.8141 18.438 0.438
11.8346 18.104 0.434
11.8550 17.667 0.429
11.8755 18.052 0.434
11.8960 17.865 0.431
11.9164 17.604 0.428
11.9369 17.240 0.424
11.9574 17.531 0.427
11.9778 17.448 0.426
11.9983 16.708 0.417
12.0187 17.625 0.428
12.0392 17.240 0.424
12.0597 17.333 0.425
12.0801 17.729 0.430
12.1006 18.229 0.436
12.1211 17.365 0.425
12.1415 16.792 0.418
12.1620 16.844 0.419
12.1824 16.760 0.418
12.2029 17.208 0.423
12.2234 16.917 0.420
12.2438 16.438 0.414
12.2643 16.792 0.418
12.2848 17.271 0.424
12.3052 17.750 0.430
12.3257 15.802 0.406
12.3461 16.792 0.418
12.3666 16.281 0.412
12.3871 17.104 0.422
12.4075 15.385 0.400
12.4280 16.250 0.411
12.4485 16.583 0.416
12.4689 16.146 0.410
12.4894 15.958 0.408
12.5098 15.948 0.408
12.5303 15.719 0.405
12.5508 15.729 0.405
12.5712 15.958 0.408
12.5917 15.750 0.405
12.6122 15.344 0.400
12.6326 15.990 0.408
12.6531 15.792 0.406
12.6736 14.760 0.392
12.6940 15.406 0.401
12.7145 15.104 0.397
12.7349 14.427 0.388
12.7554 14.885 0.394
12.7759 15.771 0.405
12.7963 15.969 0.408
12.8168 16.229 0.411
12.8373 15.292 0.399
12.8577 15.302 0.399
12.8782 15.063 0.396
12.8986 15.625 0.403
12.9191 14.885 0.394
12.9396 15.240 0.398
12.9600 15.219 0.398
12.9805 15.365 0.400
13.0010 14.875 0.394
13.0214 15.563 0.403
13.0419 15.438 0.401
13.0623 15.688 0.404
13.0828 15.167 0.397
13.1033 16.229 0.411
13.1237 16.135 0.410
13.1442 15.375 0.400
13.1647 15.781 0.405
13.1851 15.604 0.403
13.2056 15.000 0.395
13.2260 15.531 0.402
13.2465 16.125 0.410
13.2670 16.167 0.410
13.2874 15.813 0.406
13.3079 16.427 0.414
13.3284 16.167 0.410
13.3488 16.771 0.418
13.3693 17.240 0.424
13.3897 15.948 0.408
13.4102 15.708 0.405
13.4307 16.094 0.409
13.4511 16.615 0.416
13.4716 16.698 0.417
13.4921 17.052 0.421
13.5125 17.135 0.422
13.5330 16.958 0.420
13.5535 16.667 0.417
13.5739 17.510 0.427
13.5944 17.229 0.424
13.6148 17.708 0.429
13.6353 18.323 0.437
13.6558 17.792 0.430
13.6762 18.708 0.441
13.6967 17.729 0.430
13.7172 18.656 0.441
13.7376 19.083 0.446
13.7581 18.958 0.444
13.7785 18.958 0.444
13.7990 19.885 0.455
13.8195 18.760 0.442
13.8399 19.250 0.448
13.8604 19.635 0.452
13.8809 19.250 0.448
13.9013 19.146 0.447
13.9218 20.302 0.460
13.9422 20.083 0.457
13.9627 20.698 0.464
13.9832 20.083 0.457
14.0036 22.594 0.485
14.0241 21.302 0.471
14.0446 21.479 0.473
14.0650 21.948 0.478
14.0855 22.125 0.480
14.1059 21.375 0.472
14.1264 21.760 0.476
14.1469 22.385 0.483
14.1673 21.146 0.469
14.1878 22.271 0.482
14.2083 21.802 0.477
14.2287 22.167 0.481
14.2492 22.385 0.483
14.2696 21.729 0.476
14.2901 22.073 0.480
14.3106 22.677 0.486
14.3310 21.573 0.474
14.3515 22.781 0.487
14.3720 23.115 0.491
14.3924 22.240 0.481
14.4129 22.948 0.489
14.4334 22.156 0.480
14.4538 21.927 0.478
14.4743 22.198 0.481
14.4947 21.729 0.476
14.5152 22.063 0.479
14.5357 21.625 0.475
14.5561 23.042 0.490
14.5766 21.167 0.470
14.5971 20.802 0.465
14.6175 19.958 0.456
14.6380 20.708 0.464
14.6584 20.802 0.465
14.6789 19.813 0.454
14.6994 20.646 0.464
14.7198 20.010 0.457
14.7403 19.948 0.456
14.7608 19.938 0.456
14.7812 20.240 0.459
14.8017 19.927 0.456
14.8221 19.208 0.447
14.8426 18.542 0.439
14.8631 18.844 0.443
14.8835 18.510 0.439
14.9040 18.229 0.436
14.9245 17.646 0.429
14.9449 17.969 0.433
14.9654 17.156 0.423
14.9858 17.531 0.427
15.0063 16.844 0.419
15.0268 17.063 0.422
15.0472 16.083 0.409
15.0677 15.563 0.403
15.0882 15.979 0.408
15.1086 15.729 0.405
15.1291 15.177 0.398
15.1495 15.198 0.398
15.1700 14.844 0.393
15.1905 15.938 0.407
15.2109 15.823 0.406
15.2314 15.271 0.399
15.2519 14.417 0.388
15.2723 14.698 0.391
15.2928 14.927 0.394
15.3133 14.052 0.383
15.3337 13.656 0.377
15.3542 13.771 0.379
15.3746 14.365 0.387
15.3951 13.750 0.378
15.4156 13.667 0.377
15.4360 12.917 0.367
15.4565 13.177 0.370
15.4770 13.333 0.373
15.4974 13.396 0.374
15.5179 12.896 0.367
15.5383 12.688 0.364
15.5588 12.625 0.363
15.5793 12.500 0.361
15.5997 12.563 0.362
15.6202 12.917 0.367
15.6407 13.063 0.369
15.6611 13.198 0.371
15.6816 13.167 0.370
15.7020 13.615 0.377
15.7225 15.781 0.405
15.7430 16.271 0.412
15.7634 15.104 0.397
15.7839 13.260 0.372
15.8044 12.583 0.362
15.8248 11.917 0.352
15.8453 11.052 0.339
15.8657 11.510 0.346
15.8862 11.854 0.351
15.9067 11.906 0.352
15.9271 11.240 0.342
15.9476 11.958 0.353
15.9681 11.333 0.344
15.9885 10.844 0.336
16.0090 11.583 0.347
16.0295 11.292 0.343
16.0499 11.521 0.346
16.0704 10.760 0.335
16.0908 11.010 0.339
16.1113 10.469 0.330
16.1318 10.781 0.335
16.1522 10.813 0.336
16.1727 10.771 0.335
16.1932 11.271 0.343
16.2136 11.000 0.339
16.2341 10.292 0.327
16.2545 11.604 0.348
16.2750 10.896 0.337
16.2955 10.438 0.330
16.3159 10.729 0.334
16.3364 10.094 0.324
16.3569 10.260 0.327
16.3773 10.458 0.330
16.3978 10.521 0.331
16.4182 10.646 0.333
16.4387 10.885 0.337
16.4592 10.010 0.323
16.4796 9.958 0.322
16.5001 10.490 0.331
16.5206 10.646 0.333
16.5410 10.646 0.333
16.5615 10.302 0.328
16.5819 9.802 0.320
16.6024 9.948 0.322
16.6229 9.896 0.321
16.6433 10.010 0.323
16.6638 10.354 0.328
16.6843 9.906 0.321
16.7047 10.396 0.329
16.7252 10.083 0.324
16.7456 10.354 0.328
16.7661 9.677 0.317
16.7866 10.063 0.324
16.8070 10.125 0.325
16.8275 10.365 0.329
16.8480 10.375 0.329
16.8684 10.167 0.325
16.8889 9.833 0.320
16.9094 10.083 0.324
16.9298 10.979 0.338
16.9503 10.458 0.330
16.9707 10.188 0.326
16.9912 10.875 0.337
17.0117 10.771 0.335
17.0321 10.240 0.327
17.0526 10.104 0.324
17.0731 11.000 0.339
17.0935 10.240 0.327
17.1140 10.417 0.329
17.1344 10.531 0.331
17.1549 10.625 0.333
17.1754 11.167 0.341
17.1958 10.438 0.330
17.2163 10.604 0.332
17.2368 11.323 0.343
17.2572 11.083 0.340
17.2777 11.969 0.353
17.2981 12.313 0.358
17.3186 13.740 0.378
17.3391 13.844 0.380
17.3595 16.563 0.415
17.3800 19.781 0.454
17.4005 23.615 0.496
17.4209 27.271 0.533
17.4414 31.344 0.571
17.4618 34.354 0.598
17.4823 36.375 0.616
17.5028 35.406 0.607
17.5232 30.656 0.565
17.5437 25.500 0.515
17.5642 19.146 0.447
17.5846 15.156 0.397
17.6051 12.677 0.363
17.6255 11.615 0.348
17.6460 11.552 0.347
17.6665 11.083 0.340
17.6869 10.667 0.333
17.7074 11.271 0.343
17.7279 10.833 0.336
17.7483 10.563 0.332
17.7688 11.313 0.343
17.7893 10.281 0.327
17.8097 10.833 0.336
17.8302 11.260 0.342
17.8506 11.385 0.344
17.8711 9.969 0.322
17.8916 10.594 0.332
17.9120 10.698 0.334
17.9325 9.938 0.322
17.9530 10.406 0.329
17.9734 11.292 0.343
17.9939 11.854 0.351
18.0143 13.417 0.374
18.0348 14.729 0.392
18.0553 14.302 0.386
18.0757 13.948 0.381
18.0962 12.729 0.364
18.1167 11.135 0.341
18.1371 10.448 0.330
18.1576 10.406 0.329
18.1780 10.385 0.329
18.1985 10.292 0.327
18.2190 10.656 0.333
18.2394 10.344 0.328
18.2599 10.417 0.329
18.2804 9.563 0.316
18.3008 9.854 0.320
18.3213 9.240 0.310
18.3417 9.708 0.318
18.3622 9.531 0.315
18.3827 9.510 0.315
18.4031 9.583 0.316
18.4236 9.510 0.315
18.4441 9.521 0.315
18.4645 9.125 0.308
18.4850 10.115 0.325
18.5054 10.104 0.324
18.5259 9.865 0.321
18.5464 9.802 0.320
18.5668 9.823 0.320
18.5873 10.573 0.332
18.6078 9.521 0.315
18.6282 9.573 0.316
18.6487 9.719 0.318
18.6692 9.875 0.321
18.6896 9.979 0.322
18.7101 9.635 0.317
18.7305 9.531 0.315
18.7510 9.865 0.321
18.7715 9.521 0.315
18.7919 9.958 0.322
18.8124 10.646 0.333
18.8329 11.760 0.350
18.8533 11.302 0.343
18.8738 11.031 0.339
18.8942 10.521 0.331
18.9147 10.073 0.324
18.9352 10.896 0.337
18.9556 10.115 0.325
18.9761 9.865 0.321
18.9966 10.271 0.327
19.0170 10.490 0.331
19.0375 10.344 0.328
19.0579 9.781 0.319
19.0784 9.677 0.317
19.0989 10.344 0.328
19.1193 10.813 0.336
19.1398 10.635 0.333
19.1603 10.302 0.328
19.1807 10.292 0.327
19.2012 10.719 0.334
19.2216 11.063 0.339
19.2421 11.313 0.343
19.2626 10.677 0.333
19.2830 10.688 0.334
19.3035 10.677 0.333
19.3240 11.698 0.349
19.3444 11.406 0.345
19.3649 11.000 0.339
19.3853 11.188 0.341
19.4058 11.656 0.348
19.4263 12.146 0.356
19.4467 11.823 0.351
19.4672 12.677 0.363
19.4877 13.042 0.369
19.5081 13.979 0.382
19.5286 14.813 0.393
19.5491 16.354 0.413
19.5695 16.063 0.409
19.5900 17.135 0.422
19.6104 17.896 0.432
19.6309 20.333 0.460
19.6514 22.250 0.481
19.6718 26.469 0.525
19.6923 35.500 0.608
19.7128 49.875 0.721
19.7332 78.510 0.904
19.7537 135.542 1.188
19.7741 223.656 1.526
19.7946 269.104 1.674
19.8151 196.708 1.431
19.8355 154.729 1.270
19.8560 107.250 1.057
19.8765 48.125 0.708
19.8969 26.781 0.528
19.9174 22.073 0.480
19.9378 19.125 0.446
19.9583 17.000 0.421
19.9788 17.063 0.422
19.9992 15.833 0.406
20.0197 16.073 0.409
20.0402 15.469 0.401
20.0606 14.708 0.391
20.0811 15.313 0.399
20.1015 16.031 0.409
20.1220 17.000 0.421
20.1425 19.865 0.455
20.1629 20.573 0.463
20.1834 22.021 0.479
20.2039 23.240 0.492
20.2243 22.917 0.489
20.2448 23.896 0.499
20.2653 21.302 0.471
20.2857 17.406 0.426
20.3062 15.229 0.398
20.3266 13.375 0.373
20.3471 11.708 0.349
20.3676 11.698 0.349
20.3880 10.427 0.330
20.4085 9.906 0.321
20.4290 10.708 0.334
20.4494 10.271 0.327
20.4699 10.063 0.324
20.4903 10.354 0.328
20.5108 9.917 0.321
20.5313 9.344 0.312
20.5517 9.396 0.313
20.5722 9.604 0.316
20.5927 9.719 0.318
20.6131 9.344 0.312
20.6336 9.448 0.314
20.6540 9.573 0.316
20.6745 9.333 0.312
20.6950 9.323 0.312
20.7154 8.958 0.305
20.7359 9.198 0.310
20.7564 8.885 0.304
20.7768 9.104 0.308
20.7973 9.198 0.310
20.8177 9.406 0.313
20.8382 9.198 0.310
20.8587 9.375 0.313
20.8791 9.115 0.308
20.8996 9.073 0.307
20.9201 8.656 0.300
20.9405 9.396 0.313
20.9610 9.354 0.312
20.9814 9.271 0.311
21.0019 9.021 0.307
21.0224 8.885 0.304
21.0428 9.302 0.311
21.0633 9.302 0.311
21.0838 9.427 0.313
21.1042 9.094 0.308
21.1247 9.615 0.316
21.1452 9.229 0.310
21.1656 8.938 0.305
21.1861 9.177 0.309
21.2065 9.313 0.311
21.2270 9.365 0.312
21.2475 9.073 0.307
21.2679 9.750 0.319
21.2884 9.302 0.311
21.3089 8.833 0.303
21.3293 9.115 0.308
21.3498 8.760 0.302
21.3702 9.167 0.309
21.3907 9.073 0.307
21.4112 8.729 0.302
21.4316 9.188 0.309
21.4521 9.010 0.306
21.4726 9.052 0.307
21.4930 9.750 0.319
21.5135 9.063 0.307
21.5339 9.146 0.309
21.5544 9.302 0.311
21.5749 8.771 0.302
21.5953 9.969 0.322
21.6158 10.083 0.324
21.6363 9.219 0.310
21.6567 9.146 0.309
21.6772 9.833 0.320
21.6976 8.500 0.298
21.7181 9.063 0.307
21.7386 9.688 0.318
21.7590 9.021 0.307
21.7795 9.573 0.316
21.8000 9.573 0.316
21.8204 9.760 0.319
21.8409 9.375 0.313
21.8613 9.927 0.322
21.8818 10.313 0.328
21.9023 10.417 0.329
21.9227 10.417 0.329
21.9432 11.354 0.344
21.9637 10.625 0.333
21.9841 11.542 0.347
22.0046 11.729 0.350
22.0251 13.135 0.370
22.0455 14.458 0.388
22.0660 16.833 0.419
22.0864 22.938 0.489
22.1069 33.615 0.592
22.1274 49.990 0.722
22.1478 68.271 0.843
22.1683 63.729 0.815
22.1888 49.417 0.717
22.2092 43.375 0.672
22.2297 32.073 0.578
22.2501 20.063 0.457
22.2706 15.667 0.404
22.2911 13.531 0.375
22.3115 12.750 0.364
22.3320 11.781 0.350
22.3525 12.000 0.354
22.3729 11.188 0.341
22.3934 10.260 0.327
22.4138 10.281 0.327
22.4343 9.813 0.320
22.4548 9.469 0.314
22.4752 9.271 0.311
22.4957 9.219 0.310
22.5162 9.167 0.309
22.5366 8.927 0.305
22.5571 9.573 0.316
22.5775 8.552 0.298
22.5980 9.688 0.318
22.6185 8.990 0.306
22.6389 9.385 0.313
22.6594 8.615 0.300
22.6799 9.125 0.308
22.7003 9.115 0.308
22.7208 8.833 0.303
22.7412 8.469 0.297
22.7617 9.448 0.314
22.7822 9.719 0.318
22.8026 9.552 0.315
22.8231 10.156 0.325
22.8436 11.125 0.340
22.8640 11.740 0.350
22.8845 12.052 0.354
22.9050 10.563 0.332
22.9254 10.177 0.326
22.9459 9.938 0.322
22.9663 9.771 0.319
22.9868 8.958 0.305
23.0073 9.521 0.315
23.0277 9.125 0.308
23.0482 8.573 0.299
23.0687 9.260 0.311
23.0891 9.260 0.311
23.1096 8.885 0.304
23.1300 9.208 0.310
23.1505 8.615 0.300
23.1710 9.448 0.314
23.1914 8.333 0.295
23.2119 8.906 0.305
23.2324 8.688 0.301
23.2528 9.104 0.308
23.2733 8.469 0.297
23.2937 8.625 0.300
23.3142 8.479 0.297
23.3347 9.135 0.308
23.3551 8.604 0.299
23.3756 8.260 0.293
23.3961 8.844 0.304
23.4165 8.250 0.293
23.4370 8.854 0.304
23.4574 9.427 0.313
23.4779 8.625 0.300
23.4984 8.281 0.294
23.5188 8.167 0.292
23.5393 8.667 0.300
23.5598 8.406 0.296
23.5802 9.000 0.306
23.6007 8.771 0.302
23.6211 8.188 0.292
23.6416 8.927 0.305
23.6621 8.698 0.301
23.6825 8.292 0.294
23.7030 8.792 0.303
23.7235 9.073 0.307
23.7439 8.250 0.293
23.7644 8.625 0.300
23.7849 8.531 0.298
23.8053 8.125 0.291
23.8258 8.229 0.293
23.8462 8.375 0.295
23.8667 8.969 0.306
23.8872 8.594 0.299
23.9076 8.313 0.294
23.9281 8.833 0.303
23.9486 8.646 0.300
23.9690 8.667 0.300
23.9895 8.635 0.300
24.0099 9.188 0.309
24.0304 9.563 0.316
24.0509 8.844 0.304
24.0713 9.688 0.318
24.0918 8.875 0.304
24.1123 9.104 0.308
24.1327 9.135 0.308
24.1532 9.302 0.311
24.1736 9.458 0.314
24.1941 9.781 0.319
24.2146 9.563 0.316
24.2350 11.375 0.344
24.2555 11.375 0.344
24.2760 13.281 0.372
24.2964 15.073 0.396
24.3169 13.813 0.379
24.3373 12.479 0.361
24.3578 12.177 0.356
24.3783 10.969 0.338
24.3987 10.260 0.327
24.4192 9.365 0.312
24.4397 8.469 0.297
24.4601 9.063 0.307
24.4806 9.750 0.319
24.5011 9.021 0.307
24.5215 8.375 0.295
24.5420 8.552 0.298
24.5624 8.052 0.290
24.5829 8.833 0.303
24.6034 9.177 0.309
24.6238 8.885 0.304
24.6443 9.302 0.311
24.6648 9.313 0.311
24.6852 8.958 0.305
24.7057 8.906 0.305
24.7261 9.104 0.308
24.7466 9.021 0.307
24.7671 8.458 0.297
24.7875 9.240 0.310
24.8080 8.844 0.304
24.8285 8.917 0.305
24.8489 8.917 0.305
24.8694 8.813 0.303
24.8898 8.365 0.295
24.9103 8.708 0.301
24.9308 8.240 0.293
24.9512 8.458 0.297
24.9717 8.479 0.297
24.9922 8.667 0.300
25.0126 8.948 0.305
25.0331 8.583 0.299
25.0535 9.083 0.308
25.0740 8.604 0.299
25.0945 9.135 0.308
25.1149 9.073 0.307
25.1354 9.563 0.316
25.1559 9.729 0.318
25.1763 10.969 0.338
25.1968 11.365 0.344
25.2172 11.604 0.348
25.2377 12.177 0.356
25.2582 13.125 0.370
25.2786 13.667 0.377
25.2991 13.979 0.382
25.3196 14.594 0.390
25.3400 22.615 0.485
25.3605 32.021 0.578
25.3810 36.146 0.614
25.4014 42.458 0.665
25.4219 40.698 0.651
25.4423 54.938 0.756
25.4628 48.760 0.713
25.4833 27.990 0.540
25.5037 28.833 0.548
25.5242 24.615 0.506
25.5447 15.927 0.407
25.5651 12.333 0.358
25.5856 10.844 0.336
25.6060 11.073 0.340
25.6265 10.229 0.326
25.6470 9.833 0.320
25.6674 9.865 0.321
25.6879 9.365 0.312
25.7084 9.156 0.309
25.7288 9.177 0.309
25.7493 8.396 0.296
25.7697 8.417 0.296
25.7902 8.719 0.301
25.8107 8.688 0.301
25.8311 8.240 0.293
25.8516 8.646 0.300
25.8721 8.646 0.300
25.8925 8.656 0.300
25.9130 9.177 0.309
25.9334 8.604 0.299
25.9539 8.531 0.298
25.9744 8.406 0.296
25.9948 8.281 0.294
26.0153 8.521 0.298
26.0358 8.531 0.298
26.0562 8.365 0.295
26.0767 8.115 0.291
26.0971 8.438 0.296
26.1176 8.656 0.300
26.1381 9.438 0.314
26.1585 8.656 0.300
26.1790 8.906 0.305
26.1995 8.344 0.295
26.2199 8.146 0.291
26.2404 8.427 0.296
26.2609 7.865 0.286
26.2813 8.479 0.297
26.3018 8.427 0.296
26.3222 8.708 0.301
26.3427 8.188 0.292
26.3632 8.417 0.296
26.3836 8.115 0.291
26.4041 9.010 0.306
26.4246 8.125 0.291
26.4450 8.427 0.296
26.4655 8.594 0.299
26.4859 9.115 0.308
26.5064 9.167 0.309
26.5269 8.875 0.304
26.5473 8.729 0.302
26.5678 8.948 0.305
26.5883 8.781 0.302
26.6087 9.771 0.319
26.6292 9.604 0.316
26.6496 10.156 0.325
26.6701 10.531 0.331
26.6906 11.583 0.347
26.7110 11.604 0.348
26.7315 12.729 0.364
26.7520 12.958 0.367
26.7724 15.000 0.395
26.7929 15.760 0.405
26.8133 16.677 0.417
26.8338 16.979 0.421
26.8543 17.552 0.428
26.8747 18.323 0.437
26.8952 17.240 0.424
26.9157 16.427 0.414
26.9361 15.615 0.403
26.9566 13.365 0.373
26.9770 12.125 0.355
26.9975 11.875 0.352
27.0180 10.042 0.323
27.0384 10.156 0.325
27.0589 9.625 0.317
27.0794 9.500 0.315
27.0998 9.552 0.315
27.1203 9.146 0.309
27.1408 9.083 0.308
27.1612 9.396 0.313
27.1817 8.875 0.304
27.2021 9.260 0.311
27.2226 9.438 0.314
27.2431 9.396 0.313
27.2635 9.667 0.317
27.2840 9.323 0.312
27.3045 10.042 0.323
27.3249 9.917 0.321
27.3454 9.719 0.318
27.3658 9.667 0.317
27.3863 9.771 0.319
27.4068 9.969 0.322
27.4272 10.646 0.333
27.4477 11.021 0.339
27.4682 10.750 0.335
27.4886 10.708 0.334
27.5091 10.802 0.335
27.5295 11.698 0.349
27.5500 11.031 0.339
27.5705 10.969 0.338
27.5909 10.813 0.336
27.6114 11.063 0.339
27.6319 11.865 0.352
27.6523 12.000 0.354
27.6728 11.563 0.347
27.6932 11.917 0.352
27.7137 12.427 0.360
27.7342 13.021 0.368
27.7546 12.906 0.367
27.7751 12.302 0.358
27.7956 13.302 0.372
27.8160 13.469 0.375
27.8365 14.156 0.384
27.8569 13.333 0.373
27.8774 14.188 0.384
27.8979 14.552 0.389
27.9183 15.760 0.405
27.9388 15.458 0.401
27.9593 15.406 0.401
27.9797 15.344 0.400
28.0002 15.167 0.397
28.0207 15.771 0.405
28.0411 16.885 0.419
28.0616 16.531 0.415
28.0820 16.542 0.415
28.1025 16.750 0.418
28.1230 16.281 0.412
28.1434 16.208 0.411
28.1639 16.542 0.415
28.1844 16.938 0.420
28.2048 16.729 0.417
28.2253 16.104 0.410
28.2457 16.698 0.417
28.2662 16.635 0.416
28.2867 16.323 0.412
28.3071 15.260 0.399
28.3276 15.208 0.398
28.3481 15.583 0.403
28.3685 15.479 0.402
28.3890 15.177 0.398
28.4094 14.542 0.389
28.4299 14.604 0.390
28.4504 14.344 0.387
28.4708 13.896 0.380
28.4913 14.750 0.392
28.5118 13.865 0.380
28.5322 14.052 0.383
28.5527 14.021 0.382
28.5731 15.104 0.397
28.5936 15.792 0.406
28.6141 16.698 0.417
28.6345 18.073 0.434
28.6550 18.635 0.441
28.6755 19.833 0.455
28.6959 19.646 0.452
28.7164 21.083 0.469
28.7368 22.656 0.486
28.7573 23.854 0.498
28.7778 24.083 0.501
28.7982 23.854 0.498
28.8187 20.844 0.466
28.8392 18.823 0.443
28.8596 17.417 0.426
28.8801 15.417 0.401
28.9006 13.542 0.376
28.9210 11.458 0.345
28.9415 10.833 0.336
28.9619 10.490 0.331
28.9824 10.448 0.330
29.0029 10.208 0.326
29.0233 9.635 0.317
29.0438 9.469 0.314
29.0643 9.427 0.313
29.0847 9.375 0.313
29.1052 9.844 0.320
29.1256 9.458 0.314
29.1461 9.865 0.321
29.1666 9.990 0.323
29.1870 9.688 0.318
29.2075 9.917 0.321
29.2280 9.760 0.319
29.2484 10.719 0.334
29.2689 10.125 0.325
29.2893 9.823 0.320
29.3098 10.615 0.333
29.3303 9.552 0.315
29.3507 10.021 0.323
29.3712 9.823 0.320
29.3917 9.396 0.313
29.4121 8.646 0.300
29.4326 8.677 0.301
29.4530 8.323 0.294
29.4735 8.646 0.300
29.4940 8.802 0.303
29.5144 8.375 0.295
29.5349 8.635 0.300
29.5554 8.865 0.304
29.5758 8.385 0.296
29.5963 8.510 0.298
29.6168 8.417 0.296
29.6372 7.969 0.288
29.6577 8.083 0.290
29.6781 8.521 0.298
29.6986 8.052 0.290
29.7191 8.094 0.290
29.7395 8.052 0.290
29.7600 7.771 0.285
29.7805 7.958 0.288
29.8009 8.260 0.293
29.8214 8.031 0.289
29.8418 8.177 0.292
29.8623 8.167 0.292
29.8828 8.552 0.298
29.9032 8.292 0.294
29.9237 8.625 0.300
29.9442 8.135 0.291
29.9646 8.292 0.294
29.9851 7.938 0.288
30.0055 8.406 0.296
30.0260 8.042 0.289
30.0465 7.740 0.284
30.0669 7.625 0.282
30.0874 7.865 0.286
30.1079 7.146 0.273
30.1283 7.969 0.288
30.1488 7.823 0.285
30.1692 7.604 0.281
30.1897 8.021 0.289
30.2102 8.281 0.294
30.2306 7.406 0.278
30.2511 8.281 0.294
30.2716 8.010 0.289
30.2920 7.635 0.282
30.3125 8.229 0.293
30.3329 7.448 0.279
30.3534 8.000 0.289
30.3739 7.448 0.279
30.3943 7.510 0.280
30.4148 7.667 0.283
30.4353 7.906 0.287
30.4557 7.719 0.284
30.4762 7.688 0.283
30.4967 8.156 0.291
30.5171 7.854 0.286
30.5376 7.625 0.282
30.5580 7.729 0.284
30.5785 7.875 0.286
30.5990 7.990 0.288
30.6194 7.958 0.288
30.6399 8.083 0.290
30.6604 7.656 0.282
30.6808 8.500 0.298
30.7013 8.188 0.292
30.7217 8.833 0.303
30.7422 8.927 0.305
30.7627 8.073 0.290
30.7831 8.354 0.295
30.8036 8.458 0.297
30.8241 9.625 0.317
30.8445 9.115 0.308
30.8650 9.927 0.322
30.8854 10.250 0.327
30.9059 12.219 0.357
30.9264 16.042 0.409
30.9468 22.219 0.481
30.9673 31.792 0.575
30.9878 38.135 0.630
31.0082 33.885 0.594
31.0287 25.792 0.518
31.0491 25.031 0.511
31.0696 25.479 0.515
31.0901 19.677 0.453
31.1105 14.094 0.383
31.1310 11.500 0.346
31.1515 10.115 0.325
31.1719 9.281 0.311
31.1924 9.573 0.316
31.2128 9.313 0.311
31.2333 8.729 0.302
31.2538 8.615 0.300
31.2742 8.646 0.300
31.2947 8.625 0.300
31.3152 8.510 0.298
31.3356 9.010 0.306
31.3561 9.000 0.306
31.3766 8.354 0.295
31.3970 8.188 0.292
31.4175 8.365 0.295
31.4379 8.208 0.292
31.4584 8.198 0.292
31.4789 7.813 0.285
31.4993 7.854 0.286
31.5198 7.271 0.275
31.5403 7.854 0.286
31.5607 7.688 0.283
31.5812 8.479 0.297
31.6016 8.010 0.289
31.6221 7.885 0.287
31.6426 7.927 0.287
31.6630 8.021 0.289
31.6835 8.260 0.293
31.7040 8.417 0.296
31.7244 7.365 0.277
31.7449 7.896 0.287
31.7653 8.375 0.295
31.7858 8.417 0.296
31.8063 8.323 0.294
31.8267 8.740 0.302
31.8472 9.500 0.315
31.8677 9.094 0.308
31.8881 8.906 0.305
31.9086 9.354 0.312
31.9290 9.969 0.322
31.9495 9.240 0.310
31.9700 10.417 0.329
31.9904 12.385 0.359
32.0109 12.729 0.364
32.0314 14.625 0.390
32.0518 15.719 0.405
32.0723 18.594 0.440
32.0927 19.688 0.453
32.1132 19.146 0.447
32.1337 21.292 0.471
32.1541 22.646 0.486
32.1746 24.719 0.507
32.1951 24.542 0.506
32.2155 26.469 0.525
32.2360 26.646 0.527
32.2565 27.292 0.533
32.2769 26.031 0.521
32.2974 25.490 0.515
32.3178 22.698 0.486
32.3383 20.708 0.464
32.3588 17.885 0.432
32.3792 15.771 0.405
32.3997 13.792 0.379
32.4202 12.406 0.359
32.4406 10.885 0.337
32.4611 10.688 0.334
32.4815 10.885 0.337
32.5020 11.135 0.341
32.5225 11.719 0.349
32.5429 14.604 0.390
32.5634 18.927 0.444
32.5839 22.094 0.480
32.6043 23.719 0.497
32.6248 19.313 0.449
32.6452 16.365 0.413
32.6657 16.406 0.413
32.6862 16.313 0.412
32.7066 13.500 0.375
32.7271 10.833 0.336
32.7476 9.708 0.318
32.7680 9.177 0.309
32.7885 8.573 0.299
32.8089 8.344 0.295
32.8294 8.469 0.297
32.8499 8.823 0.303
32.8703 7.990 0.288
32.8908 8.333 0.295
32.9113 8.323 0.294
32.9317 7.927 0.287
32.9522 8.688 0.301
32.9726 8.302 0.294
32.9931 7.896 0.287
33.0136 8.260 0.293
33.0340 8.698 0.301
33.0545 8.271 0.294
33.0750 8.010 0.289
33.0954 8.313 0.294
33.1159 8.438 0.296
33.1364 9.073 0.307
33.1568 9.031 0.307
33.1773 8.094 0.290
33.1977 8.948 0.305
33.2182 8.896 0.304
33.2387 9.198 0.310
33.2591 8.521 0.298
33.2796 8.469 0.297
33.3001 8.625 0.300
33.3205 8.135 0.291
33.3410 8.052 0.290
33.3614 8.542 0.298
33.3819 8.208 0.292
33.4024 8.229 0.293
33.4228 8.260 0.293
33.4433 7.708 0.283
33.4638 8.000 0.289
33.4842 7.667 0.283
33.5047 7.521 0.280
33.5251 7.531 0.280
33.5456 7.490 0.279
33.5661 7.990 0.288
33.5865 7.656 0.282
33.6070 7.802 0.285
33.6275 8.281 0.294
33.6479 7.500 0.280
33.6684 7.656 0.282
33.6888 7.938 0.288
33.7093 7.750 0.284
33.7298 7.510 0.280
33.7502 7.844 0.286
33.7707 8.208 0.292
33.7912 7.969 0.288
33.8116 7.573 0.281
33.8321 7.719 0.284
33.8526 8.927 0.305
33.8730 8.375 0.295
33.8935 8.313 0.294
33.9139 8.219 0.293
33.9344 8.094 0.290
33.9549 7.729 0.284
33.9753 7.438 0.278
33.9958 7.938 0.288
34.0163 7.229 0.274
34.0367 7.604 0.281
34.0572 7.542 0.280
34.0776 6.958 0.269
34.0981 7.792 0.285
34.1186 7.333 0.276
34.1390 7.594 0.281
34.1595 7.281 0.275
34.1800 7.656 0.282
34.2004 8.063 0.290
34.2209 8.021 0.289
34.2413 8.313 0.294
34.2618 8.052 0.290
34.2823 8.219 0.293
34.3027 7.802 0.285
34.3232 8.000 0.289
34.3437 7.563 0.281
34.3641 7.250 0.275
34.3846 7.802 0.285
34.4050 7.500 0.280
34.4255 7.323 0.276
34.4460 7.344 0.277
34.4664 7.094 0.272
34.4869 6.875 0.268
34.5074 6.906 0.268
34.5278 7.479 0.279
34.5483 7.760 0.284
34.5687 7.281 0.275
34.5892 7.344 0.277
34.6097 7.354 0.277
34.6301 7.344 0.277
34.6506 7.240 0.275
34.6711 6.958 0.269
34.6915 7.646 0.282
34.7120 7.000 0.270
34.7325 7.531 0.280
34.7529 7.354 0.277
34.7734 7.240 0.275
34.7938 7.156 0.273
34.8143 7.688 0.283
34.8348 7.490 0.279
34.8552 7.625 0.282
34.8757 8.208 0.292
34.8962 8.635 0.300
34.9166 8.333 0.295
34.9371 8.677 0.301
34.9575 8.448 0.297
34.9780 8.448 0.297
34.9985 8.542 0.298
35.0189 7.938 0.288
35.0394 7.646 0.282
35.0599 7.583 0.281
35.0803 7.833 0.286
35.1008 7.146 0.273
35.1212 7.917 0.287
35.1417 7.865 0.286
35.1622 7.625 0.282
35.1826 7.604 0.281
35.2031 8.646 0.300
35.2236 9.167 0.309
35.2440 8.729 0.302
35.2645 9.375 0.313
35.2849 10.385 0.329
35.3054 9.938 0.322
35.3259 10.833 0.336
35.3463 11.198 0.342
35.3668 10.938 0.338
35.3873 11.042 0.339
35.4077 12.010 0.354
35.4282 11.917 0.352
35.4486 12.021 0.354
35.4691 11.000 0.339
35.4896 10.833 0.336
35.5100 10.792 0.335
35.5305 10.469 0.330
35.5510 9.781 0.319
35.5714 9.042 0.307
35.5919 9.208 0.310
35.6124 8.510 0.298
35.6328 8.521 0.298
35.6533 8.823 0.303
35.6737 8.073 0.290
35.6942 8.542 0.298
35.7147 8.208 0.292
35.7351 8.260 0.293
35.7556 8.667 0.300
35.7761 8.375 0.295
35.7965 8.604 0.299
35.8170 8.365 0.295
35.8374 8.354 0.295
35.8579 8.229 0.293
35.8784 7.833 0.286
35.8988 7.688 0.283
35.9193 7.969 0.288
35.9398 7.865 0.286
35.9602 8.302 0.294
35.9807 7.583 0.281
36.0011 8.490 0.297
36.0216 8.438 0.296
36.0421 8.708 0.301
36.0625 8.490 0.297
36.0830 9.563 0.316
36.1035 9.646 0.317
36.1239 8.521 0.298
36.1444 8.781 0.302
36.1648 8.479 0.297
36.1853 8.427 0.296
36.2058 8.802 0.303
36.2262 8.115 0.291
36.2467 8.313 0.294
36.2672 8.281 0.294
36.2876 8.719 0.301
36.3081 7.979 0.288
36.3285 8.552 0.298
36.3490 8.823 0.303
36.3695 9.010 0.306
36.3899 8.521 0.298
36.4104 9.135 0.308
36.4309 9.083 0.308
36.4513 9.823 0.320
36.4718 10.115 0.325
36.4923 11.167 0.341
36.5127 13.833 0.380
36.5332 17.708 0.429
36.5536 23.479 0.495
36.5741 26.365 0.524
36.5946 23.031 0.490
36.6150 17.927 0.432
36.6355 17.406 0.426
36.6560 18.479 0.439
36.6764 18.052 0.434
36.6969 15.833 0.406
36.7173 13.010 0.368
36.7378 11.688 0.349
36.7583 11.854 0.351
36.7787 11.604 0.348
36.7992 12.406 0.359
36.8197 12.208 0.357
36.8401 13.031 0.368
36.8606 13.219 0.371
36.8810 14.344 0.387
36.9015 15.063 0.396
36.9220 16.260 0.412
36.9424 17.125 0.422
36.9629 19.167 0.447
36.9834 23.635 0.496
37.0038 29.677 0.556
37.0243 38.802 0.636
37.0447 44.563 0.681
37.0652 40.760 0.652
37.0857 30.938 0.568
37.1061 26.854 0.529
37.1266 28.521 0.545
37.1471 27.031 0.531
37.1675 21.875 0.477
37.1880 16.792 0.418
37.2084 13.354 0.373
37.2289 12.313 0.358
37.2494 10.844 0.336
37.2698 10.542 0.331
37.2903 9.906 0.321
37.3108 9.448 0.314
37.3312 9.313 0.311
37.3517 8.781 0.302
37.3722 9.115 0.308
37.3926 8.875 0.304
37.4131 8.781 0.302
37.4335 8.875 0.304
37.4540 8.958 0.305
37.4745 8.854 0.304
37.4949 9.083 0.308
37.5154 9.313 0.311
37.5359 9.333 0.312
37.5563 9.063 0.307
37.5768 9.688 0.318
37.5972 8.844 0.304
37.6177 9.260 0.311
37.6382 9.833 0.320
37.6586 9.865 0.321
37.6791 10.125 0.325
37.6996 10.344 0.328
37.7200 10.406 0.329
37.7405 10.563 0.332
37.7609 11.292 0.343
37.7814 10.823 0.336
37.8019 11.802 0.351
37.8223 11.729 0.350
37.8428 11.885 0.352
37.8633 12.875 0.366
37.8837 13.594 0.376
37.9042 14.594 0.390
37.9246 16.646 0.416
37.9451 19.792 0.454
37.9656 24.906 0.509
37.9860 27.188 0.532
38.0065 24.760 0.508
38.0270 21.198 0.470
38.0474 20.229 0.459
38.0679 20.969 0.467
38.0884 21.844 0.477
38.1088 19.219 0.447
38.1293 16.677 0.417
38.1497 15.875 0.407
38.1702 15.125 0.397
38.1907 14.865 0.393
38.2111 15.104 0.397
38.2316 15.896 0.407
38.2521 14.750 0.392
38.2725 15.000 0.395
38.2930 14.927 0.394
38.3134 14.542 0.389
38.3339 15.146 0.397
38.3544 15.552 0.402
38.3748 16.250 0.411
38.3953 18.542 0.439
38.4158 21.031 0.468
38.4362 20.938 0.467
38.4567 19.563 0.451
38.4771 17.281 0.424
38.4976 15.823 0.406
38.5181 16.948 0.420
38.5385 17.021 0.421
38.5590 14.771 0.392
38.5795 13.563 0.376
38.5999 13.573 0.376
38.6204 12.844 0.366
38.6408 12.083 0.355
38.6613 12.198 0.356
38.6818 11.979 0.353
38.7022 11.719 0.349
38.7227 11.479 0.346
38.7432 11.167 0.341
38.7636 10.750 0.335
38.7841 9.885 0.321
38.8045 9.990 0.323
38.8250 10.344 0.328
38.8455 9.385 0.313
38.8659 10.208 0.326
38.8864 9.771 0.319
38.9069 9.292 0.311
38.9273 8.927 0.305
38.9478 9.438 0.314
38.9683 8.667 0.300
38.9887 8.833 0.303
39.0092 8.781 0.302
39.0296 9.208 0.310
39.0501 8.344 0.295
39.0706 8.792 0.303
39.0910 8.313 0.294
39.1115 8.198 0.292
39.1320 8.458 0.297
39.1524 8.198 0.292
39.1729 8.167 0.292
39.1933 8.208 0.292
39.2138 8.552 0.298
39.2343 8.406 0.296
39.2547 8.375 0.295
39.2752 8.792 0.303
39.2957 8.250 0.293
39.3161 8.833 0.303
39.3366 8.531 0.298
39.3570 8.479 0.297
39.3775 8.885 0.304
39.3980 9.094 0.308
39.4184 8.969 0.306
39.4389 9.177 0.309
39.4594 9.635 0.317
39.4798 10.667 0.333
39.5003 11.229 0.342
39.5207 11.313 0.343
39.5412 13.365 0.373
39.5617 13.375 0.373
39.5821 14.854 0.393
39.6026 15.604 0.403
39.6231 16.094 0.409
39.6435 17.740 0.430
39.6640 19.146 0.447
39.6844 19.458 0.450
39.7049 19.927 0.456
39.7254 21.823 0.477
39.7458 24.677 0.507
39.7663 26.479 0.525
39.7868 25.479 0.515
39.8072 24.375 0.504
39.8277 22.906 0.488
39.8482 21.906 0.478
39.8686 20.760 0.465
39.8891 18.094 0.434
39.9095 16.688 0.417
39.9300 14.042 0.382
39.9505 12.896 0.367
39.9709 11.646 0.348
39.9914 10.146 0.325
40.0119 9.875 0.321
40.0323 9.042 0.307
40.0528 9.271 0.311
40.0732 8.240 0.293
40.0937 8.448 0.297
40.1142 8.740 0.302
40.1346 9.115 0.308
40.1551 9.271 0.311
40.1756 10.458 0.330
40.1960 13.271 0.372
40.2165 15.719 0.405
40.2369 14.729 0.392
40.2574 11.760 0.350
40.2779 10.708 0.334
40.2983 11.240 0.342
40.3188 11.938 0.353
40.3393 11.760 0.350
40.3597 10.219 0.326
40.3802 8.385 0.296
40.4006 8.885 0.304
40.4211 7.802 0.285
40.4416 7.625 0.282
40.4620 7.594 0.281
40.4825 7.500 0.280
40.5030 7.271 0.275
40.5234 7.292 0.276
40.5439 7.219 0.274
40.5643 7.573 0.281
40.5848 6.750 0.265
40.6053 7.927 0.287
40.6257 7.063 0.271
40.6462 7.802 0.285
40.6667 8.094 0.290
40.6871 7.885 0.287
40.7076 8.135 0.291
40.7281 8.313 0.294
40.7485 9.146 0.309
40.7690 9.375 0.313
40.7894 10.042 0.323
40.8099 9.917 0.321
40.8304 8.896 0.304
40.8508 8.771 0.302
40.8713 9.313 0.311
40.8918 9.396 0.313
40.9122 9.958 0.322
40.9327 9.313 0.311
40.9531 8.906 0.305
40.9736 10.094 0.324
40.9941 9.708 0.318
41.0145 11.542 0.347
41.0350 13.458 0.374
41.0555 16.260 0.412
41.0759 20.969 0.467
41.0964 21.063 0.468
41.1168 17.750 0.430
41.1373 15.604 0.403
41.1578 14.740 0.392
41.1782 15.177 0.398
41.1987 15.344 0.400
41.2192 14.052 0.383
41.2396 11.563 0.347
41.2601 9.885 0.321
41.2805 9.708 0.318
41.3010 8.427 0.296
41.3215 8.198 0.292
41.3419 7.823 0.285
41.3624 7.792 0.285
41.3829 7.500 0.280
41.4033 7.438 0.278
41.4238 7.188 0.274
41.4442 7.583 0.281
41.4647 7.323 0.276
41.4852 6.729 0.265
41.5056 7.125 0.272
41.5261 7.063 0.271
41.5466 6.510 0.260
41.5670 7.125 0.272
41.5875 7.146 0.273
41.6080 6.448 0.259
41.6284 7.063 0.271
41.6489 7.021 0.270
41.6693 6.865 0.267
41.6898 7.365 0.277
41.7103 6.573 0.262
41.7307 6.958 0.269
41.7512 7.021 0.270
41.7717 7.021 0.270
41.7921 7.083 0.272
41.8126 6.917 0.268
41.8330 7.396 0.278
41.8535 7.698 0.283
41.8740 7.792 0.285
41.8944 6.927 0.269
41.9149 7.177 0.273
41.9354 7.271 0.275
41.9558 6.979 0.270
41.9763 6.917 0.268
41.9967 6.990 0.270
42.0172 6.500 0.260
42.0377 6.833 0.267
42.0581 6.813 0.266
42.0786 6.885 0.268
42.0991 6.542 0.261
42.1195 7.458 0.279
42.1400 6.740 0.265
42.1604 6.729 0.265
42.1809 6.677 0.264
42.2014 6.771 0.266
42.2218 6.604 0.262
42.2423 6.729 0.265
42.2628 6.771 0.266
42.2832 6.354 0.257
42.3037 6.917 0.268
42.3242 6.781 0.266
42.3446 7.125 0.272
42.3651 6.792 0.266
42.3855 6.104 0.252
42.4060 6.333 0.257
42.4265 6.479 0.260
42.4469 6.906 0.268
42.4674 6.719 0.265
42.4879 6.656 0.263
42.5083 6.667 0.264
42.5288 6.969 0.269
42.5492 7.156 0.273
42.5697 6.896 0.268
42.5902 6.969 0.269
42.6106 7.167 0.273
42.6311 7.365 0.277
42.6516 6.948 0.269
42.6720 6.729 0.265
42.6925 7.188 0.274
42.7129 6.917 0.268
42.7334 7.052 0.271
42.7539 7.500 0.280
42.7743 7.510 0.280
42.7948 7.323 0.276
42.8153 7.229 0.274
42.8357 6.573 0.262
42.8562 7.000 0.270
42.8766 7.333 0.276
42.8971 6.500 0.260
42.9176 7.083 0.272
42.9380 6.594 0.262
42.9585 7.104 0.272
42.9790 7.354 0.277
42.9994 6.969 0.269
43.0199 7.010 0.270
43.0403 6.906 0.268
43.0608 7.115 0.272
43.0813 7.698 0.283
43.1017 7.281 0.275
43.1222 7.385 0.277
43.1427 8.500 0.298
43.1631 9.625 0.317
43.1836 9.938 0.322
43.2041 9.823 0.320
43.2245 9.583 0.316
43.2450 8.969 0.306
43.2654 9.344 0.312
43.2859 8.844 0.304
43.3064 9.052 0.307
43.3268 9.000 0.306
43.3473 8.885 0.304
43.3678 8.021 0.289
43.3882 8.490 0.297
43.4087 9.854 0.320
43.4291 9.229 0.310
43.4496 9.260 0.311
43.4701 10.177 0.326
43.4905 10.885 0.337
43.5110 12.167 0.356
43.5315 14.688 0.391
43.5519 18.188 0.435
43.5724 22.042 0.479
43.5928 26.375 0.524
43.6133 25.708 0.517
43.6338 20.021 0.457
43.6542 17.833 0.431
43.6747 17.208 0.423
43.6952 18.042 0.434
43.7156 18.510 0.439
43.7361 16.125 0.410
43.7565 13.615 0.377
43.7770 10.781 0.335
43.7975 9.667 0.317
43.8179 8.896 0.304
43.8384 9.115 0.308
43.8589 8.510 0.298
43.8793 8.031 0.289
43.8998 7.635 0.282
43.9202 7.771 0.285
43.9407 7.646 0.282
43.9612 7.646 0.282
43.9816 6.948 0.269
44.0021 6.927 0.269
44.0226 6.552 0.261
44.0430 6.917 0.268
44.0635 6.771 0.266
44.0840 6.885 0.268
44.1044 7.188 0.274
44.1249 6.875 0.268
44.1453 6.594 0.262
44.1658 7.073 0.271
44.1863 6.396 0.258
44.2067 7.396 0.278
44.2272 6.313 0.256
44.2477 6.938 0.269
44.2681 6.469 0.260
44.2886 6.250 0.255
44.3090 7.323 0.276
44.3295 6.667 0.264
44.3500 6.927 0.269
44.3704 6.979 0.270
44.3909 7.052 0.271
44.4114 6.406 0.258
44.4318 6.906 0.268
44.4523 6.635 0.263
44.4727 6.073 0.252
44.4932 7.292 0.276
44.5137 6.198 0.254
44.5341 6.646 0.263
44.5546 7.229 0.274
44.5751 7.135 0.273
44.5955 6.635 0.263
44.6160 7.281 0.275
44.6364 7.750 0.284
44.6569 7.948 0.288
44.6774 8.115 0.291
44.6978 8.458 0.297
44.7183 9.458 0.314
44.7388 10.073 0.324
44.7592 11.042 0.339
44.7797 11.344 0.344
44.8001 12.406 0.359
44.8206 12.542 0.361
44.8411 13.052 0.369
44.8615 14.240 0.385
44.8820 14.510 0.389
44.9025 15.573 0.403
44.9229 16.302 0.412
44.9434 16.875 0.419
44.9639 16.823 0.419
44.9843 16.917 0.420
45.0048 17.792 0.430
45.0252 18.000 0.433
45.0457 18.604 0.440
45.0662 18.604 0.440
45.0866 18.750 0.442
45.1071 16.667 0.417
45.1276 16.573 0.415
45.1480 16.615 0.416
45.1685 16.115 0.410
45.1889 17.188 0.423
45.2094 17.875 0.432
45.2299 15.833 0.406
45.2503 13.760 0.379
45.2708 11.917 0.352
45.2913 10.823 0.336
45.3117 11.063 0.339
45.3322 10.625 0.333
45.3526 10.240 0.327
45.3731 9.500 0.315
45.3936 8.302 0.294
45.4140 7.938 0.288
45.4345 7.729 0.284
45.4550 7.719 0.284
45.4754 7.406 0.278
45.4959 7.094 0.272
45.5163 7.531 0.280
45.5368 7.479 0.279
45.5573 7.823 0.285
45.5777 7.698 0.283
45.5982 7.375 0.277
45.6187 7.302 0.276
45.6391 7.167 0.273
45.6596 7.542 0.280
45.6800 7.198 0.274
45.7005 7.323 0.276
45.7210 6.885 0.268
45.7414 7.229 0.274
45.7619 7.229 0.274
45.7824 7.000 0.270
45.8028 7.604 0.281
45.8233 6.917 0.268
45.8438 6.979 0.270
45.8642 7.260 0.275
45.8847 6.990 0.270
45.9051 6.865 0.267
45.9256 6.646 0.263
45.9461 7.146 0.273
45.9665 7.438 0.278
45.9870 7.260 0.275
46.0075 7.219 0.274
46.0279 6.823 0.267
46.0484 7.240 0.275
46.0688 6.615 0.262
46.0893 7.073 0.271
46.1098 7.188 0.274
46.1302 7.365 0.277
46.1507 7.385 0.277
46.1712 7.302 0.276
46.1916 7.479 0.279
46.2121 6.833 0.267
46.2325 6.844 0.267
46.2530 7.438 0.278
46.2735 6.917 0.268
46.2939 7.531 0.280
46.3144 7.458 0.279
46.3349 7.302 0.276
46.3553 6.583 0.262
46.3758 6.979 0.270
46.3962 6.490 0.260
46.4167 7.135 0.273
46.4372 6.635 0.263
46.4576 6.583 0.262
46.4781 6.833 0.267
46.4986 6.500 0.260
46.5190 6.563 0.261
46.5395 6.927 0.269
46.5600 6.365 0.257
46.5804 6.635 0.263
46.6009 6.854 0.267
46.6213 6.896 0.268
46.6418 6.635 0.263
46.6623 6.448 0.259
46.6827 6.448 0.259
46.7032 6.740 0.265
46.7237 6.292 0.256
46.7441 6.906 0.268
46.7646 6.271 0.256
46.7850 5.938 0.249
46.8055 7.031 0.271
46.8260 6.646 0.263
46.8464 6.479 0.260
46.8669 6.333 0.257
46.8874 6.667 0.264
46.9078 6.531 0.261
46.9283 6.469 0.260
46.9487 6.656 0.263
46.9692 6.635 0.263
46.9897 6.323 0.257
47.0101 6.021 0.250
47.0306 6.531 0.261
47.0511 6.323 0.257
47.0715 6.552 0.261
47.0920 6.969 0.269
47.1124 6.208 0.254
47.1329 6.479 0.260
47.1534 6.677 0.264
47.1738 6.708 0.264
47.1943 6.771 0.266
47.2148 6.646 0.263
47.2352 6.885 0.268
47.2557 6.813 0.266
47.2761 6.490 0.260
47.2966 6.896 0.268
47.3171 7.073 0.271
47.3375 6.906 0.268
47.3580 6.771 0.266
47.3785 6.615 0.262
47.3989 7.302 0.276
47.4194 7.167 0.273
47.4399 7.760 0.284
47.4603 8.490 0.297
47.4808 8.854 0.304
47.5012 9.844 0.320
47.5217 11.740 0.350
47.5422 14.948 0.395
47.5626 16.104 0.410
47.5831 14.104 0.383
47.6036 11.563 0.347
47.6240 10.604 0.332
47.6445 10.667 0.333
47.6649 11.365 0.344
47.6854 12.052 0.354
47.7059 12.094 0.355
47.7263 9.573 0.316
47.7468 8.646 0.300
47.7673 8.281 0.294
47.7877 7.646 0.282
47.8082 7.802 0.285
47.8286 8.146 0.291
47.8491 7.229 0.274
47.8696 7.354 0.277
47.8900 7.594 0.281
47.9105 7.323 0.276
47.9310 7.510 0.280
47.9514 8.010 0.289
47.9719 7.781 0.285
47.9923 7.875 0.286
48.0128 8.031 0.289
48.0333 8.042 0.289
48.0537 7.719 0.284
48.0742 8.083 0.290
48.0947 7.698 0.283
48.1151 8.313 0.294
48.1356 8.250 0.293
48.1560 8.375 0.295
48.1765 8.083 0.290
48.1970 8.813 0.303
48.2174 8.854 0.304
48.2379 9.031 0.307
48.2584 9.146 0.309
48.2788 10.083 0.324
48.2993 10.104 0.324
48.3198 10.250 0.327
48.3402 9.323 0.312
48.3607 9.958 0.322
48.3811 10.406 0.329
48.4016 10.365 0.329
48.4221 10.083 0.324
48.4425 10.271 0.327
48.4630 10.219 0.326
48.4835 9.813 0.320
48.5039 9.854 0.320
48.5244 9.948 0.322
48.5448 10.250 0.327
48.5653 10.458 0.330
48.5858 10.250 0.327
48.6062 10.813 0.336
48.6267 11.771 0.350
48.6472 12.104 0.355
48.6676 12.740 0.364
48.6881 12.854 0.366
48.7085 12.188 0.356
48.7290 11.740 0.350
48.7495 12.333 0.358
48.7699 12.146 0.356
48.7904 11.729 0.350
48.8109 11.938 0.353
48.8313 11.646 0.348
48.8518 11.344 0.344
48.8722 11.260 0.342
48.8927 11.865 0.352
48.9132 11.875 0.352
48.9336 11.771 0.350
48.9541 12.583 0.362
48.9746 12.510 0.361
48.9950 12.531 0.361
49.0155 12.635 0.363
49.0359 12.813 0.365
49.0564 13.000 0.368
49.0769 13.354 0.373
49.0973 13.073 0.369
49.1178 12.781 0.365
49.1383 12.979 0.368
49.1587 13.656 0.377
49.1792 13.146 0.370
49.1997 13.750 0.378
49.2201 13.115 0.370
49.2406 13.469 0.375
49.2610 13.448 0.374
49.2815 12.948 0.367
49.3020 12.719 0.364
49.3224 12.510 0.361
49.3429 12.156 0.356
49.3634 12.583 0.362
49.3838 12.115 0.355
49.4043 11.833 0.351
49.4247 11.656 0.348
49.4452 11.792 0.350
49.4657 11.458 0.345
49.4861 10.969 0.338
49.5066 11.510 0.346
49.5271 10.688 0.334
49.5475 10.802 0.335
49.5680 10.823 0.336
49.5884 10.469 0.330
49.6089 10.146 0.325
49.6294 10.469 0.330
49.6498 10.760 0.335
49.6703 10.260 0.327
49.6908 10.427 0.330
49.7112 11.375 0.344
49.7317 12.729 0.364
49.7521 15.146 0.397
49.7726 17.313 0.425
49.7931 19.781 0.454
49.8135 21.021 0.468
49.8340 18.396 0.438
49.8545 15.823 0.406
49.8749 14.698 0.391
49.8954 14.073 0.383
49.9158 15.073 0.396
49.9363 14.271 0.386
49.9568 14.240 0.385
49.9772 12.552 0.362
49.9977 10.646 0.333
50.0182 9.646 0.317
50.0386 9.000 0.306
50.0591 8.479 0.297
50.0796 8.875 0.304
50.1000 8.583 0.299
50.1205 8.250 0.293
50.1409 8.698 0.301
50.1614 10.229 0.326
50.1819 9.844 0.320
50.2023 9.000 0.306
50.2228 8.073 0.290
50.2433 8.104 0.291
50.2637 8.094 0.290
50.2842 7.771 0.285
50.3046 7.781 0.285
50.3251 8.198 0.292
50.3456 7.458 0.279
50.3660 6.990 0.270
50.3865 7.198 0.274
50.4070 6.573 0.262
50.4274 6.771 0.266
50.4479 6.615 0.262
50.4683 7.042 0.271
50.4888 6.448 0.259
50.5093 6.260 0.255
50.5297 6.313 0.256
50.5502 6.510 0.260
50.5707 6.354 0.257
50.5911 6.531 0.261
50.6116 6.417 0.259
50.6320 6.302 0.256
50.6525 6.760 0.265
50.6730 6.594 0.262
50.6934 7.094 0.272
50.7139 7.198 0.274
50.7344 7.031 0.271
50.7548 7.292 0.276
50.7753 7.010 0.270
50.7958 6.656 0.263
50.8162 7.208 0.274
50.8367 7.719 0.284
50.8571 8.448 0.297
50.8776 8.521 0.298
50.8981 9.281 0.311
50.9185 10.573 0.332
50.9390 9.865 0.321
50.9595 8.844 0.304
50.9799 8.385 0.296
51.0004 8.802 0.303
51.0208 8.083 0.290
51.0413 8.510 0.298
51.0618 8.448 0.297
51.0822 8.125 0.291
51.1027 7.740 0.284
51.1232 7.552 0.280
51.1436 7.510 0.280
51.1641 7.802 0.285
51.1845 7.042 0.271
51.2050 7.677 0.283
51.2255 7.625 0.282
51.2459 8.052 0.290
51.2664 7.802 0.285
51.2869 7.833 0.286
51.3073 7.760 0.284
51.3278 7.083 0.272
51.3482 7.406 0.278
51.3687 7.490 0.279
51.3892 7.260 0.275
51.4096 7.344 0.277
51.4301 7.406 0.278
51.4506 7.135 0.273
51.4710 6.781 0.266
51.4915 7.229 0.274
51.5119 6.906 0.268
51.5324 7.729 0.284
51.5529 7.948 0.288
51.5733 7.833 0.286
51.5938 8.802 0.303
51.6143 9.219 0.310
51.6347 9.281 0.311
51.6552 9.510 0.315
51.6757 8.333 0.295
51.6961 7.948 0.288
51.7166 7.854 0.286
51.7370 8.365 0.295
51.7575 8.219 0.293
51.7780 7.531 0.280
51.7984 8.406 0.296
51.8189 7.760 0.284
51.8394 7.250 0.275
51.8598 7.438 0.278
51.8803 6.688 0.264
51.9007 6.938 0.269
51.9212 7.083 0.272
51.9417 6.781 0.266
51.9621 6.792 0.266
51.9826 6.635 0.263
52.0031 6.500 0.260
52.0235 6.677 0.264
52.0440 7.104 0.272
52.0644 6.792 0.266
52.0849 6.823 0.267
52.1054 6.750 0.265
52.1258 7.458 0.279
52.1463 6.938 0.269
52.1668 7.198 0.274
52.1872 6.875 0.268
52.2077 6.635 0.263
52.2281 6.615 0.262
52.2486 6.531 0.261
52.2691 8.073 0.290
52.2895 8.417 0.296
52.3100 8.802 0.303
52.3305 8.323 0.294
52.3509 7.594 0.281
52.3714 7.208 0.274
52.3918 6.771 0.266
52.4123 6.677 0.264
52.4328 7.573 0.281
52.4532 6.719 0.265
52.4737 6.313 0.256
52.4942 6.646 0.263
52.5146 6.302 0.256
52.5351 5.708 0.244
52.5556 5.542 0.240
52.5760 6.021 0.250
52.5965 5.927 0.248
52.6169 5.563 0.241
52.6374 5.667 0.243
52.6579 5.573 0.241
52.6783 5.667 0.243
52.6988 5.604 0.242
52.7193 5.656 0.243
52.7397 6.115 0.252
52.7602 6.083 0.252
52.7806 5.604 0.242
52.8011 5.906 0.248
52.8216 6.490 0.260
52.8420 6.313 0.256
52.8625 6.667 0.264
52.8830 6.771 0.266
52.9034 7.229 0.274
52.9239 7.292 0.276
52.9443 7.115 0.272
52.9648 7.333 0.276
52.9853 7.448 0.279
53.0057 7.490 0.279
53.0262 8.542 0.298
53.0467 8.844 0.304
53.0671 8.531 0.298
53.0876 8.646 0.300
53.1080 8.354 0.295
53.1285 9.740 0.319
53.1490 9.448 0.314
53.1694 9.635 0.317
53.1899 9.708 0.318
53.2104 9.906 0.321
53.2308 9.719 0.318
53.2513 10.063 0.324
53.2717 9.594 0.316
53.2922 9.958 0.322
53.3127 9.083 0.308
53.3331 9.302 0.311
53.3536 8.677 0.301
53.3741 8.771 0.302
53.3945 8.417 0.296
53.4150 7.896 0.287
53.4355 7.240 0.275
53.4559 7.094 0.272
53.4764 6.563 0.261
53.4968 6.656 0.263
53.5173 6.490 0.260
53.5378 6.323 0.257
53.5582 5.917 0.248
53.5787 6.177 0.254
53.5992 5.948 0.249
53.6196 6.063 0.251
53.6401 5.729 0.244
53.6605 5.938 0.249
53.6810 5.990 0.250
53.7015 5.740 0.245
53.7219 5.917 0.248
53.7424 5.240 0.234
53.7629 5.885 0.248
53.7833 5.896 0.248
53.8038 5.719 0.244
53.8242 6.177 0.254
53.8447 6.063 0.251
53.8652 6.135 0.253
53.8856 5.625 0.242
53.9061 6.135 0.253
53.9266 6.156 0.253
53.9470 6.667 0.264
53.9675 6.771 0.266
53.9879 6.542 0.261
54.0084 6.656 0.263
54.0289 7.469 0.279
54.0493 7.281 0.275
54.0698 7.708 0.283
54.0903 7.521 0.280
54.1107 7.917 0.287
54.1312 8.021 0.289
54.1516 7.594 0.281
54.1721 8.094 0.290
54.1926 7.958 0.288
54.2130 7.906 0.287
54.2335 8.229 0.293
54.2540 7.760 0.284
54.2744 8.188 0.292
54.2949 8.333 0.295
54.3154 8.156 0.291
54.3358 8.167 0.292
54.3563 8.604 0.299
54.3767 8.146 0.291
54.3972 8.167 0.292
54.4177 7.958 0.288
54.4381 7.469 0.279
54.4586 7.354 0.277
54.4791 7.552 0.280
54.4995 7.531 0.280
54.5200 6.698 0.264
54.5404 6.917 0.268
54.5609 6.885 0.268
54.5814 7.042 0.271
54.6018 7.021 0.270
54.6223 6.854 0.267
54.6428 6.344 0.257
54.6632 6.396 0.258
54.6837 6.313 0.256
54.7041 6.823 0.267
54.7246 6.948 0.269
54.7451 7.083 0.272
54.7655 6.969 0.269
54.7860 6.552 0.261
54.8065 7.146 0.273
54.8269 7.104 0.272
54.8474 7.010 0.270
54.8678 7.229 0.274
54.8883 7.646 0.282
54.9088 7.635 0.282
54.9292 7.719 0.284
54.9497 7.656 0.282
54.9702 8.229 0.293
54.9906 8.802 0.303
55.0111 9.333 0.312
55.0316 9.792 0.319
55.0520 10.875 0.337
55.0725 12.219 0.357
55.0929 13.802 0.379
55.1134 16.635 0.416
55.1339 18.438 0.438
55.1543 18.719 0.442
55.1748 16.844 0.419
55.1953 14.781 0.392
55.2157 13.792 0.379
55.2362 13.958 0.381
55.2566 14.781 0.392
55.2771 16.250 0.411
55.2976 16.344 0.413
55.3180 14.927 0.394
55.3385 13.917 0.381
55.3590 14.615 0.390
55.3794 14.063 0.383
55.3999 13.333 0.373
55.4203 13.438 0.374
55.4408 13.417 0.374
55.4613 12.604 0.362
55.4817 12.573 0.362
55.5022 11.958 0.353
55.5227 10.906 0.337
55.5431 10.927 0.337
55.5636 10.146 0.325
55.5840 10.146 0.325
55.6045 9.031 0.307
55.6250 9.042 0.307
55.6454 9.292 0.311
55.6659 8.031 0.289
55.6864 8.323 0.294
55.7068 7.896 0.287
55.7273 7.542 0.280
55.7477 6.948 0.269
55.7682 7.531 0.280
55.7887 7.750 0.284
55.8091 7.677 0.283
55.8296 7.927 0.287
55.8501 7.573 0.281
55.8705 6.938 0.269
55.8910 7.240 0.275
55.9115 6.104 0.252
55.9319 6.677 0.264
55.9524 6.969 0.269
55.9728 6.948 0.269
55.9933 6.740 0.265
56.0138 6.344 0.257
56.0342 6.698 0.264
56.0547 7.635 0.282
56.0752 7.260 0.275
56.0956 7.104 0.272
56.1161 8.865 0.304
56.1365 9.740 0.319
56.1570 11.250 0.342
56.1775 10.688 0.334
56.1979 9.823 0.320
56.2184 8.906 0.305
56.2389 7.979 0.288
56.2593 7.396 0.278
56.2798 7.896 0.287
56.3002 8.115 0.291
56.3207 8.313 0.294
56.3412 8.469 0.297
56.3616 7.063 0.271
56.3821 6.469 0.260
56.4026 6.083 0.252
56.4230 5.635 0.242
56.4435 5.740 0.245
56.4639 5.677 0.243
56.4844 5.729 0.244
56.5049 5.521 0.240
56.5253 5.469 0.239
56.5458 5.250 0.234
56.5663 5.292 0.235
56.5867 5.240 0.234
56.6072 5.729 0.244
56.6276 5.646 0.243
56.6481 5.688 0.243
56.6686 5.563 0.241
56.6890 5.635 0.242
56.7095 5.271 0.234
56.7300 4.938 0.227
56.7504 5.458 0.238
56.7709 5.292 0.235
56.7914 5.375 0.237
56.8118 5.677 0.243
56.8323 5.479 0.239
56.8527 5.229 0.233
56.8732 5.615 0.242
56.8937 5.354 0.236
56.9141 5.073 0.230
56.9346 5.375 0.237
56.9551 5.042 0.229
56.9755 5.083 0.230
56.9960 5.635 0.242
57.0164 5.073 0.230
57.0369 5.094 0.230
57.0574 5.250 0.234
57.0778 5.208 0.233
57.0983 4.927 0.227
57.1188 5.229 0.233
57.1392 5.375 0.237
57.1597 4.719 0.222
57.1801 5.125 0.231
57.2006 5.083 0.230
57.2211 4.792 0.223
57.2415 5.302 0.235
57.2620 4.990 0.228
57.2825 5.010 0.228
57.3029 5.167 0.232
57.3234 5.219 0.233
57.3438 4.906 0.226
57.3643 5.063 0.230
57.3848 4.948 0.227
57.4052 5.208 0.233
57.4257 4.906 0.226
57.4462 5.135 0.231
57.4666 4.958 0.227
57.4871 5.406 0.237
57.5075 5.146 0.232
57.5280 5.573 0.241
57.5485 5.208 0.233
57.5689 5.375 0.237
57.5894 5.792 0.246
57.6099 5.740 0.245
57.6303 5.490 0.239
57.6508 5.708 0.244
57.6713 5.823 0.246
57.6917 5.563 0.241
57.7122 5.823 0.246
57.7326 6.260 0.255
57.7531 6.125 0.253
57.7736 6.198 0.254
57.7940 7.490 0.279
57.8145 8.229 0.293
57.8350 9.635 0.317
57.8554 10.802 0.335
57.8759 11.771 0.350
57.8963 10.667 0.333
57.9168 8.844 0.304
57.9373 7.667 0.283
57.9577 7.688 0.283
57.9782 7.615 0.282
57.9987 8.260 0.293
58.0191 8.625 0.300
58.0396 8.365 0.295
58.0600 7.635 0.282
58.0805 7.292 0.276
58.1010 6.323 0.257
58.1214 6.010 0.250
58.1419 6.042 0.251
58.1624 5.792 0.246
58.1828 5.781 0.245
58.2033 5.229 0.233
58.2237 5.354 0.236
58.2442 6.063 0.251
58.2647 5.542 0.240
58.2851 5.719 0.244
58.3056 5.969 0.249
58.3261 6.021 0.250
58.3465 5.063 0.230
58.3670 5.854 0.247
58.3874 5.698 0.244
58.4079 5.740 0.245
58.4284 5.760 0.245
58.4488 5.438 0.238
58.4693 6.021 0.250
58.4898 5.583 0.241
58.5102 5.594 0.241
58.5307 6.052 0.251
58.5512 6.667 0.264
58.5716 6.250 0.255
58.5921 5.781 0.245
58.6125 5.615 0.242
58.6330 5.927 0.248
58.6535 5.740 0.245
58.6739 5.531 0.240
58.6944 6.063 0.251
58.7149 5.823 0.246
58.7353 5.115 0.231
58.7558 5.604 0.242
58.7762 5.750 0.245
58.7967 5.500 0.239
58.8172 5.479 0.239
58.8376 5.552 0.240
58.8581 5.396 0.237
58.8786 5.448 0.238
58.8990 5.458 0.238
58.9195 5.115 0.231
58.9399 4.927 0.227
58.9604 5.396 0.237
58.9809 5.323 0.235
59.0013 5.885 0.248
59.0218 5.292 0.235
59.0423 5.708 0.244
59.0627 5.802 0.246
59.0832 5.917 0.248
59.1036 6.365 0.257
59.1241 6.885 0.268
59.1446 7.938 0.288
59.1650 8.281 0.294
59.1855 8.479 0.297
59.2060 8.052 0.290
59.2264 7.010 0.270
59.2469 7.000 0.270
59.2674 6.823 0.267
59.2878 6.885 0.268
59.3083 7.208 0.274
59.3287 7.385 0.277
59.3492 8.063 0.290
59.3697 7.229 0.274
59.3901 6.677 0.264
59.4106 6.323 0.257
59.4311 6.375 0.258
59.4515 5.833 0.247
59.4720 6.469 0.260
59.4924 6.406 0.258
59.5129 6.656 0.263
59.5334 6.375 0.258
59.5538 6.188 0.254
59.5743 6.646 0.263
59.5948 6.917 0.268
59.6152 6.417 0.259
59.6357 6.469 0.260
59.6561 6.406 0.258
59.6766 6.740 0.265
59.6971 6.375 0.258
59.7175 6.813 0.266
59.7380 6.750 0.265
59.7585 7.281 0.275
59.7789 7.552 0.280
59.7994 8.406 0.296
59.8198 8.729 0.302
59.8403 8.833 0.303
59.8608 8.875 0.304
59.8812 8.208 0.292
59.9017 7.271 0.275
59.9222 6.771 0.266
59.9426 6.250 0.255
59.9631 6.760 0.265
59.9835 7.229 0.274
60.0040 6.885 0.268
60.0245 6.844 0.267
60.0449 6.646 0.263
60.0654 5.792 0.246
60.0859 5.427 0.238
60.1063 5.354 0.236
60.1268 5.417 0.238
60.1473 5.667 0.243
60.1677 5.396 0.237
60.1882 5.219 0.233
60.2086 5.385 0.237
60.2291 5.750 0.245
60.2496 5.406 0.237
60.2700 5.563 0.241
60.2905 5.313 0.235
60.3110 5.094 0.230
60.3314 4.896 0.226
60.3519 4.948 0.227
60.3723 5.771 0.245
60.3928 4.771 0.223
60.4133 5.365 0.236
60.4337 5.135 0.231
60.4542 5.344 0.236
60.4747 5.521 0.240
60.4951 5.104 0.231
60.5156 5.094 0.230
60.5360 5.448 0.238
60.5565 5.750 0.245
60.5770 5.135 0.231
60.5974 5.604 0.242
60.6179 5.521 0.240
60.6384 5.438 0.238
60.6588 5.344 0.236
60.6793 5.448 0.238
60.6997 4.792 0.223
60.7202 5.656 0.243
60.7407 5.521 0.240
60.7611 5.385 0.237
60.7816 5.875 0.247
60.8021 5.625 0.242
60.8225 5.427 0.238
60.8430 5.188 0.232
60.8634 5.615 0.242
60.8839 5.292 0.235
60.9044 5.188 0.232
60.9248 4.948 0.227
60.9453 4.729 0.222
60.9658 5.792 0.246
60.9862 5.177 0.232
61.0067 4.990 0.228
61.0272 5.354 0.236
61.0476 4.729 0.222
61.0681 4.875 0.225
61.0885 4.667 0.220
61.1090 5.167 0.232
61.1295 5.479 0.239
61.1499 4.885 0.226
61.1704 5.313 0.235
61.1909 4.948 0.227
61.2113 4.875 0.225
61.2318 4.677 0.221
61.2522 4.865 0.225
61.2727 4.823 0.224
61.2932 4.854 0.225
61.3136 4.990 0.228
61.3341 4.844 0.225
61.3546 4.948 0.227
61.3750 4.948 0.227
61.3955 4.760 0.223
61.4159 4.865 0.225
61.4364 4.708 0.221
61.4569 5.073 0.230
61.4773 5.094 0.230
61.4978 5.615 0.242
61.5183 4.875 0.225
61.5387 4.740 0.222
61.5592 5.240 0.234
61.5796 5.292 0.235
61.6001 5.104 0.231
61.6206 4.333 0.212
61.6410 5.021 0.229
61.6615 4.969 0.228
61.6820 4.615 0.219
61.7024 4.885 0.226
61.7229 5.146 0.232
61.7433 5.260 0.234
61.7638 4.583 0.219
61.7843 4.958 0.227
61.8047 5.271 0.234
61.8252 5.000 0.228
61.8457 5.094 0.230
61.8661 4.906 0.226
61.8866 4.833 0.224
61.9071 4.719 0.222
61.9275 5.510 0.240
61.9480 5.042 0.229
61.9684 5.156 0.232
61.9889 5.396 0.237
62.0094 4.969 0.228
62.0298 5.323 0.235
62.0503 5.771 0.245
62.0708 5.729 0.244
62.0912 6.365 0.257
62.1117 6.396 0.258
62.1321 6.042 0.251
62.1526 6.208 0.254
62.1731 5.896 0.248
62.1935 5.552 0.240
62.2140 5.656 0.243
62.2345 5.865 0.247
62.2549 6.198 0.254
62.2754 5.875 0.247
62.2958 5.719 0.244
62.3163 5.427 0.238
62.3368 5.125 0.231
62.3572 4.792 0.223
62.3777 5.313 0.235
62.3982 5.156 0.232
62.4186 5.219 0.233
62.4391 4.802 0.224
62.4595 5.042 0.229
62.4800 5.135 0.231
62.5005 5.115 0.231
62.5209 5.021 0.229
62.5414 5.469 0.239
62.5619 5.052 0.229
62.5823 5.219 0.233
62.6028 5.094 0.230
62.6232 4.844 0.225
62.6437 4.750 0.222
62.6642 5.198 0.233
62.6846 4.667 0.220
62.7051 5.208 0.233
62.7256 5.083 0.230
62.7460 5.438 0.238
62.7665 4.781 0.223
62.7870 4.927 0.227
62.8074 4.760 0.223
62.8279 4.906 0.226
62.8483 4.844 0.225
62.8688 5.219 0.233
62.8893 4.594 0.219
62.9097 4.125 0.207
62.9302 4.698 0.221
62.9507 4.604 0.219
62.9711 4.531 0.217
62.9916 4.698 0.221
63.0120 4.740 0.222
63.0325 4.583 0.219
63.0530 4.708 0.221
63.0734 5.323 0.235
63.0939 4.771 0.223
63.1144 5.031 0.229
63.1348 4.885 0.226
63.1553 4.677 0.221
63.1757 5.271 0.234
63.1962 4.927 0.227
63.2167 5.094 0.230
63.2371 4.854 0.225
63.2576 5.167 0.232
63.2781 4.969 0.228
63.2985 5.094 0.230
63.3190 4.865 0.225
63.3394 4.802 0.224
63.3599 4.958 0.227
63.3804 5.385 0.237
63.4008 5.063 0.230
63.4213 5.125 0.231
63.4418 5.083 0.230
63.4622 5.479 0.239
63.4827 5.365 0.236
63.5032 5.156 0.232
63.5236 5.458 0.238
63.5441 5.417 0.238
63.5645 5.563 0.241
63.5850 5.656 0.243
63.6055 5.865 0.247
63.6259 6.302 0.256
63.6464 5.792 0.246
63.6669 5.938 0.249
63.6873 6.073 0.252
63.7078 6.500 0.260
63.7282 6.031 0.251
63.7487 6.042 0.251
63.7692 6.031 0.251
63.7896 6.229 0.255
63.8101 5.990 0.250
63.8306 6.302 0.256
63.8510 6.250 0.255
63.8715 6.354 0.257
63.8919 6.781 0.266
63.9124 6.854 0.267
63.9329 6.677 0.264
63.9533 6.833 0.267
63.9738 6.875 0.268
63.9943 7.708 0.283
64.0147 7.438 0.278
64.0352 7.125 0.272
64.0556 6.521 0.261
64.0761 7.063 0.271
64.0966 7.260 0.275
64.1170 6.740 0.265
64.1375 6.698 0.264
64.1580 6.844 0.267
64.1784 7.083 0.272
64.1989 6.625 0.263
64.2193 5.854 0.247
64.2398 7.042 0.271
64.2603 6.333 0.257
64.2807 6.625 0.263
64.3012 6.531 0.261
64.3217 6.365 0.257
64.3421 6.375 0.258
64.3626 6.615 0.262
64.3831 6.208 0.254
64.4035 6.292 0.256
64.4240 6.333 0.257
64.4444 6.396 0.258
64.4649 6.594 0.262
64.4854 6.771 0.266
64.5058 6.021 0.250
64.5263 6.979 0.270
64.5468 7.490 0.279
64.5672 8.208 0.292
64.5877 8.156 0.291
64.6081 9.115 0.308
64.6286 9.021 0.307
64.6491 8.771 0.302
64.6695 8.021 0.289
64.6900 8.135 0.291
64.7105 7.448 0.279
64.7309 7.208 0.274
64.7514 7.990 0.288
64.7718 8.260 0.293
64.7923 8.229 0.293
64.8128 7.813 0.285
64.8332 7.583 0.281
64.8537 7.021 0.270
64.8742 6.813 0.266
64.8946 6.958 0.269
64.9151 7.063 0.271
64.9355 6.552 0.261
64.9560 6.260 0.255
64.9765 5.906 0.248
64.9969 5.948 0.249
65.0174 5.979 0.250
65.0379 5.781 0.245
65.0583 6.125 0.253
65.0788 5.635 0.242
65.0992 5.323 0.235
65.1197 5.625 0.242
65.1402 5.052 0.229
65.1606 5.063 0.230
65.1811 5.260 0.234
65.2016 5.021 0.229
65.2220 5.063 0.230
65.2425 4.990 0.228
65.2630 4.771 0.223
65.2834 5.667 0.243
65.3039 4.969 0.228
65.3243 4.719 0.222
65.3448 4.771 0.223
65.3653 4.823 0.224
65.3857 4.708 0.221
65.4062 5.073 0.230
65.4267 4.969 0.228
65.4471 5.031 0.229
65.4676 5.167 0.232
65.4880 5.354 0.236
65.5085 5.542 0.240
65.5290 5.708 0.244
65.5494 6.292 0.256
65.5699 5.646 0.243
65.5904 5.719 0.244
65.6108 5.073 0.230
65.6313 4.792 0.223
65.6517 5.385 0.237
65.6722 5.104 0.231
65.6927 5.104 0.231
65.7131 5.073 0.230
65.7336 5.438 0.238
65.7541 5.042 0.229
65.7745 5.250 0.234
65.7950 4.927 0.227
65.8154 5.000 0.228
65.8359 4.500 0.217
65.8564 4.729 0.222
65.8768 4.792 0.223
65.8973 4.438 0.215
65.9178 4.625 0.219
65.9382 4.448 0.215
65.9587 4.438 0.215
65.9791 4.740 0.222
65.9996 4.677 0.221
66.0201 4.667 0.220
66.0405 4.854 0.225
66.0610 4.385 0.214
66.0815 4.510 0.217
66.1019 4.031 0.205
66.1224 4.448 0.215
66.1429 4.833 0.224
66.1633 4.469 0.216
66.1838 4.708 0.221
66.2042 4.427 0.215
66.2247 4.625 0.219
66.2452 4.625 0.219
66.2656 4.604 0.219
66.2861 4.302 0.212
66.3066 4.792 0.223
66.3270 4.948 0.227
66.3475 4.333 0.212
66.3679 4.542 0.218
66.3884 4.865 0.225
66.4089 4.792 0.223
66.4293 4.771 0.223
66.4498 4.604 0.219
66.4703 4.708 0.221
66.4907 4.771 0.223
66.5112 5.135 0.231
66.5316 4.719 0.222
66.5521 4.875 0.225
66.5726 4.969 0.228
66.5930 5.135 0.231
66.6135 4.542 0.218
66.6340 4.906 0.226
66.6544 5.354 0.236
66.6749 5.125 0.231
66.6953 5.167 0.232
66.7158 5.271 0.234
66.7363 5.250 0.234
66.7567 5.469 0.239
66.7772 5.365 0.236
66.7977 5.552 0.240
66.8181 5.438 0.238
66.8386 5.323 0.235
66.8590 5.573 0.241
66.8795 5.510 0.240
66.9000 5.375 0.237
66.9204 5.865 0.247
66.9409 5.740 0.245
66.9614 5.750 0.245
66.9818 6.469 0.260
67.0023 6.740 0.265
67.0228 7.260 0.275
67.0432 7.750 0.284
67.0637 9.115 0.308
67.0841 9.615 0.316
67.1046 10.792 0.335
67.1251 10.469 0.330
67.1455 9.521 0.315
67.1660 9.208 0.310
67.1865 8.094 0.290
67.2069 8.167 0.292
67.2274 7.938 0.288
67.2478 7.271 0.275
67.2683 8.281 0.294
67.2888 8.875 0.304
67.3092 8.292 0.294
67.3297 8.229 0.293
67.3502 8.156 0.291
67.3706 7.438 0.278
67.3911 7.333 0.276
67.4115 6.719 0.265
67.4320 6.333 0.257
67.4525 6.563 0.261
67.4729 6.458 0.259
67.4934 6.438 0.259
67.5139 6.302 0.256
67.5343 6.344 0.257
67.5548 6.365 0.257
67.5752 6.083 0.252
67.5957 5.938 0.249
67.6162 5.927 0.248
67.6366 5.865 0.247
67.6571 6.229 0.255
67.6776 6.104 0.252
67.6980 6.063 0.251
67.7185 5.979 0.250
67.7389 5.802 0.246
67.7594 5.667 0.243
67.7799 5.458 0.238
67.8003 5.490 0.239
67.8208 5.448 0.238
67.8413 5.406 0.237
67.8617 5.323 0.235
67.8822 5.333 0.236
67.9027 5.115 0.231
67.9231 5.031 0.229
67.9436 5.198 0.233
67.9640 5.677 0.243
67.9845 5.083 0.230
68.0050 5.198 0.233
68.0254 5.313 0.235
68.0459 4.781 0.223
68.0664 4.875 0.225
68.0868 4.990 0.228
68.1073 5.042 0.229
68.1277 4.750 0.222
68.1482 5.083 0.230
68.1687 4.885 0.226
68.1891 5.125 0.231
68.2096 5.073 0.230
68.2301 5.250 0.234
68.2505 5.323 0.235
68.2710 6.271 0.256
68.2914 5.823 0.246
68.3119 6.000 0.250
68.3324 6.167 0.253
68.3528 6.177 0.254
68.3733 5.854 0.247
68.3938 5.417 0.238
68.4142 5.542 0.240
68.4347 4.823 0.224
68.4551 5.063 0.230
68.4756 5.344 0.236
68.4961 4.938 0.227
68.5165 5.198 0.233
68.5370 5.677 0.243
68.5575 4.896 0.226
68.5779 4.802 0.224
68.5984 4.448 0.215
68.6189 4.698 0.221
68.6393 4.646 0.220
68.6598 4.438 0.215
68.6802 4.760 0.223
68.7007 4.927 0.227
68.7212 4.667 0.220
68.7416 4.958 0.227
68.7621 4.771 0.223
68.7826 4.708 0.221
68.8030 4.896 0.226
68.8235 4.604 0.219
68.8439 4.990 0.228
68.8644 4.740 0.222
68.8849 5.229 0.233
68.9053 5.896 0.248
68.9258 6.208 0.254
68.9463 6.083 0.252
68.9667 6.667 0.264
68.9872 6.042 0.251
69.0076 5.823 0.246
69.0281 5.615 0.242
69.0486 5.927 0.248
69.0690 5.135 0.231
69.0895 5.688 0.243
69.1100 5.760 0.245
69.1304 5.927 0.248
69.1509 5.802 0.246
69.1713 6.365 0.257
69.1918 6.500 0.260
69.2123 5.938 0.249
69.2327 6.354 0.257
69.2532 5.948 0.249
69.2737 5.604 0.242
69.2941 5.719 0.244
69.3146 5.198 0.233
69.3350 5.448 0.238
69.3555 4.990 0.228
69.3760 5.469 0.239
69.3964 5.542 0.240
69.4169 5.844 0.247
69.4374 5.479 0.239
69.4578 5.417 0.238
69.4783 5.010 0.228
69.4988 5.125 0.231
69.5192 4.521 0.217
69.5397 4.531 0.217
69.5601 5.010 0.228
69.5806 4.333 0.212
69.6011 4.510 0.217
69.6215 4.719 0.222
69.6420 4.042 0.205
69.6625 4.354 0.213
69.6829 4.177 0.209
69.7034 4.604 0.219
69.7238 4.615 0.219
69.7443 4.531 0.217
69.7648 4.646 0.220
69.7852 4.500 0.217
69.8057 4.521 0.217
69.8262 4.396 0.214
69.8466 4.750 0.222
69.8671 4.250 0.210
69.8875 4.781 0.223
69.9080 4.771 0.223
69.9285 4.281 0.211
69.9489 4.417 0.214
69.9694 4.448 0.215
69.9899 4.500 0.217
70.0103 4.115 0.207
70.0308 4.573 0.218
70.0512 5.167 0.232
70.0717 4.740 0.222
70.0922 4.229 0.210
70.1126 4.531 0.217
70.1331 4.396 0.214
70.1536 4.615 0.219
70.1740 4.625 0.219
70.1945 4.490 0.216
70.2149 4.708 0.221
70.2354 4.563 0.218
70.2559 4.844 0.225
70.2763 4.833 0.224
70.2968 4.656 0.220
70.3173 4.927 0.227
70.3377 4.552 0.218
70.3582 4.458 0.216
70.3787 4.854 0.225
70.3991 4.531 0.217
70.4196 4.521 0.217
70.4400 4.552 0.218
70.4605 4.708 0.221
70.4810 4.115 0.207
70.5014 4.750 0.222
70.5219 4.198 0.209
70.5424 4.906 0.226
70.5628 4.594 0.219
70.5833 4.510 0.217
70.6037 4.552 0.218
70.6242 5.010 0.228
70.6447 4.094 0.207
70.6651 4.115 0.207
70.6856 4.344 0.213
70.7061 4.656 0.220
70.7265 4.271 0.211
70.7470 4.188 0.209
70.7674 4.573 0.218
70.7879 4.635 0.220
70.8084 4.885 0.226
70.8288 4.646 0.220
70.8493 4.885 0.226
70.8698 4.750 0.222
70.8902 5.271 0.234
70.9107 4.802 0.224
70.9311 4.781 0.223
70.9516 4.885 0.226
70.9721 4.875 0.225
70.9925 5.115 0.231
71.0130 5.385 0.237
71.0335 5.385 0.237
71.0539 5.375 0.237
71.0744 5.375 0.237
71.0948 5.490 0.239
71.1153 5.385 0.237
71.1358 5.469 0.239
71.1562 5.708 0.244
71.1767 5.469 0.239
71.1972 5.260 0.234
71.2176 5.313 0.235
71.2381 5.698 0.244
71.2586 6.031 0.251
71.2790 6.198 0.254
71.2995 6.167 0.253
71.3199 5.740 0.245
71.3404 6.115 0.252
71.3609 6.125 0.253
71.3813 5.594 0.241
71.4018 6.188 0.254
71.4223 5.448 0.238
71.4427 5.688 0.243
71.4632 5.531 0.240
71.4836 5.938 0.249
71.5041 5.531 0.240
71.5246 5.698 0.244
71.5450 5.427 0.238
71.5655 5.677 0.243
71.5860 6.500 0.260
71.6064 5.865 0.247
71.6269 6.250 0.255
71.6473 5.917 0.248
71.6678 6.271 0.256
71.6883 5.958 0.249
71.7087 5.719 0.244
71.7292 5.271 0.234
71.7497 6.031 0.251
71.7701 6.313 0.256
71.7906 5.927 0.248
71.8110 6.594 0.262
71.8315 5.688 0.243
71.8520 6.271 0.256
71.8724 6.135 0.253
71.8929 6.010 0.250
71.9134 6.396 0.258
71.9338 6.354 0.257
71.9543 6.500 0.260
71.9747 5.792 0.246
71.9952 6.167 0.253
72.0157 6.260 0.255
72.0361 5.990 0.250
72.0566 6.125 0.253
72.0771 6.219 0.255
72.0975 6.115 0.252
72.1180 5.906 0.248
72.1385 5.823 0.246
72.1589 6.083 0.252
72.1794 6.125 0.253
72.1998 5.885 0.248
72.2203 5.698 0.244
72.2408 5.917 0.248
72.2612 5.802 0.246
72.2817 5.667 0.243
72.3022 5.927 0.248
72.3226 5.500 0.239
72.3431 6.021 0.250
72.3635 5.802 0.246
72.3840 5.667 0.243
72.4045 5.771 0.245
72.4249 5.302 0.235
72.4454 5.542 0.240
72.4659 5.177 0.232
72.4863 5.031 0.229
72.5068 4.969 0.228
72.5272 5.094 0.230
72.5477 4.729 0.222
72.5682 4.531 0.217
72.5886 4.854 0.225
72.6091 5.094 0.230
72.6296 4.625 0.219
72.6500 4.583 0.219
72.6705 4.500 0.217
72.6909 4.458 0.216
72.7114 5.021 0.229
72.7319 4.313 0.212
72.7523 4.625 0.219
72.7728 4.635 0.220
72.7933 4.969 0.228
72.8137 4.531 0.217
72.8342 5.083 0.230
72.8547 4.802 0.224
72.8751 5.063 0.230
72.8956 4.177 0.209
72.9160 4.615 0.219
72.9365 4.438 0.215
72.9570 4.469 0.216
72.9774 4.490 0.216
72.9979 4.375 0.213
73.0184 4.688 0.221
73.0388 4.135 0.208
73.0593 4.573 0.218
73.0797 4.438 0.215
73.1002 4.448 0.215
73.1207 4.302 0.212
73.1411 4.292 0.211
73.1616 4.167 0.208
73.1821 3.594 0.193
73.2025 4.188 0.209
73.2230 4.156 0.208
73.2434 4.344 0.213
73.2639 4.073 0.206
73.2844 3.563 0.193
73.3048 4.063 0.206
73.3253 3.854 0.200
73.3458 3.906 0.202
73.3662 3.698 0.196
73.3867 3.823 0.200
73.4071 4.073 0.206
73.4276 4.115 0.207
73.4481 4.500 0.217
73.4685 3.990 0.204
73.4890 3.969 0.203
73.5095 3.875 0.201
73.5299 3.854 0.200
73.5504 4.208 0.209
73.5708 3.917 0.202
73.5913 3.948 0.203
73.6118 4.229 0.210
73.6322 4.146 0.208
73.6527 4.073 0.206
73.6732 3.729 0.197
73.6936 4.250 0.210
73.7141 3.906 0.202
73.7346 4.333 0.212
73.7550 4.323 0.212
73.7755 3.979 0.204
73.7959 3.958 0.203
73.8164 4.302 0.212
73.8369 4.302 0.212
73.8573 4.167 0.208
73.8778 4.188 0.209
73.8983 4.281 0.211
73.9187 4.615 0.219
73.9392 3.885 0.201
73.9596 4.490 0.216
73.9801 4.323 0.212
74.0006 4.583 0.219
74.0210 4.760 0.223
74.0415 4.458 0.216
74.0620 4.260 0.211
74.0824 4.667 0.220
74.1029 4.208 0.209
74.1233 4.573 0.218
74.1438 4.552 0.218
74.1643 4.677 0.221
74.1847 4.635 0.220
74.2052 4.167 0.208
74.2257 4.365 0.213
74.2461 4.000 0.204
74.2666 4.073 0.206
74.2870 4.354 0.213
74.3075 4.354 0.213
74.3280 4.313 0.212
74.3484 4.219 0.210
74.3689 4.479 0.216
74.3894 4.052 0.205
74.4098 3.729 0.197
74.4303 3.708 0.197
74.4507 3.802 0.199
74.4712 3.885 0.201
74.4917 4.198 0.209
74.5121 4.260 0.211
74.5326 3.896 0.201
74.5531 3.833 0.200
74.5735 4.000 0.204
74.5940 3.365 0.187
74.6145 3.813 0.199
74.6349 3.927 0.202
74.6554 3.938 0.203
74.6758 3.958 0.203
74.6963 3.854 0.200
74.7168 3.938 0.203
74.7372 3.760 0.198
74.7577 3.625 0.194
74.7782 4.042 0.205
74.7986 3.969 0.203
74.8191 3.719 0.197
74.8395 3.688 0.196
74.8600 3.594 0.193
74.8805 3.875 0.201
74.9009 4.198 0.209
74.9214 4.156 0.208
74.9419 3.760 0.198
74.9623 3.813 0.199
74.9828 3.823 0.200
75.0032 3.771 0.198
75.0237 3.708 0.197
75.0442 4.021 0.205
75.0646 4.010 0.204
75.0851 3.677 0.196
75.1056 3.583 0.193
75.1260 3.958 0.203
75.1465 3.729 0.197
75.1669 4.313 0.212
75.1874 3.719 0.197
75.2079 3.833 0.200
75.2283 3.771 0.198
75.2488 4.219 0.210
75.2693 4.552 0.218
75.2897 3.823 0.200
75.3102 3.646 0.195
75.3306 3.792 0.199
75.3511 3.615 0.194
75.3716 4.052 0.205
75.3920 3.802 0.199
75.4125 3.927 0.202
75.4330 4.313 0.212
75.4534 3.625 0.194
75.4739 4.208 0.209
75.4944 4.208 0.209
75.5148 4.177 0.209
75.5353 4.115 0.207
75.5557 3.667 0.195
75.5762 4.240 0.210
75.5967 4.208 0.209
75.6171 4.656 0.220
75.6376 4.479 0.216
75.6581 4.500 0.217
75.6785 5.177 0.232
75.6990 4.948 0.227
75.7194 5.188 0.232
75.7399 5.844 0.247
75.7604 5.625 0.242
75.7808 5.667 0.243
75.8013 5.115 0.231
75.8218 5.677 0.243
75.8422 4.906 0.226
75.8627 4.729 0.222
75.8831 4.906 0.226
75.9036 4.708 0.221
75.9241 4.615 0.219
75.9445 4.823 0.224
75.9650 5.458 0.238
75.9855 4.688 0.221
76.0059 5.198 0.233
76.0264 4.760 0.223
76.0468 4.510 0.217
76.0673 4.229 0.210
76.0878 4.010 0.204
76.1082 4.271 0.211
76.1287 3.979 0.204
76.1492 3.823 0.200
76.1696 4.031 0.205
76.1901 3.844 0.200
76.2105 3.740 0.197
76.2310 4.063 0.206
76.2515 3.771 0.198
76.2719 3.958 0.203
76.2924 3.885 0.201
76.3129 3.552 0.192
76.3333 3.604 0.194
76.3538 3.833 0.200
76.3743 4.094 0.207
76.3947 4.031 0.205
76.4152 3.521 0.192
76.4356 3.927 0.202
76.4561 3.667 0.195
76.4766 3.792 0.199
76.4970 3.667 0.195
76.5175 3.990 0.204
76.5380 3.573 0.193
76.5584 3.823 0.200
76.5789 3.646 0.195
76.5993 3.635 0.195
76.6198 3.667 0.195
76.6403 3.948 0.203
76.6607 4.229 0.210
76.6812 3.948 0.203
76.7017 3.531 0.192
76.7221 3.604 0.194
76.7426 3.500 0.191
76.7630 3.438 0.189
76.7835 3.719 0.197
76.8040 3.802 0.199
76.8244 3.510 0.191
76.8449 4.104 0.207
76.8654 3.563 0.193
76.8858 3.417 0.189
76.9063 3.823 0.200
76.9267 3.854 0.200
76.9472 3.438 0.189
76.9677 3.865 0.201
76.9881 3.938 0.203
77.0086 3.490 0.191
77.0291 3.604 0.194
77.0495 3.719 0.197
77.0700 3.438 0.189
77.0905 3.438 0.189
77.1109 3.552 0.192
77.1314 3.948 0.203
77.1518 3.885 0.201
77.1723 3.865 0.201
77.1928 3.885 0.201
77.2132 3.635 0.195
77.2337 3.875 0.201
77.2542 3.656 0.195
77.2746 3.969 0.203
77.2951 4.146 0.208
77.3155 3.917 0.202
77.3360 3.906 0.202
77.3565 4.250 0.210
77.3769 4.396 0.214
77.3974 4.052 0.205
77.4179 3.875 0.201
77.4383 4.385 0.214
77.4588 4.448 0.215
77.4792 4.615 0.219
77.4997 4.333 0.212
77.5202 4.552 0.218
77.5406 4.458 0.216
77.5611 4.073 0.206
77.5816 4.052 0.205
77.6020 4.333 0.212
77.6225 3.854 0.200
77.6429 4.406 0.214
77.6634 4.302 0.212
77.6839 4.198 0.209
77.7043 4.313 0.212
77.7248 4.479 0.216
77.7453 4.427 0.215
77.7657 4.771 0.223
77.7862 4.698 0.221
77.8066 4.146 0.208
77.8271 4.250 0.210
77.8476 3.792 0.199
77.8680 4.188 0.209
77.8885 3.927 0.202
77.9090 3.708 0.197
77.9294 3.927 0.202
77.9499 3.969 0.203
77.9704 3.865 0.201
77.9908 3.771 0.198
78.0113 3.438 0.189
78.0317 3.906 0.202
78.0522 3.969 0.203
78.0727 4.052 0.205
78.0931 3.875 0.201
78.1136 3.844 0.200
78.1341 3.531 0.192
78.1545 3.875 0.201
78.1750 4.250 0.210
78.1954 3.729 0.197
78.2159 3.583 0.193
78.2364 3.677 0.196
78.2568 3.667 0.195
78.2773 3.625 0.194
78.2978 4.146 0.208
78.3182 4.292 0.211
78.3387 4.167 0.208
78.3591 4.313 0.212
78.3796 4.271 0.211
78.4001 3.875 0.201
78.4205 4.083 0.206
78.4410 4.229 0.210
78.4615 3.323 0.186
78.4819 3.990 0.204
78.5024 4.063 0.206
78.5228 3.729 0.197
78.5433 3.979 0.204
78.5638 3.948 0.203
78.5842 3.927 0.202
78.6047 4.073 0.206
78.6252 4.208 0.209
78.6456 3.813 0.199
78.6661 3.969 0.203
78.6865 3.802 0.199
78.7070 3.750 0.198
78.7275 3.792 0.199
78.7479 3.990 0.204
78.7684 3.833 0.200
78.7889 3.844 0.200
78.8093 3.760 0.198
78.8298 3.656 0.195
78.8503 3.802 0.199
78.8707 3.979 0.204
78.8912 3.792 0.199
78.9116 3.917 0.202
78.9321 3.813 0.199
78.9526 3.948 0.203
78.9730 4.156 0.208
78.9935 4.333 0.212
79.0140 3.802 0.199
79.0344 4.073 0.206
79.0549 3.833 0.200
79.0753 3.719 0.197
79.0958 3.917 0.202
79.1163 4.000 0.204
79.1367 3.833 0.200
79.1572 3.927 0.202
79.1777 3.823 0.200
79.1981 3.583 0.193
79.2186 4.156 0.208
79.2390 4.115 0.207
79.2595 3.844 0.200
79.2800 3.552 0.192
79.3004 3.510 0.191
79.3209 3.792 0.199
79.3414 3.688 0.196
79.3618 3.729 0.197
79.3823 3.458 0.190
79.4027 3.781 0.198
79.4232 4.167 0.208
79.4437 3.979 0.204
79.4641 4.448 0.215
79.4846 4.302 0.212
79.5051 4.396 0.214
79.5255 4.469 0.216
79.5460 4.448 0.215
79.5664 4.500 0.217
79.5869 4.354 0.213
79.6074 4.167 0.208
79.6278 3.969 0.203
79.6483 4.094 0.207
79.6688 4.073 0.206
79.6892 4.010 0.204
79.7097 4.000 0.204
79.7302 4.156 0.208
79.7506 3.708 0.197
79.7711 4.115 0.207
79.7915 3.771 0.198
79.8120 3.813 0.199
79.8325 4.042 0.205
79.8529 3.948 0.203
79.8734 3.354 0.187
79.8939 3.458 0.190
79.9143 3.354 0.187
79.9348 3.563 0.193
79.9552 3.823 0.200
79.9757 3.646 0.195
79.9962 3.760 0.198
