'Id: "" Comment: "" Operator: "Lab Manager" Anode: "Cu" Scantype: "Locked Coupled" TimePerStep: "96" X: "0" Y: "0" Z: "0" 
5.0000 22.854 0.488
5.0205 22.865 0.488
5.0409 22.792 0.487
5.0614 23.594 0.496
5.0819 21.583 0.474
5.1023 22.875 0.488
5.1228 23.177 0.491
5.1432 22.552 0.485
5.1637 22.021 0.479
5.1842 23.271 0.492
5.2046 22.948 0.489
5.2251 22.458 0.484
5.2456 23.188 0.491
5.2660 22.479 0.484
5.2865 23.594 0.496
5.3069 21.969 0.478
5.3274 22.844 0.488
5.3479 22.281 0.482
5.3683 22.031 0.479
5.3888 21.917 0.478
5.4093 21.479 0.473
5.4297 22.510 0.484
5.4502 21.573 0.474
5.4706 21.719 0.476
5.4911 20.802 0.465
5.5116 21.510 0.473
5.5320 22.438 0.483
5.5525 21.750 0.476
5.5730 21.510 0.473
5.5934 22.323 0.482
5.6139 21.771 0.476
5.6343 20.771 0.465
5.6548 21.042 0.468
5.6753 21.271 0.471
5.6957 21.813 0.477
5.7162 21.135 0.469
5.7367 21.094 0.469
5.7571 20.573 0.463
5.7776 21.219 0.470
5.7980 20.760 0.465
5.8185 21.490 0.473
5.8390 21.635 0.475
5.8594 20.917 0.467
5.8799 20.542 0.463
5.9004 20.823 0.466
5.9208 21.448 0.473
5.9413 21.135 0.469
5.9618 21.052 0.468
5.9822 20.927 0.467
6.0027 21.052 0.468
6.0231 20.969 0.467
6.0436 20.625 0.464
6.0641 20.948 0.467
6.0845 20.198 0.459
6.1050 20.927 0.467
6.1255 20.250 0.459
6.1459 19.938 0.456
6.1664 20.177 0.458
6.1868 21.135 0.469
6.2073 21.052 0.468
6.2278 21.156 0.469
6.2482 20.406 0.461
6.2687 20.802 0.465
6.2892 21.104 0.469
6.3096 21.271 0.471
6.3301 20.833 0.466
6.3505 20.417 0.461
6.3710 20.854 0.466
6.3915 20.917 0.467
6.4119 21.188 0.470
6.4324 20.406 0.461
6.4529 20.885 0.466
6.4733 20.240 0.459
6.4938 20.063 0.457
6.5142 19.885 0.455
6.5347 20.990 0.468
6.5552 20.875 0.466
6.5756 20.927 0.467
6.5961 20.740 0.465
6.6166 21.125 0.469
6.6370 21.917 0.478
6.6575 21.604 0.474
6.6779 21.531 0.474
6.6984 21.167 0.470
6.7189 22.198 0.481
6.7393 22.333 0.482
6.7598 22.188 0.481
6.7803 22.719 0.486
6.8007 22.510 0.484
6.8212 24.292 0.503
6.8417 25.396 0.514
6.8621 26.125 0.522
6.8826 27.198 0.532
6.9030 28.406 0.544
6.9235 29.948 0.559
6.9440 33.635 0.592
6.9644 37.198 0.622
6.9849 42.656 0.667
7.0054 52.271 0.738
7.0258 59.667 0.788
7.0463 71.865 0.865
7.0667 80.281 0.914
7.0872 76.740 0.894
7.1077 61.844 0.803
7.1281 52.469 0.739
7.1486 43.688 0.675
7.1691 35.521 0.608
7.1895 32.854 0.585
7.2100 30.188 0.561
7.2304 29.750 0.557
7.2509 28.156 0.542
7.2714 28.198 0.542
7.2918 28.240 0.542
7.3123 25.979 0.520
7.3328 25.615 0.517
7.3532 25.417 0.515
7.3737 26.000 0.520
7.3941 24.573 0.506
7.4146 24.677 0.507
7.4351 24.240 0.502
7.4555 24.167 0.502
7.4760 23.469 0.494
7.4965 24.094 0.501
7.5169 22.625 0.485
7.5374 22.677 0.486
7.5579 24.271 0.503
7.5783 23.771 0.498
7.5988 23.115 0.491
7.6192 23.219 0.492
7.6397 23.313 0.493
7.6602 23.615 0.496
7.6806 22.531 0.484
7.7011 22.594 0.485
7.7216 23.073 0.490
7.7420 22.542 0.485
7.7625 21.854 0.477
7.7829 22.896 0.488
7.8034 23.344 0.493
7.8239 22.135 0.480
7.8443 22.948 0.489
7.8648 21.938 0.478
7.8853 22.573 0.485
7.9057 22.917 0.489
7.9262 23.146 0.491
7.9466 22.792 0.487
7.9671 22.979 0.489
7.9876 22.813 0.487
8.0080 22.438 0.483
8.0285 23.385 0.494
8.0490 22.281 0.482
8.0694 23.188 0.491
8.0899 23.125 0.491
8.1103 22.625 0.485
8.1308 22.042 0.479
8.1513 23.000 0.489
8.1717 22.646 0.486
8.1922 22.917 0.489
8.2127 24.115 0.501
8.2331 23.219 0.492
8.2536 23.604 0.496
8.2740 22.729 0.487
8.2945 23.698 0.497
8.3150 23.156 0.491
8.3354 22.979 0.489
8.3559 23.208 0.492
8.3764 22.917 0.489
8.3968 22.917 0.489
8.4173 22.302 0.482
8.4378 22.948 0.489
8.4582 22.833 0.488
8.4787 23.688 0.497
8.4991 23.469 0.494
8.5196 23.531 0.495
8.5401 23.708 0.497
8.5605 22.875 0.488
8.5810 24.344 0.504
8.6015 23.656 0.496
8.6219 23.521 0.495
8.6424 23.302 0.493
8.6628 23.354 0.493
8.6833 24.000 0.500
8.7038 23.281 0.492
8.7242 24.510 0.505
8.7447 24.708 0.507
8.7652 25.458 0.515
8.7856 25.094 0.511
8.8061 26.573 0.526
8.8265 27.125 0.532
8.8470 26.958 0.530
8.8675 27.760 0.538
8.8879 30.573 0.564
8.9084 31.771 0.575
8.9289 32.844 0.585
8.9493 34.323 0.598
8.9698 35.208 0.606
8.9902 38.542 0.634
9.0107 46.604 0.697
9.0312 58.375 0.780
9.0516 71.563 0.863
9.0721 84.854 0.940
9.0926 84.344 0.937
9.1130 65.875 0.828
9.1335 47.469 0.703
9.1539 38.521 0.633
9.1744 34.260 0.597
9.1949 36.167 0.614
9.2153 36.521 0.617
9.2358 37.188 0.622
9.2563 37.708 0.627
9.2767 39.135 0.638
9.2972 43.010 0.669
9.3177 43.635 0.674
9.3381 44.771 0.683
9.3586 46.344 0.695
9.3790 47.250 0.702
9.3995 49.896 0.721
9.4200 50.500 0.725
9.4404 52.865 0.742
9.4609 57.677 0.775
9.4814 60.635 0.795
9.5018 63.771 0.815
9.5223 69.750 0.852
9.5427 77.427 0.898
9.5632 85.344 0.943
9.5837 91.510 0.976
9.6041 100.729 1.024
9.6246 111.635 1.078
9.6451 121.719 1.126
9.6655 132.729 1.176
9.6860 149.240 1.247
9.7064 167.875 1.322
9.7269 198.156 1.437
9.7474 239.521 1.580
9.7678 297.323 1.760
9.7883 394.760 2.028
9.8088 527.479 2.344
9.8292 718.896 2.737
9.8497 996.063 3.221
9.8701 1304.385 3.686
9.8906 1349.760 3.750
9.9111 969.115 3.177
9.9315 548.000 2.389
9.9520 285.573 1.725
9.9725 174.156 1.347
9.9929 130.490 1.166
10.0134 109.115 1.066
10.0338 95.573 0.998
10.0543 86.740 0.951
10.0748 79.146 0.908
10.0952 72.000 0.866
10.1157 64.740 0.821
10.1362 59.333 0.786
10.1566 51.469 0.732
10.1771 47.115 0.701
10.1976 43.656 0.674
10.2180 42.521 0.666
10.2385 40.792 0.652
10.2589 38.740 0.635
10.2794 37.479 0.625
10.2999 36.667 0.618
10.3203 35.865 0.611
10.3408 34.531 0.600
10.3613 33.188 0.588
10.3817 32.167 0.579
10.4022 32.135 0.579
10.4226 31.427 0.572
10.4431 32.458 0.581
10.4636 29.604 0.555
10.4840 29.125 0.551
10.5045 29.844 0.558
10.5250 28.146 0.541
10.5454 28.229 0.542
10.5659 27.896 0.539
10.5863 27.010 0.530
10.6068 27.260 0.533
10.6273 27.969 0.540
10.6477 25.854 0.519
10.6682 26.375 0.524
10.6887 24.375 0.504
10.7091 25.188 0.512
10.7296 24.990 0.510
10.7500 24.927 0.510
10.7705 23.948 0.499
10.7910 24.000 0.500
10.8114 24.281 0.503
10.8319 23.698 0.497
10.8524 23.146 0.491
10.8728 23.510 0.495
10.8933 23.729 0.497
10.9137 21.708 0.476
10.9342 21.906 0.478
10.9547 21.823 0.477
10.9751 21.031 0.468
10.9956 20.833 0.466
11.0161 21.344 0.472
11.0365 20.542 0.463
11.0570 20.958 0.467
11.0775 20.625 0.464
11.0979 20.708 0.464
11.1184 20.083 0.457
11.1388 20.208 0.459
11.1593 20.198 0.459
11.1798 20.115 0.458
11.2002 20.385 0.461
11.2207 19.125 0.446
11.2412 19.344 0.449
11.2616 18.875 0.443
11.2821 19.500 0.451
11.3025 19.073 0.446
11.3230 19.302 0.448
11.3435 18.615 0.440
11.3639 19.604 0.452
11.3844 18.760 0.442
11.4049 18.042 0.434
11.4253 18.573 0.440
11.4458 17.969 0.433
11.4662 17.938 0.432
11.4867 17.958 0.433
11.5072 17.135 0.422
11.5276 17.479 0.427
11.5481 17.969 0.433
11.5686 17.885 0.432
11.5890 18.115 0.434
11.6095 17.375 0.425
11.6299 17.292 0.424
11.6504 17.573 0.428
11.6709 16.427 0.414
11.6913 17.031 0.421
11.7118 16.260 0.412
11.7323 16.938 0.420
11.7527 16.760 0.418
11.7732 16.719 0.417
11.7937 16.156 0.410
11.8141 16.302 0.412
11.8346 15.813 0.406
11.8550 16.042 0.409
11.8755 16.781 0.418
11.8960 16.188 0.411
11.9164 15.594 0.403
11.9369 16.490 0.414
11.9574 15.500 0.402
11.9778 15.219 0.398
11.9983 15.021 0.396
12.0187 15.490 0.402
12.0392 16.198 0.411
12.0597 14.510 0.389
12.0801 15.344 0.400
12.1006 15.531 0.402
12.1211 15.406 0.401
12.1415 14.771 0.392
12.1620 14.573 0.390
12.1824 14.865 0.393
12.2029 15.260 0.399
12.2234 15.458 0.401
12.2438 15.146 0.397
12.2643 14.688 0.391
12.2848 14.563 0.389
12.3052 14.156 0.384
12.3257 14.781 0.392
12.3461 13.510 0.375
12.3666 14.094 0.383
12.3871 13.688 0.378
12.4075 13.958 0.381
12.4280 15.156 0.397
12.4485 14.135 0.384
12.4689 13.250 0.372
12.4894 14.406 0.387
12.5098 13.927 0.381
12.5303 13.979 0.382
12.5508 14.208 0.385
12.5712 13.281 0.372
12.5917 13.729 0.378
12.6122 13.354 0.373
12.6326 13.281 0.372
12.6531 14.083 0.383
12.6736 13.771 0.379
12.6940 13.865 0.380
12.7145 13.448 0.374
12.7349 13.198 0.371
12.7554 12.896 0.367
12.7759 13.000 0.368
12.7963 13.313 0.372
12.8168 12.563 0.362
12.8373 12.802 0.365
12.8577 13.396 0.374
12.8782 12.333 0.358
12.8986 12.792 0.365
12.9191 12.948 0.367
12.9396 12.792 0.365
12.9600 12.823 0.365
12.9805 12.552 0.362
13.0010 13.052 0.369
13.0214 13.271 0.372
13.0419 12.813 0.365
13.0623 12.813 0.365
13.0828 12.198 0.356
13.1033 13.177 0.370
13.1237 12.604 0.362
13.1442 12.385 0.359
13.1647 12.375 0.359
13.1851 12.656 0.363
13.2056 12.010 0.354
13.2260 12.302 0.358
13.2465 12.698 0.364
13.2670 11.115 0.340
13.2874 12.250 0.357
13.3079 11.875 0.352
13.3284 12.156 0.356
13.3488 12.125 0.355
13.3693 11.854 0.351
13.3897 11.865 0.352
13.4102 11.604 0.348
13.4307 11.979 0.353
13.4511 12.375 0.359
13.4716 12.250 0.357
13.4921 11.813 0.351
13.5125 11.948 0.353
13.5330 11.760 0.350
13.5535 12.427 0.360
13.5739 11.979 0.353
13.5944 11.969 0.353
13.6148 11.240 0.342
13.6353 11.781 0.350
13.6558 12.260 0.357
13.6762 11.500 0.346
13.6967 12.000 0.354
13.7172 12.448 0.360
13.7376 11.667 0.349
13.7581 11.479 0.346
13.7785 12.573 0.362
13.7990 11.375 0.344
13.8195 11.906 0.352
13.8399 11.542 0.347
13.8604 12.448 0.360
13.8809 12.271 0.358
13.9013 12.833 0.366
13.9218 12.281 0.358
13.9422 12.635 0.363
13.9627 12.792 0.365
13.9832 13.219 0.371
14.0036 13.771 0.379
14.0241 13.375 0.373
14.0446 15.438 0.401
14.0650 17.146 0.423
14.0855 18.969 0.445
14.1059 21.625 0.475
14.1264 23.979 0.500
14.1469 25.479 0.515
14.1673 23.323 0.493
14.1878 20.615 0.463
14.2083 19.000 0.445
14.2287 16.771 0.418
14.2492 15.677 0.404
14.2696 14.344 0.387
14.2901 13.406 0.374
14.3106 13.938 0.381
14.3310 12.542 0.361
14.3515 12.417 0.360
14.3720 12.656 0.363
14.3924 11.906 0.352
14.4129 11.896 0.352
14.4334 11.698 0.349
14.4538 11.719 0.349
14.4743 11.229 0.342
14.4947 11.115 0.340
14.5152 11.323 0.343
14.5357 12.292 0.358
14.5561 11.594 0.348
14.5766 11.635 0.348
14.5971 11.281 0.343
14.6175 10.781 0.335
14.6380 11.250 0.342
14.6584 10.740 0.334
14.6789 10.458 0.330
14.6994 10.854 0.336
14.7198 11.115 0.340
14.7403 10.531 0.331
14.7608 10.906 0.337
14.7812 11.500 0.346
14.8017 10.865 0.336
14.8221 11.573 0.347
14.8426 10.969 0.338
14.8631 10.792 0.335
14.8835 10.396 0.329
14.9040 10.521 0.331
14.9245 10.510 0.331
14.9449 10.385 0.329
14.9654 10.417 0.329
14.9858 10.531 0.331
15.0063 11.042 0.339
15.0268 9.979 0.322
15.0472 10.656 0.333
15.0677 10.490 0.331
15.0882 10.885 0.337
15.1086 10.094 0.324
15.1291 9.979 0.322
15.1495 10.552 0.332
15.1700 10.271 0.327
15.1905 10.844 0.336
15.2109 10.333 0.328
15.2314 10.896 0.337
15.2519 10.396 0.329
15.2723 10.656 0.333
15.2928 10.719 0.334
15.3133 11.510 0.346
15.3337 11.625 0.348
15.3542 11.938 0.353
15.3746 11.219 0.342
15.3951 10.927 0.337
15.4156 11.292 0.343
15.4360 10.813 0.336
15.4565 10.583 0.332
15.4770 10.604 0.332
15.4974 10.823 0.336
15.5179 11.094 0.340
15.5383 10.833 0.336
15.5588 10.594 0.332
15.5793 10.344 0.328
15.5997 10.656 0.333
15.6202 11.323 0.343
15.6407 12.490 0.361
15.6611 12.698 0.364
15.6816 14.771 0.392
15.7020 18.906 0.444
15.7225 25.260 0.513
15.7430 32.083 0.578
15.7634 34.740 0.602
15.7839 28.354 0.543
15.8044 22.958 0.489
15.8248 15.729 0.405
15.8453 13.125 0.370
15.8657 12.229 0.357
15.8862 11.177 0.341
15.9067 10.854 0.336
15.9271 10.500 0.331
15.9476 10.552 0.332
15.9681 11.083 0.340
15.9885 10.417 0.329
16.0090 10.208 0.326
16.0295 10.354 0.328
16.0499 10.146 0.325
16.0704 10.208 0.326
16.0908 10.125 0.325
16.1113 10.625 0.333
16.1318 10.365 0.329
16.1522 10.167 0.325
16.1727 9.948 0.322
16.1932 10.073 0.324
16.2136 10.646 0.333
16.2341 10.427 0.330
16.2545 10.385 0.329
16.2750 10.292 0.327
16.2955 10.188 0.326
16.3159 11.083 0.340
16.3364 10.146 0.325
16.3569 10.490 0.331
16.3773 9.979 0.322
16.3978 10.302 0.328
16.4182 9.792 0.319
16.4387 10.438 0.330
16.4592 10.500 0.331
16.4796 9.688 0.318
16.5001 10.479 0.330
16.5206 10.365 0.329
16.5410 10.094 0.324
16.5615 10.167 0.325
16.5819 10.146 0.325
16.6024 10.844 0.336
16.6229 10.250 0.327
16.6433 9.281 0.311
16.6638 10.552 0.332
16.6843 10.208 0.326
16.7047 11.073 0.340
16.7252 10.208 0.326
16.7456 10.594 0.332
16.7661 10.917 0.337
16.7866 10.073 0.324
16.8070 10.271 0.327
16.8275 10.281 0.327
16.8480 10.635 0.333
16.8684 10.417 0.329
16.8889 10.167 0.325
16.9094 10.750 0.335
16.9298 11.229 0.342
16.9503 11.635 0.348
16.9707 11.448 0.345
16.9912 10.906 0.337
17.0117 10.781 0.335
17.0321 10.938 0.338
17.0526 10.906 0.337
17.0731 10.458 0.330
17.0935 10.563 0.332
17.1140 11.479 0.346
17.1344 10.958 0.338
17.1549 11.521 0.346
17.1754 11.563 0.347
17.1958 11.438 0.345
17.2163 11.458 0.345
17.2368 10.531 0.331
17.2572 11.552 0.347
17.2777 11.333 0.344
17.2981 11.604 0.348
17.3186 11.469 0.346
17.3391 11.646 0.348
17.3595 11.688 0.349
17.3800 11.667 0.349
17.4005 12.417 0.360
17.4209 12.573 0.362
17.4414 12.688 0.364
17.4618 12.719 0.364
17.4823 12.458 0.360
17.5028 12.479 0.361
17.5232 12.677 0.363
17.5437 12.583 0.362
17.5642 13.083 0.369
17.5846 13.385 0.373
17.6051 13.469 0.375
17.6255 13.104 0.369
17.6460 13.563 0.376
17.6665 13.604 0.376
17.6869 13.292 0.372
17.7074 14.271 0.386
17.7279 15.125 0.397
17.7483 15.792 0.406
17.7688 16.552 0.415
17.7893 18.969 0.445
17.8097 19.271 0.448
17.8302 18.031 0.433
17.8506 18.375 0.438
17.8711 17.823 0.431
17.8916 17.125 0.422
17.9120 17.479 0.427
17.9325 17.708 0.429
17.9530 16.583 0.416
17.9734 17.021 0.421
17.9939 16.583 0.416
18.0143 17.646 0.429
18.0348 18.333 0.437
18.0553 18.948 0.444
18.0757 19.521 0.451
18.0962 18.458 0.438
18.1167 19.927 0.456
18.1371 18.875 0.443
18.1576 19.729 0.453
18.1780 19.729 0.453
18.1985 20.063 0.457
18.2190 19.979 0.456
18.2394 21.104 0.469
18.2599 21.802 0.477
18.2804 21.906 0.478
18.3008 21.698 0.475
18.3213 22.104 0.480
18.3417 22.844 0.488
18.3622 21.885 0.477
18.3827 23.469 0.494
18.4031 23.375 0.493
18.4236 22.906 0.488
18.4441 22.635 0.486
18.4645 22.667 0.486
18.4850 22.344 0.482
18.5054 22.719 0.486
18.5259 22.094 0.480
18.5464 22.719 0.486
18.5668 22.010 0.479
18.5873 22.656 0.486
18.6078 22.000 0.479
18.6282 21.135 0.469
18.6487 22.375 0.483
18.6692 21.542 0.474
18.6896 21.156 0.469
18.7101 21.604 0.474
18.7305 21.479 0.473
18.7510 20.813 0.466
18.7715 21.146 0.469
18.7919 21.427 0.472
18.8124 22.594 0.485
18.8329 23.885 0.499
18.8533 24.948 0.510
18.8738 25.260 0.513
18.8942 24.854 0.509
18.9147 21.448 0.473
18.9352 20.635 0.464
18.9556 19.188 0.447
18.9761 18.490 0.439
18.9966 18.042 0.434
19.0170 18.031 0.433
19.0375 17.990 0.433
19.0579 18.313 0.437
19.0784 18.281 0.436
19.0989 18.792 0.442
19.1193 17.729 0.430
19.1398 18.990 0.445
19.1603 19.135 0.446
19.1807 19.021 0.445
19.2012 19.313 0.449
19.2216 19.042 0.445
19.2421 18.313 0.437
19.2626 19.688 0.453
19.2830 19.365 0.449
19.3035 19.604 0.452
19.3240 20.323 0.460
19.3444 20.979 0.467
19.3649 21.240 0.470
19.3853 21.323 0.471
19.4058 21.698 0.475
19.4263 22.677 0.486
19.4467 23.313 0.493
19.4672 24.229 0.502
19.4877 23.833 0.498
19.5081 24.844 0.509
19.5286 26.667 0.527
19.5491 28.740 0.547
19.5695 29.625 0.556
19.5900 32.156 0.579
19.6104 33.885 0.594
19.6309 36.958 0.620
19.6514 40.167 0.647
19.6718 42.823 0.668
19.6923 48.688 0.712
19.7128 57.448 0.774
19.7332 72.563 0.869
19.7537 99.427 1.018
19.7741 139.698 1.206
19.7946 218.385 1.508
19.8151 309.594 1.796
19.8355 317.927 1.820
19.8560 247.521 1.606
19.8765 199.333 1.441
19.8969 133.938 1.181
19.9174 76.865 0.895
19.9378 52.917 0.742
19.9583 43.771 0.675
19.9788 37.146 0.622
19.9992 32.771 0.584
20.0197 30.625 0.565
20.0402 30.115 0.560
20.0606 27.344 0.534
20.0811 26.490 0.525
20.1015 24.458 0.505
20.1220 24.167 0.502
20.1425 23.875 0.499
20.1629 21.969 0.478
20.1834 21.750 0.476
20.2039 20.927 0.467
20.2243 20.938 0.467
20.2448 21.177 0.470
20.2653 20.333 0.460
20.2857 19.823 0.454
20.3062 20.500 0.462
20.3266 20.302 0.460
20.3471 19.427 0.450
20.3676 20.188 0.459
20.3880 20.740 0.465
20.4085 20.667 0.464
20.4290 19.677 0.453
20.4494 19.177 0.447
20.4699 19.396 0.449
20.4903 19.167 0.447
20.5108 18.948 0.444
20.5313 18.896 0.444
20.5517 18.510 0.439
20.5722 18.240 0.436
20.5927 18.333 0.437
20.6131 17.688 0.429
20.6336 17.333 0.425
20.6540 16.094 0.409
20.6745 16.146 0.410
20.6950 16.781 0.418
20.7154 16.229 0.411
20.7359 15.000 0.395
20.7564 15.427 0.401
20.7768 15.885 0.407
20.7973 14.833 0.393
20.8177 14.719 0.392
20.8382 14.302 0.386
20.8587 14.115 0.383
20.8791 14.708 0.391
20.8996 14.323 0.386
20.9201 13.823 0.379
20.9405 13.927 0.381
20.9610 14.354 0.387
20.9814 13.010 0.368
21.0019 13.844 0.380
21.0224 13.760 0.379
21.0428 13.969 0.381
21.0633 13.750 0.378
21.0838 13.125 0.370
21.1042 13.979 0.382
21.1247 14.802 0.393
21.1452 14.917 0.394
21.1656 15.604 0.403
21.1861 16.177 0.411
21.2065 18.969 0.445
21.2270 22.167 0.481
21.2475 23.083 0.490
21.2679 25.531 0.516
21.2884 26.750 0.528
21.3089 26.563 0.526
21.3293 24.385 0.504
21.3498 23.510 0.495
21.3702 20.073 0.457
21.3907 18.969 0.445
21.4112 17.198 0.423
21.4316 16.125 0.410
21.4521 15.677 0.404
21.4726 14.052 0.383
21.4930 13.896 0.380
21.5135 14.479 0.388
21.5339 13.521 0.375
21.5544 12.354 0.359
21.5749 13.438 0.374
21.5953 12.729 0.364
21.6158 12.927 0.367
21.6363 12.385 0.359
21.6567 12.083 0.355
21.6772 12.104 0.355
21.6976 11.438 0.345
21.7181 11.854 0.351
21.7386 11.552 0.347
21.7590 11.927 0.352
21.7795 12.698 0.364
21.8000 11.667 0.349
21.8204 10.906 0.337
21.8409 12.094 0.355
21.8613 11.771 0.350
21.8818 11.708 0.349
21.9023 12.042 0.354
21.9227 12.052 0.354
21.9432 11.802 0.351
21.9637 11.833 0.351
21.9841 13.021 0.368
22.0046 13.156 0.370
22.0251 14.271 0.386
22.0455 14.646 0.391
22.0660 15.823 0.406
22.0864 17.354 0.425
22.1069 18.083 0.434
22.1274 22.635 0.486
22.1478 28.896 0.549
22.1683 35.500 0.608
22.1888 37.156 0.622
22.2092 33.948 0.595
22.2297 31.979 0.577
22.2501 26.688 0.527
22.2706 22.875 0.488
22.2911 19.635 0.452
22.3115 17.271 0.424
22.3320 15.146 0.397
22.3525 14.875 0.394
22.3729 15.281 0.399
22.3934 14.188 0.384
22.4138 13.708 0.378
22.4343 13.219 0.371
22.4548 12.073 0.355
22.4752 12.500 0.361
22.4957 12.604 0.362
22.5162 12.313 0.358
22.5366 12.104 0.355
22.5571 11.365 0.344
22.5775 11.542 0.347
22.5980 10.719 0.334
22.6185 11.177 0.341
22.6389 11.500 0.346
22.6594 10.854 0.336
22.6799 10.885 0.337
22.7003 11.125 0.340
22.7208 11.635 0.348
22.7412 11.406 0.345
22.7617 11.198 0.342
22.7822 12.188 0.356
22.8026 11.719 0.349
22.8231 12.844 0.366
22.8436 14.719 0.392
22.8640 17.385 0.426
22.8845 20.469 0.462
22.9050 18.760 0.442
22.9254 17.521 0.427
22.9459 17.365 0.425
22.9663 13.969 0.381
22.9868 13.125 0.370
23.0073 11.521 0.346
23.0277 11.229 0.342
23.0482 11.198 0.342
23.0687 10.302 0.328
23.0891 10.208 0.326
23.1096 10.677 0.333
23.1300 10.906 0.337
23.1505 9.490 0.314
23.1710 9.823 0.320
23.1914 10.281 0.327
23.2119 10.010 0.323
23.2324 9.656 0.317
23.2528 9.646 0.317
23.2733 9.823 0.320
23.2937 9.771 0.319
23.3142 9.813 0.320
23.3347 9.208 0.310
23.3551 9.979 0.322
23.3756 9.969 0.322
23.3961 9.875 0.321
23.4165 9.000 0.306
23.4370 9.760 0.319
23.4574 9.813 0.320
23.4779 9.344 0.312
23.4984 9.427 0.313
23.5188 9.302 0.311
23.5393 10.240 0.327
23.5598 9.698 0.318
23.5802 9.656 0.317
23.6007 9.063 0.307
23.6211 9.260 0.311
23.6416 9.646 0.317
23.6621 9.198 0.310
23.6825 9.281 0.311
23.7030 9.844 0.320
23.7235 8.688 0.301
23.7439 9.188 0.309
23.7644 9.240 0.310
23.7849 9.552 0.315
23.8053 9.229 0.310
23.8258 9.146 0.309
23.8462 8.552 0.298
23.8667 8.875 0.304
23.8872 8.646 0.300
23.9076 9.125 0.308
23.9281 9.604 0.316
23.9486 8.958 0.305
23.9690 8.990 0.306
23.9895 9.188 0.309
24.0099 9.208 0.310
24.0304 9.208 0.310
24.0509 8.958 0.305
24.0713 9.417 0.313
24.0918 9.094 0.308
24.1123 9.490 0.314
24.1327 9.281 0.311
24.1532 9.313 0.311
24.1736 10.656 0.333
24.1941 9.677 0.317
24.2146 10.104 0.324
24.2350 9.948 0.322
24.2555 10.417 0.329
24.2760 10.427 0.330
24.2964 10.979 0.338
24.3169 11.427 0.345
24.3373 11.417 0.345
24.3578 10.760 0.335
24.3783 10.781 0.335
24.3987 10.281 0.327
24.4192 10.167 0.325
24.4397 9.375 0.313
24.4601 9.604 0.316
24.4806 8.979 0.306
24.5011 9.000 0.306
24.5215 9.219 0.310
24.5420 9.552 0.315
24.5624 9.417 0.313
24.5829 9.042 0.307
24.6034 10.031 0.323
24.6238 10.177 0.326
24.6443 10.635 0.333
24.6648 10.563 0.332
24.6852 11.104 0.340
24.7057 9.656 0.317
24.7261 9.438 0.314
24.7466 9.865 0.321
24.7671 9.271 0.311
24.7875 8.750 0.302
24.8080 8.875 0.304
24.8285 8.906 0.305
24.8489 9.000 0.306
24.8694 8.333 0.295
24.8898 8.667 0.300
24.9103 8.677 0.301
24.9308 8.552 0.298
24.9512 8.844 0.304
24.9717 8.396 0.296
24.9922 8.854 0.304
25.0126 8.615 0.300
25.0331 8.396 0.296
25.0535 8.375 0.295
25.0740 8.688 0.301
25.0945 8.656 0.300
25.1149 8.313 0.294
25.1354 8.677 0.301
25.1559 8.365 0.295
25.1763 8.490 0.297
25.1968 8.448 0.297
25.2172 8.573 0.299
25.2377 8.865 0.304
25.2582 8.667 0.300
25.2786 9.063 0.307
25.2991 8.208 0.292
25.3196 8.479 0.297
25.3400 8.521 0.298
25.3605 8.260 0.293
25.3810 8.167 0.292
25.4014 8.375 0.295
25.4219 8.583 0.299
25.4423 8.833 0.303
25.4628 8.250 0.293
25.4833 8.323 0.294
25.5037 10.104 0.324
25.5242 10.677 0.333
25.5447 12.927 0.367
25.5651 14.646 0.391
25.5856 14.156 0.384
25.6060 13.510 0.375
25.6265 12.646 0.363
25.6470 11.542 0.347
25.6674 10.813 0.336
25.6879 9.635 0.317
25.7084 8.802 0.303
25.7288 9.354 0.312
25.7493 8.490 0.297
25.7697 8.979 0.306
25.7902 8.969 0.306
25.8107 9.104 0.308
25.8311 8.698 0.301
25.8516 8.115 0.291
25.8721 8.375 0.295
25.8925 8.906 0.305
25.9130 8.531 0.298
25.9334 8.604 0.299
25.9539 8.979 0.306
25.9744 8.823 0.303
25.9948 8.760 0.302
26.0153 8.875 0.304
26.0358 9.188 0.309
26.0562 9.021 0.307
26.0767 8.625 0.300
26.0971 8.885 0.304
26.1176 8.615 0.300
26.1381 8.646 0.300
26.1585 8.563 0.299
26.1790 9.031 0.307
26.1995 8.427 0.296
26.2199 8.500 0.298
26.2404 8.979 0.306
26.2609 8.781 0.302
26.2813 8.615 0.300
26.3018 8.667 0.300
26.3222 8.365 0.295
26.3427 8.229 0.293
26.3632 8.823 0.303
26.3836 8.021 0.289
26.4041 8.646 0.300
26.4246 8.104 0.291
26.4450 8.448 0.297
26.4655 8.802 0.303
26.4859 8.510 0.298
26.5064 8.604 0.299
26.5269 8.646 0.300
26.5473 8.448 0.297
26.5678 8.406 0.296
26.5883 8.313 0.294
26.6087 8.490 0.297
26.6292 8.333 0.295
26.6496 7.896 0.287
26.6701 8.646 0.300
26.6906 8.427 0.296
26.7110 8.573 0.299
26.7315 8.563 0.299
26.7520 8.396 0.296
26.7724 7.979 0.288
26.7929 8.906 0.305
26.8133 8.542 0.298
26.8338 8.354 0.295
26.8543 8.354 0.295
26.8747 7.563 0.281
26.8952 7.990 0.288
26.9157 8.646 0.300
26.9361 8.073 0.290
26.9566 8.219 0.293
26.9770 8.229 0.293
26.9975 8.583 0.299
27.0180 8.771 0.302
27.0384 8.625 0.300
27.0589 8.354 0.295
27.0794 9.031 0.307
27.0998 8.573 0.299
27.1203 8.406 0.296
27.1408 8.771 0.302
27.1612 8.813 0.303
27.1817 8.406 0.296
27.2021 9.156 0.309
27.2226 9.563 0.316
27.2431 9.885 0.321
27.2635 9.219 0.310
27.2840 9.667 0.317
27.3045 8.927 0.305
27.3249 8.896 0.304
27.3454 8.740 0.302
27.3658 8.365 0.295
27.3863 9.063 0.307
27.4068 9.688 0.318
27.4272 10.354 0.328
27.4477 12.490 0.361
27.4682 13.042 0.369
27.4886 11.615 0.348
27.5091 10.365 0.329
27.5295 10.979 0.338
27.5500 10.448 0.330
27.5705 9.354 0.312
27.5909 8.292 0.294
27.6114 8.344 0.295
27.6319 8.302 0.294
27.6523 8.906 0.305
27.6728 8.740 0.302
27.6932 8.938 0.305
27.7137 8.469 0.297
27.7342 8.354 0.295
27.7546 8.458 0.297
27.7751 8.583 0.299
27.7956 8.073 0.290
27.8160 8.500 0.298
27.8365 8.521 0.298
27.8569 8.854 0.304
27.8774 8.167 0.292
27.8979 8.250 0.293
27.9183 7.552 0.280
27.9388 8.240 0.293
27.9593 8.021 0.289
27.9797 8.052 0.290
28.0002 7.896 0.287
28.0207 8.167 0.292
28.0411 8.219 0.293
28.0616 8.458 0.297
28.0820 8.031 0.289
28.1025 8.427 0.296
28.1230 8.667 0.300
28.1434 7.708 0.283
28.1639 8.146 0.291
28.1844 8.365 0.295
28.2048 7.708 0.283
28.2253 8.510 0.298
28.2457 7.906 0.287
28.2662 8.052 0.290
28.2867 8.313 0.294
28.3071 8.010 0.289
28.3276 7.938 0.288
28.3481 8.375 0.295
28.3685 7.969 0.288
28.3890 7.302 0.276
28.4094 8.240 0.293
28.4299 8.188 0.292
28.4504 8.281 0.294
28.4708 8.167 0.292
28.4913 7.906 0.287
28.5118 8.156 0.291
28.5322 8.010 0.289
28.5527 8.000 0.289
28.5731 7.979 0.288
28.5936 8.052 0.290
28.6141 7.948 0.288
28.6345 7.844 0.286
28.6550 7.646 0.282
28.6755 8.177 0.292
28.6959 8.208 0.292
28.7164 7.938 0.288
28.7368 8.073 0.290
28.7573 8.594 0.299
28.7778 8.010 0.289
28.7982 7.896 0.287
28.8187 7.927 0.287
28.8392 8.229 0.293
28.8596 7.688 0.283
28.8801 7.917 0.287
28.9006 7.771 0.285
28.9210 7.708 0.283
28.9415 7.583 0.281
28.9619 7.563 0.281
28.9824 7.396 0.278
29.0029 7.802 0.285
29.0233 7.760 0.284
29.0438 7.906 0.287
29.0643 7.698 0.283
29.0847 8.521 0.298
29.1052 8.125 0.291
29.1256 8.010 0.289
29.1461 7.615 0.282
29.1666 7.917 0.287
29.1870 7.823 0.285
29.2075 7.802 0.285
29.2280 7.656 0.282
29.2484 7.146 0.273
29.2689 7.896 0.287
29.2893 7.531 0.280
29.3098 7.823 0.285
29.3303 7.552 0.280
29.3507 7.802 0.285
29.3712 7.990 0.288
29.3917 8.698 0.301
29.4121 8.333 0.295
29.4326 7.917 0.287
29.4530 8.042 0.289
29.4735 7.635 0.282
29.4940 8.229 0.293
29.5144 8.240 0.293
29.5349 8.385 0.296
29.5554 8.563 0.299
29.5758 8.521 0.298
29.5963 8.042 0.289
29.6168 8.229 0.293
29.6372 8.760 0.302
29.6577 8.250 0.293
29.6781 7.667 0.283
29.6986 8.240 0.293
29.7191 7.802 0.285
29.7395 8.115 0.291
29.7600 7.229 0.274
29.7805 7.969 0.288
29.8009 7.813 0.285
29.8214 7.500 0.280
29.8418 7.906 0.287
29.8623 7.729 0.284
29.8828 7.927 0.287
29.9032 7.281 0.275
29.9237 7.615 0.282
29.9442 7.833 0.286
29.9646 7.719 0.284
29.9851 7.344 0.277
30.0055 7.771 0.285
30.0260 7.906 0.287
30.0465 7.667 0.283
30.0669 7.281 0.275
30.0874 7.448 0.279
30.1079 7.740 0.284
30.1283 7.927 0.287
30.1488 7.521 0.280
30.1692 7.469 0.279
30.1897 7.396 0.278
30.2102 7.385 0.277
30.2306 6.740 0.265
30.2511 7.656 0.282
30.2716 7.385 0.277
30.2920 7.417 0.278
30.3125 7.021 0.270
30.3329 7.302 0.276
30.3534 7.042 0.271
30.3739 7.688 0.283
30.3943 7.375 0.277
30.4148 7.688 0.283
30.4353 7.260 0.275
30.4557 7.302 0.276
30.4762 7.365 0.277
30.4967 7.115 0.272
30.5171 7.250 0.275
30.5376 7.021 0.270
30.5580 7.521 0.280
30.5785 7.698 0.283
30.5990 7.990 0.288
30.6194 7.917 0.287
30.6399 7.292 0.276
30.6604 7.708 0.283
30.6808 8.198 0.292
30.7013 7.583 0.281
30.7217 8.427 0.296
30.7422 7.917 0.287
30.7627 7.656 0.282
30.7831 7.781 0.285
30.8036 8.344 0.295
30.8241 8.854 0.304
30.8445 9.406 0.313
30.8650 9.760 0.319
30.8854 9.385 0.313
30.9059 11.667 0.349
30.9264 12.594 0.362
30.9468 15.635 0.404
30.9673 20.396 0.461
30.9878 27.063 0.531
31.0082 32.365 0.581
31.0287 33.198 0.588
31.0491 31.479 0.573
31.0696 29.510 0.554
31.0901 26.229 0.523
31.1105 24.146 0.502
31.1310 19.854 0.455
31.1515 16.458 0.414
31.1719 14.229 0.385
31.1924 11.896 0.352
31.2128 10.010 0.323
31.2333 9.802 0.320
31.2538 9.250 0.310
31.2742 8.990 0.306
31.2947 9.396 0.313
31.3152 8.896 0.304
31.3356 8.542 0.298
31.3561 8.563 0.299
31.3766 8.729 0.302
31.3970 8.313 0.294
31.4175 8.385 0.296
31.4379 8.219 0.293
31.4584 8.260 0.293
31.4789 8.156 0.291
31.4993 7.333 0.276
31.5198 7.448 0.279
31.5403 8.219 0.293
31.5607 7.563 0.281
31.5812 7.344 0.277
31.6016 7.781 0.285
31.6221 7.771 0.285
31.6426 7.885 0.287
31.6630 7.813 0.285
31.6835 7.740 0.284
31.7040 7.594 0.281
31.7244 7.396 0.278
31.7449 7.781 0.285
31.7653 7.854 0.286
31.7858 8.667 0.300
31.8063 8.875 0.304
31.8267 8.927 0.305
31.8472 7.750 0.284
31.8677 8.240 0.293
31.8881 8.635 0.300
31.9086 8.844 0.304
31.9290 7.552 0.280
31.9495 8.115 0.291
31.9700 7.938 0.288
31.9904 8.271 0.294
32.0109 8.333 0.295
32.0314 8.448 0.297
32.0518 8.771 0.302
32.0723 9.771 0.319
32.0927 9.313 0.311
32.1132 10.188 0.326
32.1337 10.302 0.328
32.1541 10.760 0.335
32.1746 13.094 0.369
32.1951 15.365 0.400
32.2155 15.302 0.399
32.2360 13.396 0.374
32.2565 12.719 0.364
32.2769 12.844 0.366
32.2974 12.917 0.367
32.3178 10.344 0.328
32.3383 10.448 0.330
32.3588 9.198 0.310
32.3792 9.229 0.310
32.3997 8.688 0.301
32.4202 9.854 0.320
32.4406 9.010 0.306
32.4611 10.229 0.326
32.4815 9.990 0.323
32.5020 10.531 0.331
32.5225 10.458 0.330
32.5429 11.792 0.350
32.5634 12.510 0.361
32.5839 14.146 0.384
32.6043 15.510 0.402
32.6248 16.708 0.417
32.6452 16.021 0.409
32.6657 14.125 0.384
32.6862 13.677 0.377
32.7066 13.063 0.369
32.7271 12.063 0.354
32.7476 10.479 0.330
32.7680 9.469 0.314
32.7885 9.396 0.313
32.8089 9.010 0.306
32.8294 8.729 0.302
32.8499 8.052 0.290
32.8703 7.677 0.283
32.8908 8.156 0.291
32.9113 8.531 0.298
32.9317 8.510 0.298
32.9522 8.292 0.294
32.9726 7.438 0.278
32.9931 8.302 0.294
33.0136 7.344 0.277
33.0340 7.760 0.284
33.0545 7.510 0.280
33.0750 8.073 0.290
33.0954 7.427 0.278
33.1159 8.594 0.299
33.1364 8.719 0.301
33.1568 8.469 0.297
33.1773 8.333 0.295
33.1977 8.063 0.290
33.2182 7.865 0.286
33.2387 8.323 0.294
33.2591 8.219 0.293
33.2796 7.594 0.281
33.3001 7.542 0.280
33.3205 8.042 0.289
33.3410 8.396 0.296
33.3614 8.448 0.297
33.3819 8.281 0.294
33.4024 8.146 0.291
33.4228 7.979 0.288
33.4433 8.104 0.291
33.4638 7.948 0.288
33.4842 8.135 0.291
33.5047 7.906 0.287
33.5251 7.427 0.278
33.5456 8.188 0.292
33.5661 7.896 0.287
33.5865 7.323 0.276
33.6070 7.104 0.272
33.6275 6.885 0.268
33.6479 7.094 0.272
33.6684 7.594 0.281
33.6888 7.219 0.274
33.7093 7.479 0.279
33.7298 6.948 0.269
33.7502 7.000 0.270
33.7707 7.010 0.270
33.7912 7.063 0.271
33.8116 6.917 0.268
33.8321 7.125 0.272
33.8526 6.698 0.264
33.8730 7.594 0.281
33.8935 6.302 0.256
33.9139 7.552 0.280
33.9344 7.240 0.275
33.9549 7.625 0.282
33.9753 7.531 0.280
33.9958 7.760 0.284
34.0163 7.385 0.277
34.0367 7.208 0.274
34.0572 8.000 0.289
34.0776 7.510 0.280
34.0981 7.688 0.283
34.1186 8.208 0.292
34.1390 8.833 0.303
34.1595 9.302 0.311
34.1800 11.156 0.341
34.2004 12.188 0.356
34.2209 12.448 0.360
34.2413 12.573 0.362
34.2618 11.656 0.348
34.2823 11.490 0.346
34.3027 11.583 0.347
34.3232 10.813 0.336
34.3437 9.542 0.315
34.3641 9.156 0.309
34.3846 8.750 0.302
34.4050 8.792 0.303
34.4255 7.990 0.288
34.4460 8.135 0.291
34.4664 7.646 0.282
34.4869 7.625 0.282
34.5074 7.583 0.281
34.5278 7.479 0.279
34.5483 7.729 0.284
34.5687 7.583 0.281
34.5892 7.385 0.277
34.6097 7.479 0.279
34.6301 7.583 0.281
34.6506 6.875 0.268
34.6711 7.531 0.280
34.6915 7.792 0.285
34.7120 7.073 0.271
34.7325 7.552 0.280
34.7529 7.906 0.287
34.7734 8.042 0.289
34.7938 7.729 0.284
34.8143 7.698 0.283
34.8348 7.854 0.286
34.8552 8.604 0.299
34.8757 9.177 0.309
34.8962 10.552 0.332
34.9166 12.000 0.354
34.9371 14.979 0.395
34.9575 15.542 0.402
34.9780 13.052 0.369
34.9985 11.073 0.340
35.0189 11.896 0.352
35.0394 11.260 0.342
35.0599 10.313 0.328
35.0803 9.240 0.310
35.1008 9.042 0.307
35.1212 7.708 0.283
35.1417 7.885 0.287
35.1622 8.354 0.295
35.1826 7.792 0.285
35.2031 7.448 0.279
35.2236 7.542 0.280
35.2440 7.219 0.274
35.2645 7.563 0.281
35.2849 7.333 0.276
35.3054 7.635 0.282
35.3259 7.844 0.286
35.3463 7.844 0.286
35.3668 7.781 0.285
35.3873 7.292 0.276
35.4077 7.313 0.276
35.4282 7.760 0.284
35.4486 7.344 0.277
35.4691 7.938 0.288
35.4896 7.906 0.287
35.5100 8.490 0.297
35.5305 8.573 0.299
35.5510 7.740 0.284
35.5714 8.385 0.296
35.5919 8.125 0.291
35.6124 7.594 0.281
35.6328 7.760 0.284
35.6533 8.208 0.292
35.6737 8.302 0.294
35.6942 8.052 0.290
35.7147 7.594 0.281
35.7351 8.344 0.295
35.7556 8.406 0.296
35.7761 8.781 0.302
35.7965 8.823 0.303
35.8170 9.146 0.309
35.8374 8.719 0.301
35.8579 9.104 0.308
35.8784 10.104 0.324
35.8988 9.479 0.314
35.9193 10.104 0.324
35.9398 9.979 0.322
35.9602 10.656 0.333
35.9807 11.167 0.341
36.0011 11.073 0.340
36.0216 11.708 0.349
36.0421 11.760 0.350
36.0625 12.323 0.358
36.0830 12.781 0.365
36.1035 12.542 0.361
36.1239 12.677 0.363
36.1444 12.656 0.363
36.1648 12.865 0.366
36.1853 12.260 0.357
36.2058 12.073 0.355
36.2262 12.729 0.364
36.2467 11.792 0.350
36.2672 11.760 0.350
36.2876 11.760 0.350
36.3081 12.135 0.356
36.3285 11.219 0.342
36.3490 12.219 0.357
36.3695 11.573 0.347
36.3899 12.031 0.354
36.4104 12.104 0.355
36.4309 12.208 0.357
36.4513 12.854 0.366
36.4718 13.719 0.378
36.4923 13.906 0.381
36.5127 14.802 0.393
36.5332 15.844 0.406
36.5536 16.375 0.413
36.5741 19.302 0.448
36.5946 20.198 0.459
36.6150 20.719 0.465
36.6355 18.740 0.442
36.6560 18.458 0.438
36.6764 18.073 0.434
36.6969 17.573 0.428
36.7173 16.094 0.409
36.7378 15.302 0.399
36.7583 14.000 0.382
36.7787 14.500 0.389
36.7992 14.563 0.389
36.8197 14.323 0.386
36.8401 13.958 0.381
36.8606 14.271 0.386
36.8810 15.177 0.398
36.9015 14.375 0.387
36.9220 15.010 0.395
36.9424 15.406 0.401
36.9629 15.917 0.407
36.9834 18.208 0.436
37.0038 19.615 0.452
37.0243 22.396 0.483
37.0447 25.469 0.515
37.0652 28.156 0.542
37.0857 28.302 0.543
37.1061 25.823 0.519
37.1266 24.625 0.506
37.1471 23.667 0.497
37.1675 22.615 0.485
37.1880 21.448 0.473
37.2084 19.917 0.455
37.2289 18.052 0.434
37.2494 17.781 0.430
37.2698 16.542 0.415
37.2903 14.917 0.394
37.3108 14.417 0.388
37.3312 14.500 0.389
37.3517 12.875 0.366
37.3722 12.906 0.367
37.3926 12.688 0.364
37.4131 12.094 0.355
37.4335 11.938 0.353
37.4540 11.781 0.350
37.4745 11.396 0.345
37.4949 11.250 0.342
37.5154 11.344 0.344
37.5359 10.948 0.338
37.5563 10.271 0.327
37.5768 10.698 0.334
37.5972 10.958 0.338
37.6177 10.615 0.333
37.6382 10.438 0.330
37.6586 10.656 0.333
37.6791 10.906 0.337
37.6996 10.448 0.330
37.7200 9.979 0.322
37.7405 11.250 0.342
37.7609 10.563 0.332
37.7814 11.313 0.343
37.8019 11.344 0.344
37.8223 11.198 0.342
37.8428 11.688 0.349
37.8633 11.635 0.348
37.8837 12.354 0.359
37.9042 12.229 0.357
37.9246 13.688 0.378
37.9451 13.115 0.370
37.9656 15.323 0.400
37.9860 16.615 0.416
38.0065 19.375 0.449
38.0270 20.281 0.460
38.0474 19.073 0.446
38.0679 18.667 0.441
38.0884 17.521 0.427
38.1088 16.813 0.418
38.1293 16.229 0.411
38.1497 15.167 0.397
38.1702 14.396 0.387
38.1907 13.948 0.381
38.2111 12.615 0.362
38.2316 12.917 0.367
38.2521 12.854 0.366
38.2725 12.948 0.367
38.2930 11.896 0.352
38.3134 11.406 0.345
38.3339 12.354 0.359
38.3544 11.302 0.343
38.3748 11.479 0.346
38.3953 12.354 0.359
38.4158 12.958 0.367
38.4362 14.208 0.385
38.4567 13.802 0.379
38.4771 13.792 0.379
38.4976 13.010 0.368
38.5181 12.688 0.364
38.5385 12.563 0.362
38.5590 12.271 0.358
38.5795 11.458 0.345
38.5999 10.969 0.338
38.6204 10.917 0.337
38.6408 10.521 0.331
38.6613 10.667 0.333
38.6818 10.438 0.330
38.7022 9.906 0.321
38.7227 9.896 0.321
38.7432 9.740 0.319
38.7636 9.646 0.317
38.7841 8.865 0.304
38.8045 9.094 0.308
38.8250 9.510 0.315
38.8455 8.979 0.306
38.8659 9.250 0.310
38.8864 9.021 0.307
38.9069 9.313 0.311
38.9273 8.844 0.304
38.9478 9.375 0.313
38.9683 8.750 0.302
38.9887 8.302 0.294
39.0092 9.021 0.307
39.0296 8.802 0.303
39.0501 9.042 0.307
39.0706 9.625 0.317
39.0910 8.781 0.302
39.1115 8.906 0.305
39.1320 8.896 0.304
39.1524 8.656 0.300
39.1729 8.906 0.305
39.1933 8.250 0.293
39.2138 8.083 0.290
39.2343 9.083 0.308
39.2547 8.396 0.296
39.2752 8.719 0.301
39.2957 8.635 0.300
39.3161 8.656 0.300
39.3366 8.458 0.297
39.3570 8.854 0.304
39.3775 9.125 0.308
39.3980 8.844 0.304
39.4184 8.490 0.297
39.4389 8.510 0.298
39.4594 8.385 0.296
39.4798 9.031 0.307
39.5003 8.427 0.296
39.5207 9.323 0.312
39.5412 8.677 0.301
39.5617 8.875 0.304
39.5821 8.698 0.301
39.6026 9.271 0.311
39.6231 8.833 0.303
39.6435 9.073 0.307
39.6640 8.604 0.299
39.6844 8.938 0.305
39.7049 9.896 0.321
39.7254 9.490 0.314
39.7458 10.500 0.331
39.7663 10.771 0.335
39.7868 11.229 0.342
39.8072 11.333 0.344
39.8277 10.760 0.335
39.8482 9.865 0.321
39.8686 9.990 0.323
39.8891 10.271 0.327
39.9095 10.073 0.324
39.9300 9.615 0.316
39.9505 9.438 0.314
39.9709 9.010 0.306
39.9914 9.031 0.307
40.0119 9.135 0.308
40.0323 9.427 0.313
40.0528 9.583 0.316
40.0732 9.094 0.308
40.0937 8.802 0.303
40.1142 9.063 0.307
40.1346 8.958 0.305
40.1551 9.823 0.320
40.1756 10.438 0.330
40.1960 10.969 0.338
40.2165 12.063 0.354
40.2369 14.250 0.385
40.2574 15.823 0.406
40.2779 16.750 0.418
40.2983 15.167 0.397
40.3188 13.615 0.377
40.3393 14.417 0.388
40.3597 14.583 0.390
40.3802 13.563 0.376
40.4006 12.406 0.359
40.4211 11.281 0.343
40.4416 11.292 0.343
40.4620 9.708 0.318
40.4825 9.729 0.318
40.5030 9.490 0.314
40.5234 8.938 0.305
40.5439 8.750 0.302
40.5643 9.042 0.307
40.5848 9.198 0.310
40.6053 9.042 0.307
40.6257 8.594 0.299
40.6462 8.594 0.299
40.6667 9.490 0.314
40.6871 9.625 0.317
40.7076 9.750 0.319
40.7281 10.667 0.333
40.7485 12.375 0.359
40.7690 13.260 0.372
40.7894 14.542 0.389
40.8099 13.177 0.370
40.8304 12.250 0.357
40.8508 11.260 0.342
40.8713 12.031 0.354
40.8918 12.865 0.366
40.9122 12.063 0.354
40.9327 11.063 0.339
40.9531 9.688 0.318
40.9736 9.854 0.320
40.9941 10.240 0.327
41.0145 10.354 0.328
41.0350 10.635 0.333
41.0555 11.375 0.344
41.0759 12.646 0.363
41.0964 14.031 0.382
41.1168 14.875 0.394
41.1373 15.115 0.397
41.1578 14.406 0.387
41.1782 13.656 0.377
41.1987 13.604 0.376
41.2192 13.760 0.379
41.2396 13.208 0.371
41.2601 12.656 0.363
41.2805 11.917 0.352
41.3010 10.677 0.333
41.3215 9.510 0.315
41.3419 9.719 0.318
41.3624 9.906 0.321
41.3829 8.875 0.304
41.4033 7.896 0.287
41.4238 8.917 0.305
41.4442 8.677 0.301
41.4647 8.719 0.301
41.4852 7.677 0.283
41.5056 8.250 0.293
41.5261 7.917 0.287
41.5466 8.052 0.290
41.5670 7.990 0.288
41.5875 8.010 0.289
41.6080 8.552 0.298
41.6284 8.260 0.293
41.6489 8.542 0.298
41.6693 7.677 0.283
41.6898 7.677 0.283
41.7103 7.896 0.287
41.7307 7.458 0.279
41.7512 8.073 0.290
41.7717 7.813 0.285
41.7921 8.250 0.293
41.8126 8.500 0.298
41.8330 9.010 0.306
41.8535 10.375 0.329
41.8740 11.427 0.345
41.8944 10.510 0.331
41.9149 9.563 0.316
41.9354 8.969 0.306
41.9558 8.708 0.301
41.9763 9.375 0.313
41.9967 9.531 0.315
42.0172 8.969 0.306
42.0377 8.333 0.295
42.0581 7.917 0.287
42.0786 8.010 0.289
42.0991 7.708 0.283
42.1195 7.875 0.286
42.1400 7.563 0.281
42.1604 7.521 0.280
42.1809 8.021 0.289
42.2014 7.948 0.288
42.2218 8.073 0.290
42.2423 8.073 0.290
42.2628 7.823 0.285
42.2832 7.979 0.288
42.3037 8.125 0.291
42.3242 8.135 0.291
42.3446 8.677 0.301
42.3651 8.156 0.291
42.3855 8.083 0.290
42.4060 8.531 0.298
42.4265 8.563 0.299
42.4469 8.740 0.302
42.4674 9.073 0.307
42.4879 9.188 0.309
42.5083 9.000 0.306
42.5288 9.438 0.314
42.5492 9.906 0.321
42.5697 9.063 0.307
42.5902 9.167 0.309
42.6106 9.833 0.320
42.6311 9.813 0.320
42.6516 9.427 0.313
42.6720 9.823 0.320
42.6925 9.417 0.313
42.7129 9.271 0.311
42.7334 8.729 0.302
42.7539 9.365 0.312
42.7743 9.115 0.308
42.7948 8.521 0.298
42.8153 9.052 0.307
42.8357 9.490 0.314
42.8562 8.573 0.299
42.8766 8.594 0.299
42.8971 8.573 0.299
42.9176 8.906 0.305
42.9380 8.083 0.290
42.9585 8.177 0.292
42.9790 8.458 0.297
42.9994 8.427 0.296
43.0199 8.146 0.291
43.0403 8.323 0.294
43.0608 8.344 0.295
43.0813 8.563 0.299
43.1017 8.458 0.297
43.1222 8.260 0.293
43.1427 8.771 0.302
43.1631 9.469 0.314
43.1836 9.688 0.318
43.2041 9.406 0.313
43.2245 9.875 0.321
43.2450 9.531 0.315
43.2654 9.344 0.312
43.2859 9.927 0.322
43.3064 9.302 0.311
43.3268 10.167 0.325
43.3473 10.177 0.326
43.3678 10.521 0.331
43.3882 10.156 0.325
43.4087 10.604 0.332
43.4291 10.813 0.336
43.4496 11.396 0.345
43.4701 10.990 0.338
43.4905 11.406 0.345
43.5110 11.771 0.350
43.5315 13.052 0.369
43.5519 13.813 0.379
43.5724 15.333 0.400
43.5928 16.979 0.421
43.6133 18.750 0.442
43.6338 19.552 0.451
43.6542 18.354 0.437
43.6747 16.865 0.419
43.6952 16.073 0.409
43.7156 15.198 0.398
43.7361 15.417 0.401
43.7565 14.219 0.385
43.7770 12.677 0.363
43.7975 12.271 0.358
43.8179 12.125 0.355
43.8384 11.354 0.344
43.8589 10.729 0.334
43.8793 10.646 0.333
43.8998 9.708 0.318
43.9202 8.771 0.302
43.9407 9.083 0.308
43.9612 8.760 0.302
43.9816 9.010 0.306
44.0021 8.948 0.305
44.0226 9.010 0.306
44.0430 8.479 0.297
44.0635 8.063 0.290
44.0840 7.823 0.285
44.1044 8.375 0.295
44.1249 7.823 0.285
44.1453 8.292 0.294
44.1658 8.552 0.298
44.1863 8.375 0.295
44.2067 8.073 0.290
44.2272 8.115 0.291
44.2477 8.042 0.289
44.2681 7.656 0.282
44.2886 8.135 0.291
44.3090 7.979 0.288
44.3295 7.552 0.280
44.3500 7.813 0.285
44.3704 8.000 0.289
44.3909 7.813 0.285
44.4114 7.969 0.288
44.4318 8.010 0.289
44.4523 7.552 0.280
44.4727 7.729 0.284
44.4932 7.594 0.281
44.5137 7.490 0.279
44.5341 7.667 0.283
44.5546 7.302 0.276
44.5751 7.615 0.282
44.5955 8.167 0.292
44.6160 7.229 0.274
44.6364 7.344 0.277
44.6569 8.125 0.291
44.6774 8.323 0.294
44.6978 8.031 0.289
44.7183 7.667 0.283
44.7388 7.802 0.285
44.7592 8.188 0.292
44.7797 8.333 0.295
44.8001 8.156 0.291
44.8206 8.042 0.289
44.8411 8.896 0.304
44.8615 8.250 0.293
44.8820 8.844 0.304
44.9025 8.708 0.301
44.9229 8.406 0.296
44.9434 9.073 0.307
44.9639 8.573 0.299
44.9843 8.490 0.297
45.0048 8.719 0.301
45.0252 8.448 0.297
45.0457 8.302 0.294
45.0662 8.781 0.302
45.0866 8.823 0.303
45.1071 8.417 0.296
45.1276 8.375 0.295
45.1480 9.250 0.310
45.1685 9.260 0.311
45.1889 9.635 0.317
45.2094 9.938 0.322
45.2299 10.479 0.330
45.2503 10.302 0.328
45.2708 10.219 0.326
45.2913 9.656 0.317
45.3117 9.573 0.316
45.3322 8.781 0.302
45.3526 9.740 0.319
45.3731 9.177 0.309
45.3936 9.021 0.307
45.4140 8.833 0.303
45.4345 8.219 0.293
45.4550 8.000 0.289
45.4754 8.083 0.290
45.4959 7.094 0.272
45.5163 7.500 0.280
45.5368 7.552 0.280
45.5573 7.625 0.282
45.5777 7.740 0.284
45.5982 7.229 0.274
45.6187 7.302 0.276
45.6391 7.458 0.279
45.6596 7.406 0.278
45.6800 7.302 0.276
45.7005 6.865 0.267
45.7210 7.177 0.273
45.7414 7.354 0.277
45.7619 7.969 0.288
45.7824 7.458 0.279
45.8028 7.104 0.272
45.8233 7.552 0.280
45.8438 7.260 0.275
45.8642 7.198 0.274
45.8847 7.531 0.280
45.9051 7.500 0.280
45.9256 7.865 0.286
45.9461 6.771 0.266
45.9665 7.219 0.274
45.9870 7.521 0.280
46.0075 7.677 0.283
46.0279 7.198 0.274
46.0484 7.156 0.273
46.0688 7.552 0.280
46.0893 7.219 0.274
46.1098 6.802 0.266
46.1302 6.802 0.266
46.1507 6.917 0.268
46.1712 6.698 0.264
46.1916 7.115 0.272
46.2121 6.771 0.266
46.2325 6.958 0.269
46.2530 6.667 0.264
46.2735 7.063 0.271
46.2939 6.760 0.265
46.3144 6.448 0.259
46.3349 6.760 0.265
46.3553 6.594 0.262
46.3758 7.000 0.270
46.3962 6.771 0.266
46.4167 6.885 0.268
46.4372 6.854 0.267
46.4576 7.031 0.271
46.4781 7.271 0.275
46.4986 7.281 0.275
46.5190 7.052 0.271
46.5395 7.354 0.277
46.5600 7.500 0.280
46.5804 7.781 0.285
46.6009 8.740 0.302
46.6213 9.042 0.307
46.6418 7.688 0.283
46.6623 7.510 0.280
46.6827 7.646 0.282
46.7032 7.708 0.283
46.7237 7.708 0.283
46.7441 7.406 0.278
46.7646 7.677 0.283
46.7850 7.510 0.280
46.8055 6.792 0.266
46.8260 6.938 0.269
46.8464 7.000 0.270
46.8669 6.458 0.259
46.8874 7.104 0.272
46.9078 6.646 0.263
46.9283 7.146 0.273
46.9487 6.417 0.259
46.9692 6.729 0.265
46.9897 6.813 0.266
47.0101 6.865 0.267
47.0306 6.833 0.267
47.0511 6.948 0.269
47.0715 7.208 0.274
47.0920 7.302 0.276
47.1124 6.688 0.264
47.1329 6.896 0.268
47.1534 6.635 0.263
47.1738 6.948 0.269
47.1943 6.646 0.263
47.2148 6.375 0.258
47.2352 6.865 0.267
47.2557 7.115 0.272
47.2761 6.875 0.268
47.2966 7.490 0.279
47.3171 6.594 0.262
47.3375 7.042 0.271
47.3580 7.208 0.274
47.3785 7.719 0.284
47.3989 7.208 0.274
47.4194 7.333 0.276
47.4399 6.927 0.269
47.4603 7.677 0.283
47.4808 8.188 0.292
47.5012 8.156 0.291
47.5217 8.344 0.295
47.5422 9.177 0.309
47.5626 10.906 0.337
47.5831 12.302 0.358
47.6036 12.250 0.357
47.6240 11.906 0.352
47.6445 11.594 0.348
47.6649 11.740 0.350
47.6854 11.292 0.343
47.7059 11.250 0.342
47.7263 11.281 0.343
47.7468 10.396 0.329
47.7673 9.875 0.321
47.7877 9.344 0.312
47.8082 9.115 0.308
47.8286 8.792 0.303
47.8491 8.438 0.296
47.8696 7.844 0.286
47.8900 7.625 0.282
47.9105 7.833 0.286
47.9310 7.354 0.277
47.9514 7.438 0.278
47.9719 7.740 0.284
47.9923 7.531 0.280
48.0128 7.604 0.281
48.0333 7.438 0.278
48.0537 7.719 0.284
48.0742 8.104 0.291
48.0947 7.771 0.285
48.1151 8.333 0.295
48.1356 7.750 0.284
48.1560 7.906 0.287
48.1765 7.646 0.282
48.1970 7.823 0.285
48.2174 7.896 0.287
48.2379 7.677 0.283
48.2584 7.771 0.285
48.2788 8.406 0.296
48.2993 8.125 0.291
48.3198 8.167 0.292
48.3402 8.125 0.291
48.3607 7.365 0.277
48.3811 7.729 0.284
48.4016 7.688 0.283
48.4221 7.885 0.287
48.4425 7.031 0.271
48.4630 7.688 0.283
48.4835 7.625 0.282
48.5039 7.583 0.281
48.5244 7.396 0.278
48.5448 7.292 0.276
48.5653 7.250 0.275
48.5858 7.531 0.280
48.6062 7.083 0.272
48.6267 7.198 0.274
48.6472 7.552 0.280
48.6676 7.469 0.279
48.6881 7.354 0.277
48.7085 7.979 0.288
48.7290 7.719 0.284
48.7495 7.313 0.276
48.7699 7.198 0.274
48.7904 7.385 0.277
48.8109 7.458 0.279
48.8313 6.875 0.268
48.8518 7.333 0.276
48.8722 7.000 0.270
48.8927 7.167 0.273
48.9132 6.917 0.268
48.9336 6.333 0.257
48.9541 6.458 0.259
48.9746 6.479 0.260
48.9950 6.396 0.258
49.0155 7.042 0.271
49.0359 7.000 0.270
49.0564 6.823 0.267
49.0769 7.375 0.277
49.0973 7.146 0.273
49.1178 7.010 0.270
49.1383 7.323 0.276
49.1587 6.969 0.269
49.1792 6.969 0.269
49.1997 7.458 0.279
49.2201 7.250 0.275
49.2406 7.167 0.273
49.2610 6.917 0.268
49.2815 7.052 0.271
49.3020 7.292 0.276
49.3224 7.667 0.283
49.3429 7.865 0.286
49.3634 7.396 0.278
49.3838 6.823 0.267
49.4043 7.667 0.283
49.4247 7.125 0.272
49.4452 7.427 0.278
49.4657 7.219 0.274
49.4861 6.896 0.268
49.5066 7.031 0.271
49.5271 7.333 0.276
49.5475 6.958 0.269
49.5680 7.229 0.274
49.5884 7.365 0.277
49.6089 7.510 0.280
49.6294 7.250 0.275
49.6498 7.823 0.285
49.6703 8.219 0.293
49.6908 8.781 0.302
49.7112 9.188 0.309
49.7317 9.865 0.321
49.7521 9.906 0.321
49.7726 10.396 0.329
49.7931 12.115 0.355
49.8135 13.125 0.370
49.8340 14.146 0.384
49.8545 14.448 0.388
49.8749 13.833 0.380
49.8954 13.917 0.381
49.9158 13.000 0.368
49.9363 12.813 0.365
49.9568 12.313 0.358
49.9772 12.792 0.365
49.9977 11.615 0.348
50.0182 10.354 0.328
50.0386 11.031 0.339
50.0591 9.583 0.316
50.0796 10.073 0.324
50.1000 9.531 0.315
50.1205 8.948 0.305
50.1409 9.521 0.315
50.1614 9.552 0.315
50.1819 9.240 0.310
50.2023 9.542 0.315
50.2228 9.021 0.307
50.2433 9.698 0.318
50.2637 9.094 0.308
50.2842 8.615 0.300
50.3046 9.396 0.313
50.3251 8.583 0.299
50.3456 8.385 0.296
50.3660 8.781 0.302
50.3865 7.917 0.287
50.4070 7.948 0.288
50.4274 7.354 0.277
50.4479 8.250 0.293
50.4683 7.208 0.274
50.4888 7.792 0.285
50.5093 7.583 0.281
50.5297 7.021 0.270
50.5502 7.375 0.277
50.5707 7.083 0.272
50.5911 7.729 0.284
50.6116 7.365 0.277
50.6320 7.229 0.274
50.6525 6.813 0.266
50.6730 7.250 0.275
50.6934 6.979 0.270
50.7139 7.479 0.279
50.7344 6.938 0.269
50.7548 7.281 0.275
50.7753 6.917 0.268
50.7958 7.167 0.273
50.8162 6.594 0.262
50.8367 7.177 0.273
50.8571 7.781 0.285
50.8776 7.104 0.272
50.8981 7.198 0.274
50.9185 7.896 0.287
50.9390 9.021 0.307
50.9595 9.250 0.310
50.9799 9.594 0.316
51.0004 9.052 0.307
51.0208 8.646 0.300
51.0413 8.083 0.290
51.0618 8.323 0.294
51.0822 8.167 0.292
51.1027 8.542 0.298
51.1232 8.052 0.290
51.1436 7.771 0.285
51.1641 7.677 0.283
51.1845 7.677 0.283
51.2050 7.073 0.271
51.2255 6.896 0.268
51.2459 7.406 0.278
51.2664 7.219 0.274
51.2869 7.385 0.277
51.3073 7.479 0.279
51.3278 7.271 0.275
51.3482 7.125 0.272
51.3687 7.177 0.273
51.3892 6.938 0.269
51.4096 6.323 0.257
51.4301 7.115 0.272
51.4506 6.854 0.267
51.4710 7.292 0.276
51.4915 6.469 0.260
51.5119 6.906 0.268
51.5324 6.719 0.265
51.5529 7.240 0.275
51.5733 6.604 0.262
51.5938 7.552 0.280
51.6143 7.406 0.278
51.6347 7.698 0.283
51.6552 7.656 0.282
51.6757 7.604 0.281
51.6961 7.698 0.283
51.7166 7.313 0.276
51.7370 6.885 0.268
51.7575 7.198 0.274
51.7780 7.458 0.279
51.7984 7.125 0.272
51.8189 7.688 0.283
51.8394 7.042 0.271
51.8598 6.677 0.264
51.8803 7.000 0.270
51.9007 6.552 0.261
51.9212 6.760 0.265
51.9417 6.250 0.255
51.9621 6.458 0.259
51.9826 6.656 0.263
52.0031 6.271 0.256
52.0235 6.646 0.263
52.0440 6.625 0.263
52.0644 6.510 0.260
52.0849 6.313 0.256
52.1054 6.354 0.257
52.1258 6.125 0.253
52.1463 6.042 0.251
52.1668 5.802 0.246
52.1872 6.583 0.262
52.2077 5.854 0.247
52.2281 5.896 0.248
52.2486 6.583 0.262
52.2691 7.167 0.273
52.2895 6.396 0.258
52.3100 6.135 0.253
52.3305 5.990 0.250
52.3509 6.208 0.254
52.3714 6.635 0.263
52.3918 6.208 0.254
52.4123 6.542 0.261
52.4328 6.385 0.258
52.4532 6.563 0.261
52.4737 5.990 0.250
52.4942 6.219 0.255
52.5146 5.969 0.249
52.5351 6.083 0.252
52.5556 5.688 0.243
52.5760 5.813 0.246
52.5965 5.813 0.246
52.6169 5.792 0.246
52.6374 5.354 0.236
52.6579 5.719 0.244
52.6783 6.135 0.253
52.6988 5.625 0.242
52.7193 5.833 0.247
52.7397 5.521 0.240
52.7602 5.396 0.237
52.7806 5.615 0.242
52.8011 5.406 0.237
52.8216 5.333 0.236
52.8420 5.521 0.240
52.8625 5.823 0.246
52.8830 5.510 0.240
52.9034 5.594 0.241
52.9239 5.750 0.245
52.9443 5.833 0.247
52.9648 5.823 0.246
52.9853 5.604 0.242
53.0057 5.823 0.246
53.0262 5.875 0.247
53.0467 6.135 0.253
53.0671 5.635 0.242
53.0876 6.073 0.252
53.1080 5.760 0.245
53.1285 5.719 0.244
53.1490 5.646 0.243
53.1694 5.813 0.246
53.1899 6.052 0.251
53.2104 5.448 0.238
53.2308 5.594 0.241
53.2513 5.708 0.244
53.2717 5.813 0.246
53.2922 5.510 0.240
53.3127 5.281 0.235
53.3331 5.625 0.242
53.3536 5.823 0.246
53.3741 5.719 0.244
53.3945 5.802 0.246
53.4150 5.583 0.241
53.4355 5.115 0.231
53.4559 5.896 0.248
53.4764 5.740 0.245
53.4968 5.229 0.233
53.5173 5.740 0.245
53.5378 5.354 0.236
53.5582 5.844 0.247
53.5787 5.250 0.234
53.5992 6.021 0.250
53.6196 5.531 0.240
53.6401 5.302 0.235
53.6605 6.156 0.253
53.6810 5.771 0.245
53.7015 5.854 0.247
53.7219 5.635 0.242
53.7424 5.927 0.248
53.7629 5.708 0.244
53.7833 5.979 0.250
53.8038 5.302 0.235
53.8242 5.667 0.243
53.8447 6.125 0.253
53.8652 5.604 0.242
53.8856 5.750 0.245
53.9061 5.708 0.244
53.9266 5.771 0.245
53.9470 5.438 0.238
53.9675 5.677 0.243
53.9879 5.969 0.249
54.0084 5.458 0.238
54.0289 5.906 0.248
54.0493 5.594 0.241
54.0698 5.396 0.237
54.0903 5.563 0.241
54.1107 5.969 0.249
54.1312 5.406 0.237
54.1516 6.042 0.251
54.1721 6.135 0.253
54.1926 6.010 0.250
54.2130 5.885 0.248
54.2335 5.885 0.248
54.2540 5.375 0.237
54.2744 6.448 0.259
54.2949 5.604 0.242
54.3154 5.875 0.247
54.3358 5.375 0.237
54.3563 5.563 0.241
54.3767 5.729 0.244
54.3972 5.875 0.247
54.4177 5.448 0.238
54.4381 5.542 0.240
54.4586 5.813 0.246
54.4791 5.583 0.241
54.4995 5.854 0.247
54.5200 5.948 0.249
54.5404 5.802 0.246
54.5609 6.344 0.257
54.5814 6.177 0.254
54.6018 5.948 0.249
54.6223 5.667 0.243
54.6428 5.656 0.243
54.6632 5.833 0.247
54.6837 5.938 0.249
54.7041 5.719 0.244
54.7246 5.583 0.241
54.7451 5.292 0.235
54.7655 5.563 0.241
54.7860 5.656 0.243
54.8065 5.542 0.240
54.8269 5.719 0.244
54.8474 5.896 0.248
54.8678 5.656 0.243
54.8883 5.896 0.248
54.9088 5.698 0.244
54.9292 6.823 0.267
54.9497 6.260 0.255
54.9702 6.677 0.264
54.9906 6.250 0.255
55.0111 7.479 0.279
55.0316 7.375 0.277
55.0520 8.521 0.298
55.0725 8.865 0.304
55.0929 9.615 0.316
55.1134 10.104 0.324
55.1339 11.281 0.343
55.1543 12.313 0.358
55.1748 12.833 0.366
55.1953 12.844 0.366
55.2157 12.604 0.362
55.2362 12.063 0.354
55.2566 11.573 0.347
55.2771 10.781 0.335
55.2976 10.677 0.333
55.3180 10.427 0.330
55.3385 10.333 0.328
55.3590 9.125 0.308
55.3794 8.875 0.304
55.3999 8.188 0.292
55.4203 7.875 0.286
55.4408 7.635 0.282
55.4613 6.521 0.261
55.4817 6.271 0.256
55.5022 6.896 0.268
55.5227 6.521 0.261
55.5431 6.240 0.255
55.5636 6.615 0.262
55.5840 6.313 0.256
55.6045 6.302 0.256
55.6250 6.333 0.257
55.6454 6.302 0.256
55.6659 6.219 0.255
55.6864 6.281 0.256
55.7068 6.260 0.255
55.7273 6.240 0.255
55.7477 6.417 0.259
55.7682 5.927 0.248
55.7887 6.573 0.262
55.8091 6.490 0.260
55.8296 6.573 0.262
55.8501 6.219 0.255
55.8705 6.583 0.262
55.8910 6.583 0.262
55.9115 6.260 0.255
55.9319 6.448 0.259
55.9524 6.198 0.254
55.9728 6.813 0.266
55.9933 6.771 0.266
56.0138 6.729 0.265
56.0342 6.740 0.265
56.0547 6.906 0.268
56.0752 6.719 0.265
56.0956 7.135 0.273
56.1161 7.125 0.272
56.1365 7.958 0.288
56.1570 8.427 0.296
56.1775 9.073 0.307
56.1979 8.854 0.304
56.2184 8.875 0.304
56.2389 8.760 0.302
56.2593 7.875 0.286
56.2798 8.104 0.291
56.3002 8.260 0.293
56.3207 7.385 0.277
56.3412 7.813 0.285
56.3616 7.521 0.280
56.3821 6.906 0.268
56.4026 6.802 0.266
56.4230 6.458 0.259
56.4435 5.854 0.247
56.4639 6.115 0.252
56.4844 5.625 0.242
56.5049 5.583 0.241
56.5253 5.594 0.241
56.5458 5.385 0.237
56.5663 5.563 0.241
56.5867 5.604 0.242
56.6072 5.740 0.245
56.6276 6.010 0.250
56.6481 6.010 0.250
56.6686 6.260 0.255
56.6890 6.625 0.263
56.7095 5.750 0.245
56.7300 5.760 0.245
56.7504 5.635 0.242
56.7709 5.500 0.239
56.7914 5.385 0.237
56.8118 5.677 0.243
56.8323 5.979 0.250
56.8527 5.646 0.243
56.8732 5.646 0.243
56.8937 5.563 0.241
56.9141 4.990 0.228
56.9346 5.229 0.233
56.9551 5.219 0.233
56.9755 5.281 0.235
56.9960 5.031 0.229
57.0164 4.958 0.227
57.0369 5.344 0.236
57.0574 4.979 0.228
57.0778 4.979 0.228
57.0983 5.406 0.237
57.1188 5.167 0.232
57.1392 5.479 0.239
57.1597 5.604 0.242
57.1801 5.250 0.234
57.2006 5.229 0.233
57.2211 4.958 0.227
57.2415 5.208 0.233
57.2620 5.521 0.240
57.2825 5.427 0.238
57.3029 5.625 0.242
57.3234 5.292 0.235
57.3438 5.208 0.233
57.3643 5.354 0.236
57.3848 5.208 0.233
57.4052 5.813 0.246
57.4257 5.229 0.233
57.4462 5.615 0.242
57.4666 5.719 0.244
57.4871 5.781 0.245
57.5075 5.573 0.241
57.5280 5.417 0.238
57.5485 5.271 0.234
57.5689 5.750 0.245
57.5894 5.615 0.242
57.6099 5.427 0.238
57.6303 5.740 0.245
57.6508 5.406 0.237
57.6713 5.594 0.241
57.6917 5.708 0.244
57.7122 5.896 0.248
57.7326 5.188 0.232
57.7531 6.229 0.255
57.7736 6.333 0.257
57.7940 5.875 0.247
57.8145 6.552 0.261
57.8350 7.281 0.275
57.8554 7.667 0.283
57.8759 8.458 0.297
57.8963 8.448 0.297
57.9168 9.458 0.314
57.9373 8.479 0.297
57.9577 8.583 0.299
57.9782 7.917 0.287
57.9987 8.240 0.293
58.0191 7.427 0.278
58.0396 7.292 0.276
58.0600 7.583 0.281
58.0805 7.771 0.285
58.1010 7.052 0.271
58.1214 7.135 0.273
58.1419 6.510 0.260
58.1624 6.365 0.257
58.1828 6.719 0.265
58.2033 6.135 0.253
58.2237 6.677 0.264
58.2442 6.781 0.266
58.2647 6.188 0.254
58.2851 6.073 0.252
58.3056 6.146 0.253
58.3261 6.021 0.250
58.3465 5.469 0.239
58.3670 5.708 0.244
58.3874 5.677 0.243
58.4079 5.802 0.246
58.4284 5.875 0.247
58.4488 6.073 0.252
58.4693 5.896 0.248
58.4898 5.948 0.249
58.5102 6.146 0.253
58.5307 6.313 0.256
58.5512 5.344 0.236
58.5716 5.271 0.234
58.5921 5.146 0.232
58.6125 5.375 0.237
58.6330 5.563 0.241
58.6535 5.823 0.246
58.6739 5.813 0.246
58.6944 5.854 0.247
58.7149 5.688 0.243
58.7353 5.417 0.238
58.7558 5.552 0.240
58.7762 5.333 0.236
58.7967 5.177 0.232
58.8172 5.104 0.231
58.8376 5.365 0.236
58.8581 5.990 0.250
58.8786 5.875 0.247
58.8990 5.542 0.240
58.9195 5.667 0.243
58.9399 5.667 0.243
58.9604 5.167 0.232
58.9809 5.188 0.232
59.0013 5.719 0.244
59.0218 5.594 0.241
59.0423 5.823 0.246
59.0627 5.823 0.246
59.0832 5.604 0.242
59.1036 6.417 0.259
59.1241 6.031 0.251
59.1446 6.594 0.262
59.1650 6.698 0.264
59.1855 6.844 0.267
59.2060 7.688 0.283
59.2264 6.323 0.257
59.2469 6.406 0.258
59.2674 6.365 0.257
59.2878 6.188 0.254
59.3083 6.333 0.257
59.3287 5.719 0.244
59.3492 6.385 0.258
59.3697 6.031 0.251
59.3901 5.896 0.248
59.4106 5.719 0.244
59.4311 5.750 0.245
59.4515 5.656 0.243
59.4720 5.698 0.244
59.4924 5.135 0.231
59.5129 5.490 0.239
59.5334 5.813 0.246
59.5538 5.167 0.232
59.5743 5.438 0.238
59.5948 5.396 0.237
59.6152 5.219 0.233
59.6357 5.354 0.236
59.6561 5.396 0.237
59.6766 5.302 0.235
59.6971 5.448 0.238
59.7175 5.260 0.234
59.7380 5.385 0.237
59.7585 5.448 0.238
59.7789 6.104 0.252
59.7994 6.052 0.251
59.8198 6.250 0.255
59.8403 6.448 0.259
59.8608 6.990 0.270
59.8812 6.979 0.270
59.9017 6.792 0.266
59.9222 6.813 0.266
59.9426 6.833 0.267
59.9631 6.125 0.253
59.9835 6.771 0.266
60.0040 6.385 0.258
60.0245 6.292 0.256
60.0449 6.104 0.252
60.0654 6.583 0.262
60.0859 6.490 0.260
60.1063 6.135 0.253
60.1268 5.521 0.240
60.1473 5.583 0.241
60.1677 5.635 0.242
60.1882 5.365 0.236
60.2086 5.604 0.242
60.2291 5.417 0.238
60.2496 5.385 0.237
60.2700 5.313 0.235
60.2905 5.073 0.230
60.3110 5.125 0.231
60.3314 5.323 0.235
60.3519 5.125 0.231
60.3723 4.750 0.222
60.3928 5.010 0.228
60.4133 4.958 0.227
60.4337 4.542 0.218
60.4542 5.115 0.231
60.4747 4.813 0.224
60.4951 5.042 0.229
60.5156 4.927 0.227
60.5360 4.708 0.221
60.5565 5.042 0.229
60.5770 4.708 0.221
60.5974 4.917 0.226
60.6179 5.042 0.229
60.6384 4.969 0.228
60.6588 5.073 0.230
60.6793 4.802 0.224
60.6997 4.479 0.216
60.7202 4.323 0.212
60.7407 4.792 0.223
60.7611 4.625 0.219
60.7816 4.969 0.228
60.8021 4.635 0.220
60.8225 5.031 0.229
60.8430 5.260 0.234
60.8634 4.948 0.227
60.8839 4.906 0.226
60.9044 4.167 0.208
60.9248 5.396 0.237
60.9453 4.896 0.226
60.9658 4.917 0.226
60.9862 4.833 0.224
61.0067 5.500 0.239
61.0272 4.646 0.220
61.0476 4.990 0.228
61.0681 4.885 0.226
61.0885 4.896 0.226
61.1090 4.771 0.223
61.1295 4.813 0.224
61.1499 4.729 0.222
61.1704 4.667 0.220
61.1909 4.885 0.226
61.2113 5.063 0.230
61.2318 4.948 0.227
61.2522 4.510 0.217
61.2727 4.677 0.221
61.2932 4.354 0.213
61.3136 4.823 0.224
61.3341 5.021 0.229
61.3546 4.802 0.224
61.3750 5.219 0.233
61.3955 4.938 0.227
61.4159 4.542 0.218
61.4364 4.917 0.226
61.4569 5.104 0.231
61.4773 4.688 0.221
61.4978 4.740 0.222
61.5183 4.875 0.225
61.5387 5.031 0.229
61.5592 5.010 0.228
61.5796 4.688 0.221
61.6001 4.677 0.221
61.6206 4.979 0.228
61.6410 4.760 0.223
61.6615 4.781 0.223
61.6820 4.781 0.223
61.7024 4.979 0.228
61.7229 4.396 0.214
61.7433 4.656 0.220
61.7638 4.833 0.224
61.7843 4.344 0.213
61.8047 4.385 0.214
61.8252 4.740 0.222
61.8457 4.573 0.218
61.8661 4.490 0.216
61.8866 4.729 0.222
61.9071 5.000 0.228
61.9275 4.719 0.222
61.9480 4.938 0.227
61.9684 4.792 0.223
61.9889 5.156 0.232
62.0094 4.625 0.219
62.0298 4.958 0.227
62.0503 5.177 0.232
62.0708 5.083 0.230
62.0912 5.094 0.230
62.1117 5.500 0.239
62.1321 5.313 0.235
62.1526 5.979 0.250
62.1731 5.083 0.230
62.1935 5.698 0.244
62.2140 5.010 0.228
62.2345 4.979 0.228
62.2549 5.000 0.228
62.2754 5.188 0.232
62.2958 4.875 0.225
62.3163 5.115 0.231
62.3368 5.063 0.230
62.3572 4.885 0.226
62.3777 4.740 0.222
62.3982 5.031 0.229
62.4186 4.563 0.218
62.4391 4.740 0.222
62.4595 4.979 0.228
62.4800 4.677 0.221
62.5005 4.646 0.220
62.5209 5.115 0.231
62.5414 4.719 0.222
62.5619 4.771 0.223
62.5823 4.688 0.221
62.6028 4.750 0.222
62.6232 4.302 0.212
62.6437 4.792 0.223
62.6642 4.729 0.222
62.6846 4.917 0.226
62.7051 4.531 0.217
62.7256 4.354 0.213
62.7460 4.625 0.219
62.7665 4.958 0.227
62.7870 4.542 0.218
62.8074 5.135 0.231
62.8279 4.365 0.213
62.8483 4.750 0.222
62.8688 4.469 0.216
62.8893 4.406 0.214
62.9097 4.563 0.218
62.9302 4.500 0.217
62.9507 4.635 0.220
62.9711 4.854 0.225
62.9916 4.656 0.220
63.0120 4.875 0.225
63.0325 4.406 0.214
63.0530 4.646 0.220
63.0734 4.594 0.219
63.0939 4.510 0.217
63.1144 4.656 0.220
63.1348 4.510 0.217
63.1553 5.302 0.235
63.1757 4.938 0.227
63.1962 4.823 0.224
63.2167 5.167 0.232
63.2371 4.479 0.216
63.2576 4.865 0.225
63.2781 4.917 0.226
63.2985 4.854 0.225
63.3190 4.896 0.226
63.3394 4.813 0.224
63.3599 4.948 0.227
63.3804 5.125 0.231
63.4008 4.875 0.225
63.4213 5.177 0.232
63.4418 5.698 0.244
63.4622 5.135 0.231
63.4827 4.771 0.223
63.5032 4.813 0.224
63.5236 5.271 0.234
63.5441 5.083 0.230
63.5645 4.979 0.228
63.5850 5.250 0.234
63.6055 5.594 0.241
63.6259 5.542 0.240
63.6464 4.927 0.227
63.6669 5.469 0.239
63.6873 5.375 0.237
63.7078 5.104 0.231
63.7282 5.167 0.232
63.7487 5.281 0.235
63.7692 5.438 0.238
63.7896 5.198 0.233
63.8101 4.896 0.226
63.8306 5.250 0.234
63.8510 4.917 0.226
63.8715 5.406 0.237
63.8919 5.510 0.240
63.9124 5.469 0.239
63.9329 5.656 0.243
63.9533 5.427 0.238
63.9738 5.240 0.234
63.9943 5.615 0.242
64.0147 5.542 0.240
64.0352 5.302 0.235
64.0556 5.729 0.244
64.0761 5.448 0.238
64.0966 5.667 0.243
64.1170 5.208 0.233
64.1375 4.958 0.227
64.1580 5.510 0.240
64.1784 5.323 0.235
64.1989 5.156 0.232
64.2193 5.521 0.240
64.2398 5.146 0.232
64.2603 5.250 0.234
64.2807 5.750 0.245
64.3012 4.865 0.225
64.3217 5.031 0.229
64.3421 5.323 0.235
64.3626 5.708 0.244
64.3831 5.510 0.240
64.4035 5.260 0.234
64.4240 5.760 0.245
64.4444 5.271 0.234
64.4649 4.906 0.226
64.4854 5.292 0.235
64.5058 5.073 0.230
64.5263 5.656 0.243
64.5468 5.656 0.243
64.5672 6.073 0.252
64.5877 6.635 0.263
64.6081 6.604 0.262
64.6286 7.448 0.279
64.6491 7.125 0.272
64.6695 7.323 0.276
64.6900 7.104 0.272
64.7105 7.010 0.270
64.7309 6.667 0.264
64.7514 6.323 0.257
64.7718 6.969 0.269
64.7923 6.625 0.263
64.8128 6.167 0.253
64.8332 6.542 0.261
64.8537 6.771 0.266
64.8742 6.135 0.253
64.8946 5.563 0.241
64.9151 5.698 0.244
64.9355 5.646 0.243
64.9560 5.677 0.243
64.9765 5.208 0.233
64.9969 4.906 0.226
65.0174 5.021 0.229
65.0379 5.021 0.229
65.0583 4.552 0.218
65.0788 5.260 0.234
65.0992 5.469 0.239
65.1197 5.510 0.240
65.1402 5.240 0.234
65.1606 4.927 0.227
65.1811 4.958 0.227
65.2016 4.958 0.227
65.2220 4.917 0.226
65.2425 5.188 0.232
65.2630 4.698 0.221
65.2834 4.813 0.224
65.3039 4.781 0.223
65.3243 4.927 0.227
65.3448 4.823 0.224
65.3653 4.865 0.225
65.3857 4.844 0.225
65.4062 5.146 0.232
65.4267 5.198 0.233
65.4471 4.896 0.226
65.4676 5.271 0.234
65.4880 5.292 0.235
65.5085 5.510 0.240
65.5290 5.063 0.230
65.5494 4.917 0.226
65.5699 5.458 0.238
65.5904 4.979 0.228
65.6108 5.177 0.232
65.6313 5.313 0.235
65.6517 5.292 0.235
65.6722 5.271 0.234
65.6927 4.990 0.228
65.7131 5.344 0.236
65.7336 4.948 0.227
65.7541 5.250 0.234
65.7745 5.323 0.235
65.7950 5.063 0.230
65.8154 5.031 0.229
65.8359 4.719 0.222
65.8564 4.385 0.214
65.8768 4.573 0.218
65.8973 4.760 0.223
65.9178 4.844 0.225
65.9382 4.896 0.226
65.9587 4.615 0.219
65.9791 4.802 0.224
65.9996 4.583 0.219
66.0201 4.875 0.225
66.0405 4.698 0.221
66.0610 4.760 0.223
66.0815 4.552 0.218
66.1019 4.698 0.221
66.1224 4.646 0.220
66.1429 4.646 0.220
66.1633 4.563 0.218
66.1838 4.469 0.216
66.2042 4.333 0.212
66.2247 4.667 0.220
66.2452 4.531 0.217
66.2656 4.979 0.228
66.2861 4.115 0.207
66.3066 4.646 0.220
66.3270 4.719 0.222
66.3475 5.031 0.229
66.3679 4.875 0.225
66.3884 4.698 0.221
66.4089 4.354 0.213
66.4293 4.188 0.209
66.4498 4.208 0.209
66.4703 4.646 0.220
66.4907 4.656 0.220
66.5112 4.500 0.217
66.5316 4.490 0.216
66.5521 4.292 0.211
66.5726 4.865 0.225
66.5930 4.375 0.213
66.6135 4.406 0.214
66.6340 4.677 0.221
66.6544 4.573 0.218
66.6749 4.438 0.215
66.6953 4.573 0.218
66.7158 4.625 0.219
66.7363 4.271 0.211
66.7567 4.594 0.219
66.7772 4.542 0.218
66.7977 4.948 0.227
66.8181 4.865 0.225
66.8386 4.677 0.221
66.8590 4.979 0.228
66.8795 4.646 0.220
66.9000 4.781 0.223
66.9204 4.958 0.227
66.9409 5.250 0.234
66.9614 5.208 0.233
66.9818 5.427 0.238
67.0023 5.167 0.232
67.0228 5.188 0.232
67.0432 6.219 0.255
67.0637 6.292 0.256
67.0841 6.510 0.260
67.1046 7.104 0.272
67.1251 7.615 0.282
67.1455 7.177 0.273
67.1660 7.094 0.272
67.1865 7.635 0.282
67.2069 7.083 0.272
67.2274 7.219 0.274
67.2478 6.896 0.268
67.2683 6.458 0.259
67.2888 6.427 0.259
67.3092 6.750 0.265
67.3297 6.385 0.258
67.3502 7.021 0.270
67.3706 6.188 0.254
67.3911 6.208 0.254
67.4115 5.969 0.249
67.4320 5.698 0.244
67.4525 5.396 0.237
67.4729 5.000 0.228
67.4934 5.594 0.241
67.5139 4.833 0.224
67.5343 5.344 0.236
67.5548 4.990 0.228
67.5752 4.667 0.220
67.5957 4.896 0.226
67.6162 4.813 0.224
67.6366 4.594 0.219
67.6571 4.688 0.221
67.6776 5.146 0.232
67.6980 4.615 0.219
67.7185 4.781 0.223
67.7389 5.125 0.231
67.7594 4.948 0.227
67.7799 4.885 0.226
67.8003 4.750 0.222
67.8208 4.938 0.227
67.8413 4.719 0.222
67.8617 4.885 0.226
67.8822 4.240 0.210
67.9027 4.875 0.225
67.9231 5.073 0.230
67.9436 5.125 0.231
67.9640 4.646 0.220
67.9845 5.083 0.230
68.0050 5.094 0.230
68.0254 4.958 0.227
68.0459 4.906 0.226
68.0664 4.823 0.224
68.0868 5.125 0.231
68.1073 5.125 0.231
68.1277 4.698 0.221
68.1482 4.781 0.223
68.1687 4.823 0.224
68.1891 4.802 0.224
68.2096 4.792 0.223
68.2301 5.094 0.230
68.2505 4.615 0.219
68.2710 5.292 0.235
68.2914 4.896 0.226
68.3119 4.865 0.225
68.3324 5.104 0.231
68.3528 5.510 0.240
68.3733 5.135 0.231
68.3938 5.813 0.246
68.4142 5.229 0.233
68.4347 5.219 0.233
68.4551 5.198 0.233
68.4756 5.000 0.228
68.4961 5.500 0.239
68.5165 5.167 0.232
68.5370 5.271 0.234
68.5575 5.344 0.236
68.5779 4.740 0.222
68.5984 4.896 0.226
68.6189 4.656 0.220
68.6393 4.802 0.224
68.6598 4.875 0.225
68.6802 4.646 0.220
68.7007 4.271 0.211
68.7212 4.490 0.216
68.7416 4.906 0.226
68.7621 4.563 0.218
68.7826 4.740 0.222
68.8030 4.615 0.219
68.8235 4.625 0.219
68.8439 4.875 0.225
68.8644 4.573 0.218
68.8849 5.240 0.234
68.9053 5.240 0.234
68.9258 5.563 0.241
68.9463 5.563 0.241
68.9667 5.573 0.241
68.9872 5.781 0.245
69.0076 5.417 0.238
69.0281 5.833 0.247
69.0486 5.438 0.238
69.0690 5.448 0.238
69.0895 5.479 0.239
69.1100 5.281 0.235
69.1304 5.438 0.238
69.1509 4.833 0.224
69.1713 5.198 0.233
69.1918 5.094 0.230
69.2123 5.240 0.234
69.2327 5.271 0.234
69.2532 4.552 0.218
69.2737 4.854 0.225
69.2941 5.510 0.240
69.3146 4.958 0.227
69.3350 4.729 0.222
69.3555 4.438 0.215
69.3760 4.656 0.220
69.3964 4.333 0.212
69.4169 4.583 0.219
69.4374 4.802 0.224
69.4578 4.385 0.214
69.4783 4.271 0.211
69.4988 4.521 0.217
69.5192 4.146 0.208
69.5397 4.188 0.209
69.5601 4.156 0.208
69.5806 4.146 0.208
69.6011 4.219 0.210
69.6215 4.281 0.211
69.6420 3.990 0.204
69.6625 4.521 0.217
69.6829 4.417 0.214
69.7034 4.427 0.215
69.7238 3.615 0.194
69.7443 3.896 0.201
69.7648 3.823 0.200
69.7852 4.188 0.209
69.8057 4.188 0.209
69.8262 4.188 0.209
69.8466 3.990 0.204
69.8671 4.052 0.205
69.8875 4.063 0.206
69.9080 4.406 0.214
69.9285 4.156 0.208
69.9489 4.250 0.210
69.9694 3.792 0.199
69.9899 4.104 0.207
70.0103 4.052 0.205
70.0308 3.802 0.199
70.0512 4.000 0.204
70.0717 3.823 0.200
70.0922 4.323 0.212
70.1126 3.927 0.202
70.1331 4.167 0.208
70.1536 4.010 0.204
70.1740 4.219 0.210
70.1945 4.385 0.214
70.2149 4.010 0.204
70.2354 4.135 0.208
70.2559 4.490 0.216
70.2763 3.917 0.202
70.2968 4.292 0.211
70.3173 4.010 0.204
70.3377 4.000 0.204
70.3582 4.115 0.207
70.3787 4.260 0.211
70.3991 3.833 0.200
70.4196 4.115 0.207
70.4400 3.896 0.201
70.4605 4.125 0.207
70.4810 4.427 0.215
70.5014 4.052 0.205
70.5219 3.813 0.199
70.5424 4.000 0.204
70.5628 4.073 0.206
70.5833 3.896 0.201
70.6037 3.771 0.198
70.6242 3.760 0.198
70.6447 4.240 0.210
70.6651 4.063 0.206
70.6856 3.823 0.200
70.7061 4.250 0.210
70.7265 4.281 0.211
70.7470 3.990 0.204
70.7674 4.104 0.207
70.7879 4.073 0.206
70.8084 3.750 0.198
70.8288 4.052 0.205
70.8493 3.885 0.201
70.8698 3.813 0.199
70.8902 4.083 0.206
70.9107 4.083 0.206
70.9311 3.823 0.200
70.9516 3.896 0.201
70.9721 4.323 0.212
70.9925 4.094 0.207
71.0130 4.354 0.213
71.0335 3.740 0.197
71.0539 4.000 0.204
71.0744 4.198 0.209
71.0948 4.115 0.207
71.1153 4.469 0.216
71.1358 4.104 0.207
71.1562 4.031 0.205
71.1767 4.146 0.208
71.1972 3.875 0.201
71.2176 4.031 0.205
71.2381 4.427 0.215
71.2586 3.854 0.200
71.2790 3.615 0.194
71.2995 4.042 0.205
71.3199 4.031 0.205
71.3404 4.104 0.207
71.3609 3.844 0.200
71.3813 3.792 0.199
71.4018 3.708 0.197
71.4223 3.698 0.196
71.4427 3.375 0.188
71.4632 4.052 0.205
71.4836 3.615 0.194
71.5041 3.802 0.199
71.5246 3.771 0.198
71.5450 3.896 0.201
71.5655 3.729 0.197
71.5860 4.271 0.211
71.6064 3.698 0.196
71.6269 4.115 0.207
71.6473 3.740 0.197
71.6678 4.125 0.207
71.6883 3.708 0.197
71.7087 3.677 0.196
71.7292 3.729 0.197
71.7497 3.302 0.185
71.7701 4.188 0.209
71.7906 3.979 0.204
71.8110 3.635 0.195
71.8315 4.010 0.204
71.8520 3.760 0.198
71.8724 3.813 0.199
71.8929 4.073 0.206
71.9134 3.875 0.201
71.9338 3.427 0.189
71.9543 3.792 0.199
71.9747 3.938 0.203
71.9952 3.385 0.188
72.0157 3.729 0.197
72.0361 3.729 0.197
72.0566 3.563 0.193
72.0771 3.979 0.204
72.0975 3.896 0.201
72.1180 3.875 0.201
72.1385 4.115 0.207
72.1589 3.750 0.198
72.1794 4.438 0.215
72.1998 3.771 0.198
72.2203 3.833 0.200
72.2408 3.354 0.187
72.2612 4.021 0.205
72.2817 3.625 0.194
72.3022 4.146 0.208
72.3226 3.635 0.195
72.3431 3.990 0.204
72.3635 3.667 0.195
72.3840 3.885 0.201
72.4045 3.927 0.202
72.4249 3.677 0.196
72.4454 3.802 0.199
72.4659 3.615 0.194
72.4863 3.510 0.191
72.5068 3.667 0.195
72.5272 3.667 0.195
72.5477 3.802 0.199
72.5682 3.479 0.190
72.5886 3.417 0.189
72.6091 3.979 0.204
72.6296 3.448 0.190
72.6500 3.615 0.194
72.6705 3.667 0.195
72.6909 3.490 0.191
72.7114 4.156 0.208
72.7319 3.750 0.198
72.7523 3.719 0.197
72.7728 4.229 0.210
72.7933 3.844 0.200
72.8137 3.823 0.200
72.8342 4.115 0.207
72.8547 4.365 0.213
72.8751 3.875 0.201
72.8956 3.490 0.191
72.9160 4.135 0.208
72.9365 3.573 0.193
72.9570 3.688 0.196
72.9774 3.521 0.192
72.9979 3.979 0.204
73.0184 3.813 0.199
73.0388 3.823 0.200
73.0593 3.990 0.204
73.0797 3.927 0.202
73.1002 3.760 0.198
73.1207 3.719 0.197
73.1411 3.729 0.197
73.1616 3.500 0.191
73.1821 4.031 0.205
73.2025 3.677 0.196
73.2230 3.510 0.191
73.2434 4.094 0.207
73.2639 3.833 0.200
73.2844 4.031 0.205
73.3048 3.813 0.199
73.3253 3.875 0.201
73.3458 3.781 0.198
73.3662 3.500 0.191
73.3867 3.677 0.196
73.4071 3.510 0.191
73.4276 3.344 0.187
73.4481 3.271 0.185
73.4685 3.365 0.187
73.4890 3.563 0.193
73.5095 3.760 0.198
73.5299 3.688 0.196
73.5504 3.490 0.191
73.5708 3.438 0.189
73.5913 3.385 0.188
73.6118 3.813 0.199
73.6322 3.333 0.186
73.6527 3.417 0.189
73.6732 3.667 0.195
73.6936 3.729 0.197
73.7141 3.479 0.190
73.7346 3.656 0.195
73.7550 3.583 0.193
73.7755 3.417 0.189
73.7959 3.521 0.192
73.8164 3.365 0.187
73.8369 3.510 0.191
73.8573 3.948 0.203
73.8778 3.677 0.196
73.8983 3.625 0.194
73.9187 3.917 0.202
73.9392 3.813 0.199
73.9596 3.688 0.196
73.9801 3.688 0.196
74.0006 3.604 0.194
74.0210 3.844 0.200
74.0415 3.521 0.192
74.0620 3.510 0.191
74.0824 3.771 0.198
74.1029 3.792 0.199
74.1233 3.583 0.193
74.1438 3.677 0.196
74.1643 3.781 0.198
74.1847 4.146 0.208
74.2052 3.635 0.195
74.2257 3.333 0.186
74.2461 3.406 0.188
74.2666 3.583 0.193
74.2870 4.083 0.206
74.3075 3.844 0.200
74.3280 3.563 0.193
74.3484 3.875 0.201
74.3689 3.385 0.188
74.3894 3.521 0.192
74.4098 3.552 0.192
74.4303 2.979 0.176
74.4507 3.302 0.185
74.4712 3.500 0.191
74.4917 3.469 0.190
74.5121 3.094 0.180
74.5326 3.625 0.194
74.5531 3.438 0.189
74.5735 3.646 0.195
74.5940 3.281 0.185
74.6145 3.396 0.188
74.6349 3.146 0.181
74.6554 3.271 0.185
74.6758 3.604 0.194
74.6963 3.604 0.194
74.7168 3.719 0.197
74.7372 3.594 0.193
74.7577 3.344 0.187
74.7782 3.219 0.183
74.7986 3.490 0.191
74.8191 3.563 0.193
74.8395 3.188 0.182
74.8600 3.583 0.193
74.8805 3.385 0.188
74.9009 3.260 0.184
74.9214 3.688 0.196
74.9419 3.083 0.179
74.9623 3.792 0.199
74.9828 3.375 0.188
75.0032 3.479 0.190
75.0237 3.365 0.187
75.0442 3.365 0.187
75.0646 3.750 0.198
75.0851 3.781 0.198
75.1056 3.583 0.193
75.1260 3.521 0.192
75.1465 3.760 0.198
75.1669 3.750 0.198
75.1874 3.604 0.194
75.2079 3.719 0.197
75.2283 3.625 0.194
75.2488 3.698 0.196
75.2693 3.490 0.191
75.2897 3.521 0.192
75.3102 3.677 0.196
75.3306 3.385 0.188
75.3511 3.448 0.190
75.3716 3.344 0.187
75.3920 3.646 0.195
75.4125 3.375 0.188
75.4330 3.729 0.197
75.4534 3.719 0.197
75.4739 3.604 0.194
75.4944 3.917 0.202
75.5148 3.552 0.192
75.5353 3.719 0.197
75.5557 3.594 0.193
75.5762 4.073 0.206
75.5967 3.354 0.187
75.6171 3.854 0.200
75.6376 3.990 0.204
75.6581 3.885 0.201
75.6785 3.698 0.196
75.6990 4.542 0.218
75.7194 4.469 0.216
75.7399 4.500 0.217
75.7604 4.563 0.218
75.7808 4.750 0.222
75.8013 5.052 0.229
75.8218 4.792 0.223
75.8422 4.792 0.223
75.8627 4.708 0.221
75.8831 4.146 0.208
75.9036 4.656 0.220
75.9241 4.677 0.221
75.9445 4.260 0.211
75.9650 4.750 0.222
75.9855 4.417 0.214
76.0059 4.823 0.224
76.0264 4.063 0.206
76.0468 4.563 0.218
76.0673 4.792 0.223
76.0878 4.365 0.213
76.1082 4.240 0.210
76.1287 4.594 0.219
76.1492 3.958 0.203
76.1696 3.958 0.203
76.1901 4.031 0.205
76.2105 3.438 0.189
76.2310 3.917 0.202
76.2515 4.354 0.213
76.2719 3.823 0.200
76.2924 3.927 0.202
76.3129 3.438 0.189
76.3333 3.510 0.191
76.3538 3.896 0.201
76.3743 3.865 0.201
76.3947 3.844 0.200
76.4152 3.833 0.200
76.4356 3.490 0.191
76.4561 3.604 0.194
76.4766 3.615 0.194
76.4970 3.896 0.201
76.5175 3.448 0.190
76.5380 3.323 0.186
76.5584 3.229 0.183
76.5789 3.448 0.190
76.5993 3.594 0.193
76.6198 3.385 0.188
76.6403 3.125 0.180
76.6607 3.656 0.195
76.6812 3.458 0.190
76.7017 3.448 0.190
76.7221 3.677 0.196
76.7426 3.521 0.192
76.7630 3.667 0.195
76.7835 3.792 0.199
76.8040 3.281 0.185
76.8244 3.604 0.194
76.8449 3.292 0.185
76.8654 3.542 0.192
76.8858 3.500 0.191
76.9063 3.729 0.197
76.9267 3.490 0.191
76.9472 3.323 0.186
76.9677 3.448 0.190
76.9881 3.896 0.201
77.0086 3.875 0.201
77.0291 3.490 0.191
77.0495 3.427 0.189
77.0700 3.906 0.202
77.0905 3.885 0.201
77.1109 3.344 0.187
77.1314 3.594 0.193
77.1518 3.719 0.197
77.1723 3.750 0.198
77.1928 3.604 0.194
77.2132 3.740 0.197
77.2337 3.323 0.186
77.2542 3.469 0.190
77.2746 3.427 0.189
77.2951 3.625 0.194
77.3155 3.719 0.197
77.3360 3.740 0.197
77.3565 3.854 0.200
77.3769 4.167 0.208
77.3974 3.885 0.201
77.4179 3.740 0.197
77.4383 4.135 0.208
77.4588 3.865 0.201
77.4792 3.469 0.190
77.4997 3.813 0.199
77.5202 3.979 0.204
77.5406 4.375 0.213
77.5611 4.292 0.211
77.5816 3.750 0.198
77.6020 4.083 0.206
77.6225 4.177 0.209
77.6429 4.031 0.205
77.6634 4.438 0.215
77.6839 3.990 0.204
77.7043 4.375 0.213
77.7248 3.917 0.202
77.7453 4.135 0.208
77.7657 4.010 0.204
77.7862 4.625 0.219
77.8066 4.385 0.214
77.8271 4.125 0.207
77.8476 4.177 0.209
77.8680 4.479 0.216
77.8885 4.073 0.206
77.9090 3.813 0.199
77.9294 3.979 0.204
77.9499 3.688 0.196
77.9704 3.990 0.204
77.9908 4.042 0.205
78.0113 4.115 0.207
78.0317 3.594 0.193
78.0522 3.813 0.199
78.0727 4.115 0.207
78.0931 3.542 0.192
78.1136 3.802 0.199
78.1341 3.396 0.188
78.1545 3.552 0.192
78.1750 3.500 0.191
78.1954 3.958 0.203
78.2159 3.667 0.195
78.2364 4.094 0.207
78.2568 3.708 0.197
78.2773 3.823 0.200
78.2978 4.313 0.212
78.3182 3.604 0.194
78.3387 3.771 0.198
78.3591 3.427 0.189
78.3796 3.729 0.197
78.4001 4.198 0.209
78.4205 3.719 0.197
78.4410 3.708 0.197
78.4615 3.917 0.202
78.4819 4.031 0.205
78.5024 3.677 0.196
78.5228 3.490 0.191
78.5433 4.323 0.212
78.5638 3.948 0.203
78.5842 3.542 0.192
78.6047 3.823 0.200
78.6252 3.594 0.193
78.6456 3.823 0.200
78.6661 3.833 0.200
78.6865 3.958 0.203
78.7070 3.667 0.195
78.7275 4.021 0.205
78.7479 3.615 0.194
78.7684 3.813 0.199
78.7889 3.729 0.197
78.8093 3.677 0.196
78.8298 3.885 0.201
78.8503 3.677 0.196
78.8707 3.406 0.188
78.8912 3.698 0.196
78.9116 3.542 0.192
78.9321 3.583 0.193
78.9526 3.563 0.193
78.9730 3.250 0.184
78.9935 3.448 0.190
79.0140 3.385 0.188
79.0344 3.417 0.189
79.0549 3.510 0.191
79.0753 3.750 0.198
79.0958 3.490 0.191
79.1163 3.521 0.192
79.1367 3.719 0.197
79.1572 3.260 0.184
79.1777 3.771 0.198
79.1981 3.906 0.202
79.2186 3.625 0.194
79.2390 3.615 0.194
79.2595 3.479 0.190
79.2800 3.833 0.200
79.3004 3.552 0.192
79.3209 3.438 0.189
79.3414 3.719 0.197
79.3618 3.906 0.202
79.3823 3.792 0.199
79.4027 3.406 0.188
79.4232 3.677 0.196
79.4437 3.510 0.191
79.4641 3.792 0.199
79.4846 4.177 0.209
79.5051 3.823 0.200
79.5255 3.969 0.203
79.5460 3.333 0.186
79.5664 3.833 0.200
79.5869 3.906 0.202
79.6074 4.167 0.208
79.6278 4.073 0.206
79.6483 3.781 0.198
79.6688 3.781 0.198
79.6892 3.938 0.203
79.7097 4.250 0.210
79.7302 3.854 0.200
79.7506 3.729 0.197
79.7711 4.063 0.206
79.7915 3.656 0.195
79.8120 3.615 0.194
79.8325 3.469 0.190
79.8529 3.948 0.203
79.8734 3.531 0.192
79.8939 3.823 0.200
79.9143 3.833 0.200
79.9348 3.281 0.185
79.9552 3.438 0.189
79.9757 3.646 0.195
79.9962 3.729 0.197
