'Id: "" Comment: "" Operator: "Lab Manager" Anode: "Cu" Scantype: "Locked Coupled" TimePerStep: "96" X: "0" Y: "0" Z: "0" 
5.0000 23.313 0.493
5.0205 23.792 0.498
5.0409 24.073 0.501
5.0614 23.656 0.496
5.0819 23.896 0.499
5.1023 24.833 0.509
5.1228 23.615 0.496
5.1432 23.708 0.497
5.1637 24.323 0.503
5.1842 22.594 0.485
5.2046 22.948 0.489
5.2251 22.719 0.486
5.2456 22.594 0.485
5.2660 23.448 0.494
5.2865 23.771 0.498
5.3069 24.125 0.501
5.3274 22.740 0.487
5.3479 23.219 0.492
5.3683 23.281 0.492
5.3888 23.333 0.493
5.4093 22.885 0.488
5.4297 22.844 0.488
5.4502 22.427 0.483
5.4706 23.281 0.492
5.4911 22.302 0.482
5.5116 22.583 0.485
5.5320 21.333 0.471
5.5525 22.875 0.488
5.5730 23.063 0.490
5.5934 22.438 0.483
5.6139 22.594 0.485
5.6343 21.146 0.469
5.6548 21.625 0.475
5.6753 22.490 0.484
5.6957 22.073 0.480
5.7162 21.990 0.479
5.7367 22.156 0.480
5.7571 22.469 0.484
5.7776 23.344 0.493
5.7980 22.167 0.481
5.8185 20.771 0.465
5.8390 21.865 0.477
5.8594 22.719 0.486
5.8799 21.552 0.474
5.9004 22.917 0.489
5.9208 22.240 0.481
5.9413 21.990 0.479
5.9618 22.198 0.481
5.9822 22.344 0.482
6.0027 21.698 0.475
6.0231 21.490 0.473
6.0436 21.354 0.472
6.0641 21.365 0.472
6.0845 22.260 0.482
6.1050 21.104 0.469
6.1255 22.052 0.479
6.1459 20.688 0.464
6.1664 21.115 0.469
6.1868 21.354 0.472
6.2073 21.760 0.476
6.2278 21.646 0.475
6.2482 20.646 0.464
6.2687 21.719 0.476
6.2892 20.958 0.467
6.3096 22.021 0.479
6.3301 20.719 0.465
6.3505 20.865 0.466
6.3710 21.302 0.471
6.3915 21.115 0.469
6.4119 22.010 0.479
6.4324 20.927 0.467
6.4529 21.083 0.469
6.4733 20.656 0.464
6.4938 20.583 0.463
6.5142 21.542 0.474
6.5347 21.833 0.477
6.5552 21.135 0.469
6.5756 21.354 0.472
6.5961 21.271 0.471
6.6166 21.990 0.479
6.6370 21.469 0.473
6.6575 20.708 0.464
6.6779 21.083 0.469
6.6984 20.792 0.465
6.7189 21.177 0.470
6.7393 20.719 0.465
6.7598 21.115 0.469
6.7803 21.448 0.473
6.8007 20.938 0.467
6.8212 20.448 0.462
6.8417 21.604 0.474
6.8621 20.302 0.460
6.8826 21.333 0.471
6.9030 20.229 0.459
6.9235 20.854 0.466
6.9440 19.698 0.453
6.9644 21.063 0.468
6.9849 20.917 0.467
7.0054 20.979 0.467
7.0258 20.802 0.465
7.0463 20.542 0.463
7.0667 20.427 0.461
7.0872 19.917 0.455
7.1077 21.542 0.474
7.1281 21.135 0.469
7.1486 20.698 0.464
7.1691 21.708 0.476
7.1895 20.698 0.464
7.2100 21.042 0.468
7.2304 20.656 0.464
7.2509 20.344 0.460
7.2714 20.844 0.466
7.2918 20.833 0.466
7.3123 21.063 0.468
7.3328 20.969 0.467
7.3532 21.063 0.468
7.3737 21.063 0.468
7.3941 20.260 0.459
7.4146 21.146 0.469
7.4351 19.885 0.455
7.4555 20.427 0.461
7.4760 20.250 0.459
7.4965 20.250 0.459
7.5169 19.760 0.454
7.5374 21.115 0.469
7.5579 21.792 0.476
7.5783 21.198 0.470
7.5988 20.719 0.465
7.6192 20.823 0.466
7.6397 20.375 0.461
7.6602 21.240 0.470
7.6806 21.365 0.472
7.7011 21.167 0.470
7.7216 20.865 0.466
7.7420 20.302 0.460
7.7625 20.615 0.463
7.7829 22.104 0.480
7.8034 20.677 0.464
7.8239 20.875 0.466
7.8443 20.865 0.466
7.8648 21.396 0.472
7.8853 21.156 0.469
7.9057 20.885 0.466
7.9262 20.677 0.464
7.9466 21.667 0.475
7.9671 21.594 0.474
7.9876 22.031 0.479
8.0080 21.708 0.476
8.0285 21.583 0.474
8.0490 21.760 0.476
8.0694 21.385 0.472
8.0899 20.406 0.461
8.1103 21.146 0.469
8.1308 20.771 0.465
8.1513 20.656 0.464
8.1717 21.125 0.469
8.1922 21.073 0.469
8.2127 21.500 0.473
8.2331 21.156 0.469
8.2536 21.281 0.471
8.2740 21.865 0.477
8.2945 21.448 0.473
8.3150 21.594 0.474
8.3354 21.604 0.474
8.3559 21.083 0.469
8.3764 23.188 0.491
8.3968 20.542 0.463
8.4173 21.208 0.470
8.4378 21.927 0.478
8.4582 21.260 0.471
8.4787 20.750 0.465
8.4991 21.385 0.472
8.5196 21.198 0.470
8.5401 21.281 0.471
8.5605 22.729 0.487
8.5810 21.479 0.473
8.6015 22.219 0.481
8.6219 22.125 0.480
8.6424 21.458 0.473
8.6628 23.104 0.491
8.6833 21.948 0.478
8.7038 22.521 0.484
8.7242 21.698 0.475
8.7447 22.583 0.485
8.7652 21.792 0.476
8.7856 23.313 0.493
8.8061 23.188 0.491
8.8265 23.719 0.497
8.8470 23.354 0.493
8.8675 23.219 0.492
8.8879 24.031 0.500
8.9084 26.198 0.522
8.9289 26.646 0.527
8.9493 25.990 0.520
8.9698 25.479 0.515
8.9902 24.323 0.503
9.0107 24.875 0.509
9.0312 26.031 0.521
9.0516 26.531 0.526
9.0721 27.469 0.535
9.0926 29.333 0.553
9.1130 30.573 0.564
9.1335 33.604 0.592
9.1539 35.729 0.610
9.1744 40.198 0.647
9.1949 47.156 0.701
9.2153 56.417 0.767
9.2358 68.625 0.845
9.2563 81.781 0.923
9.2767 93.365 0.986
9.2972 89.521 0.966
9.3177 81.365 0.921
9.3381 72.667 0.870
9.3586 66.313 0.831
9.3790 64.417 0.819
9.3995 63.240 0.812
9.4200 62.198 0.805
9.4404 61.708 0.802
9.4609 63.406 0.813
9.4814 65.198 0.824
9.5018 68.458 0.844
9.5223 71.750 0.865
9.5427 78.448 0.904
9.5632 83.969 0.935
9.5837 89.177 0.964
9.6041 95.990 1.000
9.6246 103.469 1.038
9.6451 110.854 1.075
9.6655 119.615 1.116
9.6860 131.625 1.171
9.7064 148.260 1.243
9.7269 174.927 1.350
9.7474 213.406 1.491
9.7678 273.708 1.689
9.7883 370.042 1.963
9.8088 532.938 2.356
9.8292 769.240 2.831
9.8497 1096.792 3.380
9.8701 1510.813 3.967
9.8906 1656.646 4.154
9.9111 1066.271 3.333
9.9315 464.406 2.199
9.9520 184.750 1.387
9.9725 105.833 1.050
9.9929 82.042 0.924
10.0134 72.490 0.869
10.0338 67.146 0.836
10.0543 63.979 0.816
10.0748 59.885 0.790
10.0952 54.771 0.755
10.1157 49.656 0.719
10.1362 44.938 0.684
10.1566 39.021 0.638
10.1771 35.260 0.606
10.1976 33.094 0.587
10.2180 32.521 0.582
10.2385 30.198 0.561
10.2589 30.375 0.563
10.2794 29.573 0.555
10.2999 28.604 0.546
10.3203 28.260 0.543
10.3408 29.344 0.553
10.3613 27.708 0.537
10.3817 26.865 0.529
10.4022 27.219 0.532
10.4226 26.073 0.521
10.4431 26.802 0.528
10.4636 25.802 0.518
10.4840 26.083 0.521
10.5045 26.344 0.524
10.5250 26.083 0.521
10.5454 26.646 0.527
10.5659 25.760 0.518
10.5863 25.135 0.512
10.6068 24.896 0.509
10.6273 25.646 0.517
10.6477 24.656 0.507
10.6682 25.427 0.515
10.6887 24.594 0.506
10.7091 24.573 0.506
10.7296 24.521 0.505
10.7500 23.760 0.497
10.7705 23.885 0.499
10.7910 24.635 0.507
10.8114 22.677 0.486
10.8319 22.760 0.487
10.8524 23.219 0.492
10.8728 23.156 0.491
10.8933 22.344 0.482
10.9137 22.448 0.484
10.9342 22.094 0.480
10.9547 22.229 0.481
10.9751 22.604 0.485
10.9956 21.667 0.475
11.0161 21.573 0.474
11.0365 21.771 0.476
11.0570 21.771 0.476
11.0775 21.406 0.472
11.0979 20.854 0.466
11.1184 20.750 0.465
11.1388 20.885 0.466
11.1593 21.177 0.470
11.1798 21.302 0.471
11.2002 20.031 0.457
11.2207 20.448 0.462
11.2412 19.927 0.456
11.2616 19.563 0.451
11.2821 20.021 0.457
11.3025 20.292 0.460
11.3230 20.219 0.459
11.3435 19.719 0.453
11.3639 19.365 0.449
11.3844 19.802 0.454
11.4049 19.563 0.451
11.4253 18.302 0.437
11.4458 19.073 0.446
11.4662 18.604 0.440
11.4867 19.229 0.448
11.5072 18.865 0.443
11.5276 18.917 0.444
11.5481 18.333 0.437
11.5686 19.281 0.448
11.5890 18.615 0.440
11.6095 17.542 0.427
11.6299 18.906 0.444
11.6504 17.792 0.430
11.6709 18.115 0.434
11.6913 17.333 0.425
11.7118 18.531 0.439
11.7323 17.604 0.428
11.7527 17.792 0.430
11.7732 16.760 0.418
11.7937 16.948 0.420
11.8141 17.885 0.432
11.8346 17.042 0.421
11.8550 16.833 0.419
11.8755 17.083 0.422
11.8960 17.406 0.426
11.9164 17.167 0.423
11.9369 17.115 0.422
11.9574 16.500 0.415
11.9778 16.469 0.414
11.9983 16.708 0.417
12.0187 16.615 0.416
12.0392 16.010 0.408
12.0597 15.729 0.405
12.0801 16.115 0.410
12.1006 16.031 0.409
12.1211 15.990 0.408
12.1415 16.167 0.410
12.1620 16.271 0.412
12.1824 14.729 0.392
12.2029 15.771 0.405
12.2234 15.188 0.398
12.2438 15.781 0.405
12.2643 15.458 0.401
12.2848 15.625 0.403
12.3052 15.260 0.399
12.3257 14.865 0.393
12.3461 15.073 0.396
12.3666 15.469 0.401
12.3871 15.417 0.401
12.4075 15.052 0.396
12.4280 15.646 0.404
12.4485 15.000 0.395
12.4689 14.323 0.386
12.4894 14.969 0.395
12.5098 14.208 0.385
12.5303 14.531 0.389
12.5508 14.656 0.391
12.5712 14.615 0.390
12.5917 14.781 0.392
12.6122 14.104 0.383
12.6326 14.427 0.388
12.6531 14.083 0.383
12.6736 14.396 0.387
12.6940 14.219 0.385
12.7145 14.073 0.383
12.7349 13.646 0.377
12.7554 14.167 0.384
12.7759 14.698 0.391
12.7963 13.115 0.370
12.8168 13.906 0.381
12.8373 13.083 0.369
12.8577 13.563 0.376
12.8782 14.073 0.383
12.8986 13.500 0.375
12.9191 13.198 0.371
12.9396 13.615 0.377
12.9600 13.854 0.380
12.9805 13.448 0.374
13.0010 13.260 0.372
13.0214 12.969 0.368
13.0419 12.750 0.364
13.0623 13.000 0.368
13.0828 13.594 0.376
13.1033 13.271 0.372
13.1237 13.490 0.375
13.1442 12.885 0.366
13.1647 13.406 0.374
13.1851 13.344 0.373
13.2056 13.479 0.375
13.2260 13.000 0.368
13.2465 13.104 0.369
13.2670 12.740 0.364
13.2874 12.542 0.361
13.3079 12.823 0.365
13.3284 13.229 0.371
13.3488 12.594 0.362
13.3693 12.771 0.365
13.3897 13.104 0.369
13.4102 12.708 0.364
13.4307 13.156 0.370
13.4511 12.896 0.367
13.4716 12.823 0.365
13.4921 12.531 0.361
13.5125 12.281 0.358
13.5330 12.354 0.359
13.5535 12.646 0.363
13.5739 12.510 0.361
13.5944 12.219 0.357
13.6148 12.292 0.358
13.6353 12.104 0.355
13.6558 12.510 0.361
13.6762 11.865 0.352
13.6967 11.917 0.352
13.7172 11.740 0.350
13.7376 12.063 0.354
13.7581 11.708 0.349
13.7785 11.448 0.345
13.7990 12.781 0.365
13.8195 11.990 0.353
13.8399 11.688 0.349
13.8604 11.854 0.351
13.8809 11.760 0.350
13.9013 11.917 0.352
13.9218 12.271 0.358
13.9422 11.667 0.349
13.9627 12.854 0.366
13.9832 12.240 0.357
14.0036 11.969 0.353
14.0241 12.094 0.355
14.0446 12.188 0.356
14.0650 11.635 0.348
14.0855 12.146 0.356
14.1059 11.469 0.346
14.1264 11.792 0.350
14.1469 11.260 0.342
14.1673 10.885 0.337
14.1878 11.771 0.350
14.2083 11.542 0.347
14.2287 11.917 0.352
14.2492 11.250 0.342
14.2696 11.469 0.346
14.2901 11.125 0.340
14.3106 11.792 0.350
14.3310 11.448 0.345
14.3515 11.948 0.353
14.3720 11.594 0.348
14.3924 11.417 0.345
14.4129 11.354 0.344
14.4334 11.500 0.346
14.4538 11.729 0.350
14.4743 11.698 0.349
14.4947 11.438 0.345
14.5152 11.260 0.342
14.5357 11.417 0.345
14.5561 11.219 0.342
14.5766 11.854 0.351
14.5971 11.677 0.349
14.6175 11.094 0.340
14.6380 11.115 0.340
14.6584 11.146 0.341
14.6789 11.094 0.340
14.6994 11.896 0.352
14.7198 11.250 0.342
14.7403 11.646 0.348
14.7608 10.656 0.333
14.7812 11.115 0.340
14.8017 11.052 0.339
14.8221 10.792 0.335
14.8426 10.979 0.338
14.8631 10.948 0.338
14.8835 10.490 0.331
14.9040 10.969 0.338
14.9245 11.073 0.340
14.9449 11.292 0.343
14.9654 11.125 0.340
14.9858 11.042 0.339
15.0063 10.375 0.329
15.0268 11.729 0.350
15.0472 10.896 0.337
15.0677 10.500 0.331
15.0882 11.198 0.342
15.1086 10.688 0.334
15.1291 10.719 0.334
15.1495 10.490 0.331
15.1700 10.896 0.337
15.1905 10.344 0.328
15.2109 10.927 0.337
15.2314 11.208 0.342
15.2519 10.531 0.331
15.2723 10.885 0.337
15.2928 10.792 0.335
15.3133 11.083 0.340
15.3337 10.604 0.332
15.3542 10.479 0.330
15.3746 10.448 0.330
15.3951 10.833 0.336
15.4156 10.625 0.333
15.4360 10.583 0.332
15.4565 11.125 0.340
15.4770 10.156 0.325
15.4974 10.458 0.330
15.5179 10.688 0.334
15.5383 10.500 0.331
15.5588 10.510 0.331
15.5793 10.333 0.328
15.5997 10.469 0.330
15.6202 10.229 0.326
15.6407 10.333 0.328
15.6611 10.510 0.331
15.6816 10.198 0.326
15.7020 10.292 0.327
15.7225 10.781 0.335
15.7430 9.781 0.319
15.7634 9.740 0.319
15.7839 10.865 0.336
15.8044 10.531 0.331
15.8248 10.250 0.327
15.8453 10.208 0.326
15.8657 10.229 0.326
15.8862 10.146 0.325
15.9067 10.406 0.329
15.9271 10.188 0.326
15.9476 10.094 0.324
15.9681 10.146 0.325
15.9885 10.167 0.325
16.0090 9.885 0.321
16.0295 10.198 0.326
16.0499 9.698 0.318
16.0704 10.063 0.324
16.0908 10.396 0.329
16.1113 9.438 0.314
16.1318 10.729 0.334
16.1522 9.469 0.314
16.1727 9.938 0.322
16.1932 10.615 0.333
16.2136 10.573 0.332
16.2341 10.094 0.324
16.2545 10.427 0.330
16.2750 10.833 0.336
16.2955 10.208 0.326
16.3159 10.042 0.323
16.3364 9.885 0.321
16.3569 10.313 0.328
16.3773 10.573 0.332
16.3978 10.281 0.327
16.4182 10.719 0.334
16.4387 10.250 0.327
16.4592 10.271 0.327
16.4796 9.906 0.321
16.5001 10.177 0.326
16.5206 10.385 0.329
16.5410 10.281 0.327
16.5615 9.833 0.320
16.5819 9.688 0.318
16.6024 10.125 0.325
16.6229 10.177 0.326
16.6433 9.677 0.317
16.6638 10.813 0.336
16.6843 9.833 0.320
16.7047 10.167 0.325
16.7252 10.771 0.335
16.7456 10.323 0.328
16.7661 10.271 0.327
16.7866 10.010 0.323
16.8070 10.146 0.325
16.8275 10.146 0.325
16.8480 10.521 0.331
16.8684 10.250 0.327
16.8889 10.115 0.325
16.9094 10.156 0.325
16.9298 10.885 0.337
16.9503 10.094 0.324
16.9707 10.208 0.326
16.9912 10.198 0.326
17.0117 10.469 0.330
17.0321 10.052 0.324
17.0526 10.969 0.338
17.0731 10.240 0.327
17.0935 10.677 0.333
17.1140 10.323 0.328
17.1344 10.448 0.330
17.1549 9.948 0.322
17.1754 10.240 0.327
17.1958 10.677 0.333
17.2163 10.677 0.333
17.2368 10.958 0.338
17.2572 10.438 0.330
17.2777 10.677 0.333
17.2981 11.031 0.339
17.3186 10.656 0.333
17.3391 11.052 0.339
17.3595 10.823 0.336
17.3800 10.677 0.333
17.4005 10.990 0.338
17.4209 11.240 0.342
17.4414 11.354 0.344
17.4618 12.292 0.358
17.4823 11.938 0.353
17.5028 12.688 0.364
17.5232 12.823 0.365
17.5437 13.063 0.369
17.5642 14.229 0.385
17.5846 14.521 0.389
17.6051 14.354 0.387
17.6255 14.521 0.389
17.6460 12.938 0.367
17.6665 12.948 0.367
17.6869 12.740 0.364
17.7074 12.646 0.363
17.7279 12.375 0.359
17.7483 12.979 0.368
17.7688 12.563 0.362
17.7893 13.427 0.374
17.8097 13.208 0.371
17.8302 13.375 0.373
17.8506 14.375 0.387
17.8711 14.510 0.389
17.8916 15.490 0.402
17.9120 15.010 0.395
17.9325 14.531 0.389
17.9530 14.573 0.390
17.9734 15.417 0.401
17.9939 15.635 0.404
18.0143 16.583 0.416
18.0348 17.365 0.425
18.0553 19.656 0.452
18.0757 20.094 0.458
18.0962 20.771 0.465
18.1167 19.167 0.447
18.1371 19.208 0.447
18.1576 18.906 0.444
18.1780 17.969 0.433
18.1985 19.063 0.446
18.2190 19.083 0.446
18.2394 19.333 0.449
18.2599 20.083 0.457
18.2804 20.281 0.460
18.3008 21.115 0.469
18.3213 21.250 0.470
18.3417 22.875 0.488
18.3622 23.219 0.492
18.3827 23.073 0.490
18.4031 25.229 0.513
18.4236 25.677 0.517
18.4441 26.125 0.522
18.4645 27.469 0.535
18.4850 29.625 0.556
18.5054 32.427 0.581
18.5259 34.823 0.602
18.5464 38.719 0.635
18.5668 42.313 0.664
18.5873 45.000 0.685
18.6078 44.292 0.679
18.6282 42.323 0.664
18.6487 37.156 0.622
18.6692 33.979 0.595
18.6896 31.594 0.574
18.7101 30.656 0.565
18.7305 28.052 0.541
18.7510 27.594 0.536
18.7715 26.177 0.522
18.7919 26.781 0.528
18.8124 25.594 0.516
18.8329 25.031 0.511
18.8533 23.229 0.492
18.8738 23.427 0.494
18.8942 21.979 0.478
18.9147 20.615 0.463
18.9352 20.094 0.458
18.9556 20.083 0.457
18.9761 19.208 0.447
18.9966 20.365 0.461
19.0170 19.698 0.453
19.0375 18.875 0.443
19.0579 19.073 0.446
19.0784 19.458 0.450
19.0989 18.042 0.434
19.1193 18.958 0.444
19.1398 19.281 0.448
19.1603 19.375 0.449
19.1807 20.052 0.457
19.2012 20.052 0.457
19.2216 19.521 0.451
19.2421 19.698 0.453
19.2626 20.010 0.457
19.2830 20.510 0.462
19.3035 19.625 0.452
19.3240 20.510 0.462
19.3444 20.625 0.464
19.3649 20.396 0.461
19.3853 20.448 0.462
19.4058 21.760 0.476
19.4263 21.875 0.477
19.4467 22.417 0.483
19.4672 24.063 0.501
19.4877 24.531 0.506
19.5081 26.625 0.527
19.5286 28.021 0.540
19.5491 31.729 0.575
19.5695 33.125 0.587
19.5900 35.094 0.605
19.6104 36.635 0.618
19.6309 40.458 0.649
19.6514 45.646 0.690
19.6718 49.896 0.721
19.6923 58.010 0.777
19.7128 72.802 0.871
19.7332 94.615 0.993
19.7537 134.906 1.185
19.7741 205.865 1.464
19.7946 335.698 1.870
19.8151 518.542 2.324
19.8355 452.990 2.172
19.8560 299.844 1.767
19.8765 267.083 1.668
19.8969 128.250 1.156
19.9174 59.427 0.787
19.9378 42.656 0.667
19.9583 34.521 0.600
19.9788 30.063 0.560
19.9992 27.958 0.540
20.0197 26.563 0.526
20.0402 24.823 0.508
20.0606 23.354 0.493
20.0811 21.385 0.472
20.1015 18.969 0.445
20.1220 18.896 0.444
20.1425 18.021 0.433
20.1629 17.792 0.430
20.1834 17.552 0.428
20.2039 18.281 0.436
20.2243 18.104 0.434
20.2448 19.281 0.448
20.2653 19.479 0.450
20.2857 19.021 0.445
20.3062 19.760 0.454
20.3266 19.729 0.453
20.3471 20.167 0.458
20.3676 19.656 0.452
20.3880 19.885 0.455
20.4085 18.760 0.442
20.4290 18.656 0.441
20.4494 19.688 0.453
20.4699 19.135 0.446
20.4903 18.250 0.436
20.5108 18.198 0.435
20.5313 17.969 0.433
20.5517 17.583 0.428
20.5722 16.646 0.416
20.5927 17.063 0.422
20.6131 16.000 0.408
20.6336 16.229 0.411
20.6540 15.729 0.405
20.6745 15.083 0.396
20.6950 14.708 0.391
20.7154 14.333 0.386
20.7359 14.229 0.385
20.7564 13.823 0.379
20.7768 13.906 0.381
20.7973 13.469 0.375
20.8177 13.375 0.373
20.8382 13.500 0.375
20.8587 13.010 0.368
20.8791 12.969 0.368
20.8996 12.427 0.360
20.9201 12.990 0.368
20.9405 12.813 0.365
20.9610 12.844 0.366
20.9814 12.792 0.365
21.0019 12.917 0.367
21.0224 12.156 0.356
21.0428 12.240 0.357
21.0633 13.219 0.371
21.0838 12.542 0.361
21.1042 12.333 0.358
21.1247 12.969 0.368
21.1452 12.427 0.360
21.1656 11.594 0.348
21.1861 12.323 0.358
21.2065 12.344 0.359
21.2270 11.792 0.350
21.2475 12.177 0.356
21.2679 11.865 0.352
21.2884 11.875 0.352
21.3089 12.135 0.356
21.3293 11.490 0.346
21.3498 12.229 0.357
21.3702 11.573 0.347
21.3907 11.969 0.353
21.4112 11.302 0.343
21.4316 10.708 0.334
21.4521 11.833 0.351
21.4726 11.917 0.352
21.4930 12.021 0.354
21.5135 11.698 0.349
21.5339 11.385 0.344
21.5544 12.000 0.354
21.5749 11.875 0.352
21.5953 12.000 0.354
21.6158 11.417 0.345
21.6363 11.958 0.353
21.6567 11.729 0.350
21.6772 11.417 0.345
21.6976 12.479 0.361
21.7181 12.563 0.362
21.7386 12.813 0.365
21.7590 11.875 0.352
21.7795 11.854 0.351
21.8000 11.792 0.350
21.8204 12.115 0.355
21.8409 11.906 0.352
21.8613 11.823 0.351
21.8818 11.375 0.344
21.9023 11.969 0.353
21.9227 12.563 0.362
21.9432 12.250 0.357
21.9637 11.917 0.352
21.9841 13.031 0.368
22.0046 12.750 0.364
22.0251 12.854 0.366
22.0455 14.427 0.388
22.0660 14.750 0.392
22.0864 16.448 0.414
22.1069 20.115 0.458
22.1274 26.052 0.521
22.1478 34.458 0.599
22.1683 46.208 0.694
22.1888 52.573 0.740
22.2092 46.563 0.696
22.2297 41.375 0.656
22.2501 36.708 0.618
22.2706 27.448 0.535
22.2911 21.688 0.475
22.3115 18.677 0.441
22.3320 17.354 0.425
22.3525 15.385 0.400
22.3729 14.427 0.388
22.3934 14.219 0.385
22.4138 13.521 0.375
22.4343 13.469 0.375
22.4548 13.563 0.376
22.4752 12.604 0.362
22.4957 12.021 0.354
22.5162 12.375 0.359
22.5366 11.635 0.348
22.5571 11.781 0.350
22.5775 11.146 0.341
22.5980 11.771 0.350
22.6185 11.167 0.341
22.6389 11.344 0.344
22.6594 11.833 0.351
22.6799 11.458 0.345
22.7003 11.031 0.339
22.7208 11.135 0.341
22.7412 10.771 0.335
22.7617 11.583 0.347
22.7822 10.271 0.327
22.8026 11.188 0.341
22.8231 11.458 0.345
22.8436 11.292 0.343
22.8640 10.573 0.332
22.8845 10.979 0.338
22.9050 10.708 0.334
22.9254 10.656 0.333
22.9459 11.219 0.342
22.9663 11.208 0.342
22.9868 10.177 0.326
23.0073 10.438 0.330
23.0277 10.375 0.329
23.0482 10.688 0.334
23.0687 10.292 0.327
23.0891 10.427 0.330
23.1096 10.240 0.327
23.1300 10.813 0.336
23.1505 9.750 0.319
23.1710 10.083 0.324
23.1914 9.479 0.314
23.2119 10.490 0.331
23.2324 10.531 0.331
23.2528 10.448 0.330
23.2733 10.156 0.325
23.2937 10.260 0.327
23.3142 10.177 0.326
23.3347 10.000 0.323
23.3551 10.906 0.337
23.3756 10.073 0.324
23.3961 10.031 0.323
23.4165 9.958 0.322
23.4370 10.938 0.338
23.4574 11.104 0.340
23.4779 10.656 0.333
23.4984 11.198 0.342
23.5188 11.042 0.339
23.5393 11.292 0.343
23.5598 11.427 0.345
23.5802 12.302 0.358
23.6007 13.146 0.370
23.6211 13.198 0.371
23.6416 13.479 0.375
23.6621 13.573 0.376
23.6825 13.521 0.375
23.7030 12.052 0.354
23.7235 12.219 0.357
23.7439 11.250 0.342
23.7644 10.729 0.334
23.7849 10.333 0.328
23.8053 9.615 0.316
23.8258 9.719 0.318
23.8462 10.063 0.324
23.8667 9.927 0.322
23.8872 10.260 0.327
23.9076 9.927 0.322
23.9281 10.271 0.327
23.9486 9.615 0.316
23.9690 10.031 0.323
23.9895 9.563 0.316
24.0099 9.021 0.307
24.0304 9.385 0.313
24.0509 9.292 0.311
24.0713 9.188 0.309
24.0918 9.167 0.309
24.1123 9.469 0.314
24.1327 9.208 0.310
24.1532 8.823 0.303
24.1736 9.760 0.319
24.1941 10.125 0.325
24.2146 10.073 0.324
24.2350 10.271 0.327
24.2555 10.688 0.334
24.2760 10.854 0.336
24.2964 11.771 0.350
24.3169 12.458 0.360
24.3373 12.865 0.366
24.3578 11.688 0.349
24.3783 10.917 0.337
24.3987 11.052 0.339
24.4192 11.000 0.339
24.4397 8.958 0.305
24.4601 9.219 0.310
24.4806 9.927 0.322
24.5011 8.990 0.306
24.5215 9.302 0.311
24.5420 8.958 0.305
24.5624 8.750 0.302
24.5829 9.271 0.311
24.6034 9.240 0.310
24.6238 9.010 0.306
24.6443 9.406 0.313
24.6648 8.823 0.303
24.6852 9.240 0.310
24.7057 8.677 0.301
24.7261 9.104 0.308
24.7466 8.854 0.304
24.7671 9.000 0.306
24.7875 8.958 0.305
24.8080 9.073 0.307
24.8285 8.885 0.304
24.8489 8.844 0.304
24.8694 8.594 0.299
24.8898 8.469 0.297
24.9103 9.188 0.309
24.9308 8.458 0.297
24.9512 8.250 0.293
24.9717 8.604 0.299
24.9922 8.354 0.295
25.0126 8.583 0.299
25.0331 9.208 0.310
25.0535 8.271 0.294
25.0740 8.375 0.295
25.0945 8.552 0.298
25.1149 8.833 0.303
25.1354 8.552 0.298
25.1559 8.854 0.304
25.1763 8.302 0.294
25.1968 8.313 0.294
25.2172 8.792 0.303
25.2377 9.125 0.308
25.2582 9.271 0.311
25.2786 8.604 0.299
25.2991 8.198 0.292
25.3196 8.396 0.296
25.3400 8.521 0.298
25.3605 9.333 0.312
25.3810 8.958 0.305
25.4014 8.250 0.293
25.4219 8.219 0.293
25.4423 8.771 0.302
25.4628 8.656 0.300
25.4833 8.406 0.296
25.5037 8.333 0.295
25.5242 8.458 0.297
25.5447 8.302 0.294
25.5651 8.625 0.300
25.5856 9.000 0.306
25.6060 8.448 0.297
25.6265 8.385 0.296
25.6470 8.625 0.300
25.6674 8.688 0.301
25.6879 8.688 0.301
25.7084 8.104 0.291
25.7288 8.479 0.297
25.7493 8.844 0.304
25.7697 8.802 0.303
25.7902 8.719 0.301
25.8107 8.667 0.300
25.8311 8.708 0.301
25.8516 8.323 0.294
25.8721 8.281 0.294
25.8925 8.667 0.300
25.9130 8.979 0.306
25.9334 8.656 0.300
25.9539 8.688 0.301
25.9744 8.708 0.301
25.9948 9.115 0.308
26.0153 8.938 0.305
26.0358 8.396 0.296
26.0562 8.667 0.300
26.0767 8.531 0.298
26.0971 8.719 0.301
26.1176 9.083 0.308
26.1381 8.531 0.298
26.1585 8.635 0.300
26.1790 9.083 0.308
26.1995 9.031 0.307
26.2199 9.177 0.309
26.2404 8.802 0.303
26.2609 8.531 0.298
26.2813 8.740 0.302
26.3018 8.208 0.292
26.3222 8.563 0.299
26.3427 8.698 0.301
26.3632 8.260 0.293
26.3836 8.323 0.294
26.4041 8.885 0.304
26.4246 8.646 0.300
26.4450 8.760 0.302
26.4655 8.552 0.298
26.4859 8.552 0.298
26.5064 8.396 0.296
26.5269 8.885 0.304
26.5473 8.573 0.299
26.5678 8.771 0.302
26.5883 8.427 0.296
26.6087 8.604 0.299
26.6292 8.250 0.293
26.6496 8.292 0.294
26.6701 7.917 0.287
26.6906 8.490 0.297
26.7110 8.625 0.300
26.7315 8.313 0.294
26.7520 9.083 0.308
26.7724 8.688 0.301
26.7929 8.792 0.303
26.8133 8.500 0.298
26.8338 8.344 0.295
26.8543 8.188 0.292
26.8747 9.198 0.310
26.8952 9.031 0.307
26.9157 9.667 0.317
26.9361 9.313 0.311
26.9566 9.302 0.311
26.9770 10.156 0.325
26.9975 10.458 0.330
27.0180 9.427 0.313
27.0384 9.583 0.316
27.0589 8.885 0.304
27.0794 9.719 0.318
27.0998 9.135 0.308
27.1203 8.844 0.304
27.1408 9.188 0.309
27.1612 8.510 0.298
27.1817 9.063 0.307
27.2021 8.896 0.304
27.2226 8.792 0.303
27.2431 8.583 0.299
27.2635 8.677 0.301
27.2840 8.875 0.304
27.3045 9.083 0.308
27.3249 8.677 0.301
27.3454 8.229 0.293
27.3658 8.500 0.298
27.3863 8.344 0.295
27.4068 8.865 0.304
27.4272 8.656 0.300
27.4477 8.354 0.295
27.4682 8.094 0.290
27.4886 9.115 0.308
27.5091 9.010 0.306
27.5295 9.156 0.309
27.5500 8.813 0.303
27.5705 8.490 0.297
27.5909 8.448 0.297
27.6114 8.958 0.305
27.6319 8.563 0.299
27.6523 8.667 0.300
27.6728 8.833 0.303
27.6932 8.354 0.295
27.7137 8.823 0.303
27.7342 8.344 0.295
27.7546 9.240 0.310
27.7751 9.490 0.314
27.7956 8.760 0.302
27.8160 9.156 0.309
27.8365 8.375 0.295
27.8569 9.083 0.308
27.8774 8.667 0.300
27.8979 9.490 0.314
27.9183 8.958 0.305
27.9388 9.031 0.307
27.9593 9.250 0.310
27.9797 8.750 0.302
28.0002 9.292 0.311
28.0207 9.125 0.308
28.0411 8.635 0.300
28.0616 9.000 0.306
28.0820 8.792 0.303
28.1025 9.208 0.310
28.1230 8.844 0.304
28.1434 8.729 0.302
28.1639 9.073 0.307
28.1844 8.698 0.301
28.2048 8.188 0.292
28.2253 8.385 0.296
28.2457 8.740 0.302
28.2662 9.094 0.308
28.2867 8.375 0.295
28.3071 8.646 0.300
28.3276 8.177 0.292
28.3481 8.698 0.301
28.3685 8.260 0.293
28.3890 8.229 0.293
28.4094 8.625 0.300
28.4299 8.490 0.297
28.4504 8.375 0.295
28.4708 8.073 0.290
28.4913 8.208 0.292
28.5118 8.688 0.301
28.5322 8.833 0.303
28.5527 8.417 0.296
28.5731 8.323 0.294
28.5936 8.573 0.299
28.6141 8.510 0.298
28.6345 8.396 0.296
28.6550 8.500 0.298
28.6755 8.135 0.291
28.6959 8.844 0.304
28.7164 8.094 0.290
28.7368 8.552 0.298
28.7573 8.896 0.304
28.7778 9.031 0.307
28.7982 8.417 0.296
28.8187 9.417 0.313
28.8392 9.333 0.312
28.8596 9.250 0.310
28.8801 10.438 0.330
28.9006 10.958 0.338
28.9210 9.927 0.322
28.9415 9.698 0.318
28.9619 9.313 0.311
28.9824 9.313 0.311
29.0029 8.917 0.305
29.0233 8.990 0.306
29.0438 8.969 0.306
29.0643 8.365 0.295
29.0847 8.510 0.298
29.1052 8.365 0.295
29.1256 9.167 0.309
29.1461 8.406 0.296
29.1666 8.042 0.289
29.1870 8.281 0.294
29.2075 8.698 0.301
29.2280 8.979 0.306
29.2484 8.490 0.297
29.2689 9.167 0.309
29.2893 9.094 0.308
29.3098 9.583 0.316
29.3303 10.073 0.324
29.3507 9.719 0.318
29.3712 9.302 0.311
29.3917 9.552 0.315
29.4121 9.448 0.314
29.4326 8.344 0.295
29.4530 8.490 0.297
29.4735 8.604 0.299
29.4940 8.313 0.294
29.5144 8.406 0.296
29.5349 7.667 0.283
29.5554 8.073 0.290
29.5758 7.708 0.283
29.5963 7.906 0.287
29.6168 8.427 0.296
29.6372 7.563 0.281
29.6577 8.073 0.290
29.6781 7.948 0.288
29.6986 8.125 0.291
29.7191 8.396 0.296
29.7395 7.927 0.287
29.7600 7.760 0.284
29.7805 7.625 0.282
29.8009 7.542 0.280
29.8214 7.750 0.284
29.8418 7.583 0.281
29.8623 7.938 0.288
29.8828 8.104 0.291
29.9032 8.885 0.304
29.9237 8.604 0.299
29.9442 8.344 0.295
29.9646 8.354 0.295
29.9851 8.333 0.295
30.0055 7.656 0.282
30.0260 7.969 0.288
30.0465 7.979 0.288
30.0669 7.438 0.278
30.0874 7.573 0.281
30.1079 7.896 0.287
30.1283 7.844 0.286
30.1488 7.729 0.284
30.1692 8.104 0.291
30.1897 7.531 0.280
30.2102 8.094 0.290
30.2306 8.042 0.289
30.2511 7.438 0.278
30.2716 7.917 0.287
30.2920 7.458 0.279
30.3125 7.208 0.274
30.3329 7.448 0.279
30.3534 7.521 0.280
30.3739 7.604 0.281
30.3943 7.521 0.280
30.4148 7.771 0.285
30.4353 7.635 0.282
30.4557 8.010 0.289
30.4762 8.073 0.290
30.4967 8.156 0.291
30.5171 7.948 0.288
30.5376 8.490 0.297
30.5580 8.281 0.294
30.5785 7.635 0.282
30.5990 7.885 0.287
30.6194 7.604 0.281
30.6399 8.219 0.293
30.6604 8.250 0.293
30.6808 8.271 0.294
30.7013 8.115 0.291
30.7217 8.229 0.293
30.7422 8.104 0.291
30.7627 8.760 0.302
30.7831 9.094 0.308
30.8036 9.083 0.308
30.8241 9.073 0.307
30.8445 9.875 0.321
30.8650 9.688 0.318
30.8854 10.479 0.330
30.9059 11.740 0.350
30.9264 13.219 0.371
30.9468 16.198 0.411
30.9673 20.563 0.463
30.9878 29.458 0.554
31.0082 39.156 0.639
31.0287 45.500 0.688
31.0491 43.375 0.672
31.0696 41.771 0.660
31.0901 41.219 0.655
31.1105 33.010 0.586
31.1310 28.042 0.540
31.1515 23.771 0.498
31.1719 18.458 0.438
31.1924 14.625 0.390
31.2128 12.344 0.359
31.2333 10.927 0.337
31.2538 10.208 0.326
31.2742 9.802 0.320
31.2947 9.406 0.313
31.3152 9.208 0.310
31.3356 9.813 0.320
31.3561 9.667 0.317
31.3766 8.708 0.301
31.3970 9.063 0.307
31.4175 8.990 0.306
31.4379 8.917 0.305
31.4584 8.594 0.299
31.4789 8.833 0.303
31.4993 7.969 0.288
31.5198 7.760 0.284
31.5403 7.844 0.286
31.5607 7.896 0.287
31.5812 7.750 0.284
31.6016 7.958 0.288
31.6221 8.031 0.289
31.6426 7.927 0.287
31.6630 7.438 0.278
31.6835 7.938 0.288
31.7040 7.344 0.277
31.7244 7.969 0.288
31.7449 7.500 0.280
31.7653 7.844 0.286
31.7858 8.042 0.289
31.8063 7.906 0.287
31.8267 7.792 0.285
31.8472 8.042 0.289
31.8677 7.875 0.286
31.8881 8.198 0.292
31.9086 7.740 0.284
31.9290 7.906 0.287
31.9495 8.073 0.290
31.9700 8.667 0.300
31.9904 8.563 0.299
32.0109 8.729 0.302
32.0314 8.740 0.302
32.0518 9.646 0.317
32.0723 9.625 0.317
32.0927 10.604 0.332
32.1132 10.521 0.331
32.1337 9.833 0.320
32.1541 10.427 0.330
32.1746 10.052 0.324
32.1951 10.177 0.326
32.2155 9.427 0.313
32.2360 9.313 0.311
32.2565 9.427 0.313
32.2769 9.385 0.313
32.2974 9.917 0.321
32.3178 10.156 0.325
32.3383 11.438 0.345
32.3588 11.969 0.353
32.3792 12.885 0.366
32.3997 12.854 0.366
32.4202 12.667 0.363
32.4406 13.042 0.369
32.4611 14.323 0.386
32.4815 14.823 0.393
32.5020 14.396 0.387
32.5225 14.031 0.382
32.5429 14.281 0.386
32.5634 17.125 0.422
32.5839 19.115 0.446
32.6043 21.833 0.477
32.6248 22.688 0.486
32.6452 21.802 0.477
32.6657 18.250 0.436
32.6862 16.969 0.420
32.7066 16.583 0.416
32.7271 15.135 0.397
32.7476 12.135 0.356
32.7680 10.250 0.327
32.7885 10.083 0.324
32.8089 9.208 0.310
32.8294 9.594 0.316
32.8499 8.781 0.302
32.8703 8.688 0.301
32.8908 8.344 0.295
32.9113 7.854 0.286
32.9317 8.240 0.293
32.9522 8.406 0.296
32.9726 8.031 0.289
32.9931 7.677 0.283
33.0136 7.927 0.287
33.0340 8.208 0.292
33.0545 7.667 0.283
33.0750 7.990 0.288
33.0954 7.552 0.280
33.1159 8.083 0.290
33.1364 7.813 0.285
33.1568 7.708 0.283
33.1773 8.052 0.290
33.1977 7.906 0.287
33.2182 7.469 0.279
33.2387 7.260 0.275
33.2591 7.719 0.284
33.2796 7.719 0.284
33.3001 8.083 0.290
33.3205 8.208 0.292
33.3410 7.260 0.275
33.3614 7.323 0.276
33.3819 7.771 0.285
33.4024 7.521 0.280
33.4228 7.698 0.283
33.4433 7.344 0.277
33.4638 7.031 0.271
33.4842 7.396 0.278
33.5047 7.042 0.271
33.5251 7.563 0.281
33.5456 7.115 0.272
33.5661 7.760 0.284
33.5865 7.302 0.276
33.6070 7.635 0.282
33.6275 7.156 0.273
33.6479 7.281 0.275
33.6684 6.865 0.267
33.6888 7.688 0.283
33.7093 6.844 0.267
33.7298 6.990 0.270
33.7502 7.104 0.272
33.7707 7.229 0.274
33.7912 6.927 0.269
33.8116 7.281 0.275
33.8321 7.240 0.275
33.8526 7.500 0.280
33.8730 7.115 0.272
33.8935 7.188 0.274
33.9139 7.406 0.278
33.9344 7.375 0.277
33.9549 6.875 0.268
33.9753 7.406 0.278
33.9958 7.656 0.282
34.0163 7.813 0.285
34.0367 7.469 0.279
34.0572 7.240 0.275
34.0776 7.510 0.280
34.0981 7.240 0.275
34.1186 7.573 0.281
34.1390 7.396 0.278
34.1595 7.375 0.277
34.1800 7.563 0.281
34.2004 6.635 0.263
34.2209 7.302 0.276
34.2413 6.875 0.268
34.2618 7.344 0.277
34.2823 7.354 0.277
34.3027 6.958 0.269
34.3232 6.875 0.268
34.3437 7.615 0.282
34.3641 7.094 0.272
34.3846 6.875 0.268
34.4050 7.625 0.282
34.4255 7.750 0.284
34.4460 7.771 0.285
34.4664 7.781 0.285
34.4869 7.656 0.282
34.5074 7.125 0.272
34.5278 7.063 0.271
34.5483 7.146 0.273
34.5687 7.490 0.279
34.5892 7.406 0.278
34.6097 6.906 0.268
34.6301 7.313 0.276
34.6506 7.260 0.275
34.6711 7.052 0.271
34.6915 6.990 0.270
34.7120 7.438 0.278
34.7325 7.469 0.279
34.7529 7.583 0.281
34.7734 7.156 0.273
34.7938 7.073 0.271
34.8143 7.188 0.274
34.8348 7.063 0.271
34.8552 7.354 0.277
34.8757 6.969 0.269
34.8962 7.927 0.287
34.9166 7.760 0.284
34.9371 7.365 0.277
34.9575 7.375 0.277
34.9780 7.500 0.280
34.9985 7.469 0.279
35.0189 6.969 0.269
35.0394 7.365 0.277
35.0599 7.771 0.285
35.0803 7.313 0.276
35.1008 7.365 0.277
35.1212 7.375 0.277
35.1417 7.313 0.276
35.1622 6.781 0.266
35.1826 7.573 0.281
35.2031 7.792 0.285
35.2236 7.021 0.270
35.2440 7.823 0.285
35.2645 7.594 0.281
35.2849 7.354 0.277
35.3054 7.708 0.283
35.3259 7.229 0.274
35.3463 7.094 0.272
35.3668 7.573 0.281
35.3873 7.677 0.283
35.4077 7.792 0.285
35.4282 7.708 0.283
35.4486 7.531 0.280
35.4691 7.854 0.286
35.4896 8.177 0.292
35.5100 7.885 0.287
35.5305 7.813 0.285
35.5510 8.240 0.293
35.5714 8.448 0.297
35.5919 8.042 0.289
35.6124 9.146 0.309
35.6328 8.781 0.302
35.6533 7.969 0.288
35.6737 9.000 0.306
35.6942 8.521 0.298
35.7147 8.490 0.297
35.7351 7.823 0.285
35.7556 7.750 0.284
35.7761 8.948 0.305
35.7965 8.302 0.294
35.8170 8.292 0.294
35.8374 8.083 0.290
35.8579 8.802 0.303
35.8784 8.542 0.298
35.8988 9.260 0.311
35.9193 8.865 0.304
35.9398 9.573 0.316
35.9602 9.323 0.312
35.9807 9.615 0.316
36.0011 10.490 0.331
36.0216 10.406 0.329
36.0421 10.094 0.324
36.0625 11.729 0.350
36.0830 12.094 0.355
36.1035 14.031 0.382
36.1239 14.854 0.393
36.1444 15.365 0.400
36.1648 16.510 0.415
36.1853 16.396 0.413
36.2058 15.552 0.402
36.2262 15.865 0.407
36.2467 15.083 0.396
36.2672 15.208 0.398
36.2876 14.542 0.389
36.3081 14.823 0.393
36.3285 13.698 0.378
36.3490 14.719 0.392
36.3695 15.115 0.397
36.3899 15.063 0.396
36.4104 16.333 0.412
36.4309 17.313 0.425
36.4513 19.188 0.447
36.4718 18.927 0.444
36.4923 19.510 0.451
36.5127 20.083 0.457
36.5332 20.323 0.460
36.5536 21.729 0.476
36.5741 24.969 0.510
36.5946 28.323 0.543
36.6150 28.375 0.544
36.6355 23.625 0.496
36.6560 22.698 0.486
36.6764 21.063 0.468
36.6969 22.708 0.486
36.7173 20.458 0.462
36.7378 17.958 0.433
36.7583 17.146 0.423
36.7787 15.552 0.402
36.7992 15.115 0.397
36.8197 15.010 0.395
36.8401 15.469 0.401
36.8606 15.188 0.398
36.8810 15.333 0.400
36.9015 15.542 0.402
36.9220 15.823 0.406
36.9424 17.198 0.423
36.9629 18.250 0.436
36.9834 19.229 0.448
37.0038 22.031 0.479
37.0243 25.292 0.513
37.0447 29.479 0.554
37.0652 35.042 0.604
37.0857 36.927 0.620
37.1061 32.094 0.578
37.1266 29.094 0.551
37.1471 26.833 0.529
37.1675 26.354 0.524
37.1880 24.427 0.504
37.2084 19.635 0.452
37.2289 17.073 0.422
37.2494 15.833 0.406
37.2698 13.740 0.378
37.2903 12.542 0.361
37.3108 11.594 0.348
37.3312 12.531 0.361
37.3517 11.229 0.342
37.3722 11.792 0.350
37.3926 11.563 0.347
37.4131 11.708 0.349
37.4335 11.302 0.343
37.4540 11.583 0.347
37.4745 11.094 0.340
37.4949 10.615 0.333
37.5154 10.719 0.334
37.5359 10.844 0.336
37.5563 11.563 0.347
37.5768 10.833 0.336
37.5972 11.469 0.346
37.6177 11.188 0.341
37.6382 10.729 0.334
37.6586 11.708 0.349
37.6791 11.146 0.341
37.6996 10.771 0.335
37.7200 10.063 0.324
37.7405 10.635 0.333
37.7609 10.719 0.334
37.7814 10.521 0.331
37.8019 10.635 0.333
37.8223 10.760 0.335
37.8428 11.115 0.340
37.8633 10.833 0.336
37.8837 11.365 0.344
37.9042 11.260 0.342
37.9246 12.823 0.365
37.9451 13.510 0.375
37.9656 15.344 0.400
37.9860 18.323 0.437
38.0065 20.719 0.465
38.0270 19.583 0.452
38.0474 17.938 0.432
38.0679 17.198 0.423
38.0884 16.458 0.414
38.1088 17.063 0.422
38.1293 17.115 0.422
38.1497 14.542 0.389
38.1702 14.333 0.386
38.1907 13.615 0.377
38.2111 13.823 0.379
38.2316 13.219 0.371
38.2521 12.521 0.361
38.2725 13.198 0.371
38.2930 12.823 0.365
38.3134 12.219 0.357
38.3339 12.698 0.364
38.3544 12.469 0.360
38.3748 12.313 0.358
38.3953 12.885 0.366
38.4158 13.604 0.376
38.4362 15.052 0.396
38.4567 15.552 0.402
38.4771 15.656 0.404
38.4976 14.188 0.384
38.5181 14.594 0.390
38.5385 14.708 0.391
38.5590 13.354 0.373
38.5795 13.073 0.369
38.5999 12.094 0.355
38.6204 11.438 0.345
38.6408 11.573 0.347
38.6613 10.573 0.332
38.6818 10.802 0.335
38.7022 10.750 0.335
38.7227 10.156 0.325
38.7432 10.219 0.326
38.7636 9.760 0.319
38.7841 10.292 0.327
38.8045 10.615 0.333
38.8250 10.073 0.324
38.8455 10.667 0.333
38.8659 9.781 0.319
38.8864 10.479 0.330
38.9069 10.094 0.324
38.9273 10.844 0.336
38.9478 11.063 0.339
38.9683 10.271 0.327
38.9887 11.000 0.339
39.0092 10.417 0.329
39.0296 10.677 0.333
39.0501 10.365 0.329
39.0706 9.667 0.317
39.0910 10.479 0.330
39.1115 9.979 0.322
39.1320 9.531 0.315
39.1524 10.458 0.330
39.1729 9.656 0.317
39.1933 9.708 0.318
39.2138 9.188 0.309
39.2343 10.375 0.329
39.2547 9.604 0.316
39.2752 9.573 0.316
39.2957 9.813 0.320
39.3161 9.688 0.318
39.3366 9.865 0.321
39.3570 10.063 0.324
39.3775 10.208 0.326
39.3980 10.177 0.326
39.4184 10.604 0.332
39.4389 10.552 0.332
39.4594 10.646 0.333
39.4798 9.990 0.323
39.5003 10.302 0.328
39.5207 10.354 0.328
39.5412 10.010 0.323
39.5617 9.521 0.315
39.5821 10.135 0.325
39.6026 9.479 0.314
39.6231 9.052 0.307
39.6435 9.594 0.316
39.6640 9.458 0.314
39.6844 9.948 0.322
39.7049 10.292 0.327
39.7254 10.448 0.330
39.7458 10.802 0.335
39.7663 12.177 0.356
39.7868 13.521 0.375
39.8072 13.969 0.381
39.8277 13.542 0.376
39.8482 12.031 0.354
39.8686 12.438 0.360
39.8891 13.219 0.371
39.9095 13.667 0.377
39.9300 13.750 0.378
39.9505 12.354 0.359
39.9709 12.708 0.364
39.9914 11.688 0.349
40.0119 11.688 0.349
40.0323 11.406 0.345
40.0528 11.292 0.343
40.0732 11.302 0.343
40.0937 11.156 0.341
40.1142 10.740 0.334
40.1346 10.813 0.336
40.1551 11.844 0.351
40.1756 12.771 0.365
40.1960 14.052 0.383
40.2165 18.042 0.434
40.2369 24.938 0.510
40.2574 27.917 0.539
40.2779 20.010 0.457
40.2983 15.719 0.405
40.3188 15.521 0.402
40.3393 18.031 0.433
40.3597 19.146 0.447
40.3802 15.688 0.404
40.4006 12.042 0.354
40.4211 11.021 0.339
40.4416 10.073 0.324
40.4620 9.865 0.321
40.4825 9.823 0.320
40.5030 10.781 0.335
40.5234 9.927 0.322
40.5439 9.917 0.321
40.5643 9.792 0.319
40.5848 10.000 0.323
40.6053 9.927 0.322
40.6257 9.646 0.317
40.6462 9.260 0.311
40.6667 9.271 0.311
40.6871 9.479 0.314
40.7076 9.052 0.307
40.7281 8.552 0.298
40.7485 8.646 0.300
40.7690 8.750 0.302
40.7894 8.000 0.289
40.8099 8.646 0.300
40.8304 8.396 0.296
40.8508 9.385 0.313
40.8713 8.635 0.300
40.8918 9.135 0.308
40.9122 8.802 0.303
40.9327 8.698 0.301
40.9531 9.594 0.316
40.9736 9.729 0.318
40.9941 9.615 0.316
41.0145 10.177 0.326
41.0350 10.656 0.333
41.0555 11.781 0.350
41.0759 14.063 0.383
41.0964 15.875 0.407
41.1168 17.385 0.426
41.1373 16.198 0.411
41.1578 14.802 0.393
41.1782 13.646 0.377
41.1987 13.208 0.371
41.2192 13.781 0.379
41.2396 12.708 0.364
41.2601 11.125 0.340
41.2805 10.698 0.334
41.3010 10.177 0.326
41.3215 9.469 0.314
41.3419 9.094 0.308
41.3624 9.302 0.311
41.3829 8.635 0.300
41.4033 8.375 0.295
41.4238 8.677 0.301
41.4442 8.427 0.296
41.4647 8.698 0.301
41.4852 8.073 0.290
41.5056 8.521 0.298
41.5261 7.646 0.282
41.5466 7.344 0.277
41.5670 7.146 0.273
41.5875 8.333 0.295
41.6080 7.938 0.288
41.6284 8.083 0.290
41.6489 8.177 0.292
41.6693 7.604 0.281
41.6898 8.042 0.289
41.7103 7.490 0.279
41.7307 7.094 0.272
41.7512 7.885 0.287
41.7717 7.875 0.286
41.7921 7.948 0.288
41.8126 7.760 0.284
41.8330 7.698 0.283
41.8535 7.500 0.280
41.8740 7.896 0.287
41.8944 7.385 0.277
41.9149 7.792 0.285
41.9354 7.271 0.275
41.9558 7.354 0.277
41.9763 7.927 0.287
41.9967 8.302 0.294
42.0172 7.948 0.288
42.0377 8.010 0.289
42.0581 7.563 0.281
42.0786 7.667 0.283
42.0991 8.188 0.292
42.1195 7.990 0.288
42.1400 8.354 0.295
42.1604 8.250 0.293
42.1809 8.458 0.297
42.2014 8.781 0.302
42.2218 9.198 0.310
42.2423 9.146 0.309
42.2628 8.979 0.306
42.2832 9.906 0.321
42.3037 10.219 0.326
42.3242 10.771 0.335
42.3446 10.906 0.337
42.3651 11.385 0.344
42.3855 10.083 0.324
42.4060 10.521 0.331
42.4265 9.542 0.315
42.4469 11.167 0.341
42.4674 10.521 0.331
42.4879 10.302 0.328
42.5083 9.833 0.320
42.5288 9.510 0.315
42.5492 9.677 0.317
42.5697 9.010 0.306
42.5902 9.344 0.312
42.6106 9.833 0.320
42.6311 9.125 0.308
42.6516 8.469 0.297
42.6720 8.760 0.302
42.6925 9.052 0.307
42.7129 9.219 0.310
42.7334 8.792 0.303
42.7539 8.771 0.302
42.7743 9.104 0.308
42.7948 8.688 0.301
42.8153 8.688 0.301
42.8357 8.958 0.305
42.8562 8.531 0.298
42.8766 8.708 0.301
42.8971 8.594 0.299
42.9176 8.635 0.300
42.9380 8.688 0.301
42.9585 8.885 0.304
42.9790 8.677 0.301
42.9994 8.771 0.302
43.0199 8.010 0.289
43.0403 8.448 0.297
43.0608 8.375 0.295
43.0813 8.396 0.296
43.1017 9.115 0.308
43.1222 9.010 0.306
43.1427 9.208 0.310
43.1631 9.323 0.312
43.1836 9.771 0.319
43.2041 10.344 0.328
43.2245 10.667 0.333
43.2450 10.094 0.324
43.2654 10.500 0.331
43.2859 10.167 0.325
43.3064 10.635 0.333
43.3268 10.646 0.333
43.3473 10.031 0.323
43.3678 10.708 0.334
43.3882 10.729 0.334
43.4087 10.438 0.330
43.4291 10.646 0.333
43.4496 10.792 0.335
43.4701 10.792 0.335
43.4905 11.948 0.353
43.5110 12.583 0.362
43.5315 13.198 0.371
43.5519 15.333 0.400
43.5724 17.229 0.424
43.5928 19.677 0.453
43.6133 21.833 0.477
43.6338 21.885 0.477
43.6542 20.458 0.462
43.6747 17.625 0.428
43.6952 17.177 0.423
43.7156 17.188 0.423
43.7361 16.771 0.418
43.7565 14.948 0.395
43.7770 13.792 0.379
43.7975 11.521 0.346
43.8179 10.875 0.337
43.8384 10.302 0.328
43.8589 10.063 0.324
43.8793 9.698 0.318
43.8998 8.635 0.300
43.9202 9.188 0.309
43.9407 8.573 0.299
43.9612 8.865 0.304
43.9816 8.229 0.293
44.0021 8.198 0.292
44.0226 8.073 0.290
44.0430 8.438 0.296
44.0635 8.000 0.289
44.0840 8.313 0.294
44.1044 7.760 0.284
44.1249 8.063 0.290
44.1453 7.917 0.287
44.1658 8.792 0.303
44.1863 8.063 0.290
44.2067 8.594 0.299
44.2272 7.906 0.287
44.2477 7.927 0.287
44.2681 8.615 0.300
44.2886 8.167 0.292
44.3090 7.906 0.287
44.3295 8.552 0.298
44.3500 8.625 0.300
44.3704 7.958 0.288
44.3909 8.208 0.292
44.4114 7.927 0.287
44.4318 7.823 0.285
44.4523 8.510 0.298
44.4727 8.125 0.291
44.4932 7.792 0.285
44.5137 8.083 0.290
44.5341 7.469 0.279
44.5546 7.854 0.286
44.5751 8.594 0.299
44.5955 7.792 0.285
44.6160 7.698 0.283
44.6364 7.594 0.281
44.6569 7.885 0.287
44.6774 7.792 0.285
44.6978 7.667 0.283
44.7183 8.083 0.290
44.7388 7.760 0.284
44.7592 7.938 0.288
44.7797 7.708 0.283
44.8001 8.104 0.291
44.8206 8.063 0.290
44.8411 8.531 0.298
44.8615 8.448 0.297
44.8820 8.229 0.293
44.9025 8.531 0.298
44.9229 8.104 0.291
44.9434 8.740 0.302
44.9639 8.354 0.295
44.9843 8.635 0.300
45.0048 8.938 0.305
45.0252 8.948 0.305
45.0457 8.875 0.304
45.0662 8.760 0.302
45.0866 9.125 0.308
45.1071 9.469 0.314
45.1276 9.656 0.317
45.1480 9.958 0.322
45.1685 10.854 0.336
45.1889 11.854 0.351
45.2094 13.146 0.370
45.2299 12.552 0.362
45.2503 13.094 0.369
45.2708 11.802 0.351
45.2913 11.208 0.342
45.3117 11.135 0.341
45.3322 10.833 0.336
45.3526 10.698 0.334
45.3731 10.365 0.329
45.3936 9.635 0.317
45.4140 9.729 0.318
45.4345 8.615 0.300
45.4550 7.979 0.288
45.4754 7.885 0.287
45.4959 7.948 0.288
45.5163 7.885 0.287
45.5368 8.333 0.295
45.5573 7.115 0.272
45.5777 7.354 0.277
45.5982 7.281 0.275
45.6187 7.844 0.286
45.6391 7.240 0.275
45.6596 7.604 0.281
45.6800 7.260 0.275
45.7005 7.688 0.283
45.7210 7.385 0.277
45.7414 7.708 0.283
45.7619 7.833 0.286
45.7824 7.615 0.282
45.8028 7.948 0.288
45.8233 7.875 0.286
45.8438 7.563 0.281
45.8642 7.188 0.274
45.8847 7.625 0.282
45.9051 6.896 0.268
45.9256 6.813 0.266
45.9461 7.479 0.279
45.9665 7.260 0.275
45.9870 7.458 0.279
46.0075 7.240 0.275
46.0279 7.083 0.272
46.0484 7.167 0.273
46.0688 7.271 0.275
46.0893 7.156 0.273
46.1098 7.104 0.272
46.1302 7.188 0.274
46.1507 7.240 0.275
46.1712 6.781 0.266
46.1916 6.865 0.267
46.2121 6.813 0.266
46.2325 6.854 0.267
46.2530 6.458 0.259
46.2735 6.813 0.266
46.2939 6.729 0.265
46.3144 6.854 0.267
46.3349 6.792 0.266
46.3553 7.177 0.273
46.3758 6.917 0.268
46.3962 6.281 0.256
46.4167 6.823 0.267
46.4372 7.396 0.278
46.4576 6.948 0.269
46.4781 7.167 0.273
46.4986 6.771 0.266
46.5190 7.365 0.277
46.5395 6.865 0.267
46.5600 6.573 0.262
46.5804 6.781 0.266
46.6009 6.990 0.270
46.6213 7.208 0.274
46.6418 7.344 0.277
46.6623 7.042 0.271
46.6827 6.406 0.258
46.7032 6.667 0.264
46.7237 6.885 0.268
46.7441 6.323 0.257
46.7646 6.760 0.265
46.7850 6.354 0.257
46.8055 7.010 0.270
46.8260 6.740 0.265
46.8464 6.896 0.268
46.8669 6.740 0.265
46.8874 7.094 0.272
46.9078 6.479 0.260
46.9283 6.479 0.260
46.9487 6.708 0.264
46.9692 7.385 0.277
46.9897 6.490 0.260
47.0101 7.146 0.273
47.0306 7.063 0.271
47.0511 6.760 0.265
47.0715 7.146 0.273
47.0920 6.781 0.266
47.1124 6.938 0.269
47.1329 7.469 0.279
47.1534 6.813 0.266
47.1738 7.427 0.278
47.1943 7.010 0.270
47.2148 6.771 0.266
47.2352 6.927 0.269
47.2557 7.313 0.276
47.2761 6.990 0.270
47.2966 7.052 0.271
47.3171 7.031 0.271
47.3375 7.656 0.282
47.3580 7.729 0.284
47.3785 7.656 0.282
47.3989 7.458 0.279
47.4194 7.958 0.288
47.4399 7.969 0.288
47.4603 8.083 0.290
47.4808 7.990 0.288
47.5012 9.302 0.311
47.5217 9.563 0.316
47.5422 12.177 0.356
47.5626 12.802 0.365
47.5831 14.115 0.383
47.6036 13.823 0.379
47.6240 12.760 0.365
47.6445 11.573 0.347
47.6649 11.510 0.346
47.6854 12.021 0.354
47.7059 11.573 0.347
47.7263 11.396 0.345
47.7468 10.458 0.330
47.7673 10.594 0.332
47.7877 9.073 0.307
47.8082 8.896 0.304
47.8286 9.313 0.311
47.8491 8.625 0.300
47.8696 8.823 0.303
47.8900 9.125 0.308
47.9105 8.458 0.297
47.9310 8.010 0.289
47.9514 8.125 0.291
47.9719 7.875 0.286
47.9923 7.656 0.282
48.0128 8.313 0.294
48.0333 8.375 0.295
48.0537 7.969 0.288
48.0742 8.667 0.300
48.0947 7.917 0.287
48.1151 7.979 0.288
48.1356 8.156 0.291
48.1560 8.146 0.291
48.1765 7.969 0.288
48.1970 7.479 0.279
48.2174 7.365 0.277
48.2379 8.021 0.289
48.2584 8.198 0.292
48.2788 8.052 0.290
48.2993 8.208 0.292
48.3198 8.219 0.293
48.3402 8.813 0.303
48.3607 8.750 0.302
48.3811 9.094 0.308
48.4016 8.229 0.293
48.4221 8.188 0.292
48.4425 8.750 0.302
48.4630 8.365 0.295
48.4835 8.875 0.304
48.5039 8.240 0.293
48.5244 7.802 0.285
48.5448 7.813 0.285
48.5653 7.875 0.286
48.5858 7.313 0.276
48.6062 7.781 0.285
48.6267 7.938 0.288
48.6472 7.469 0.279
48.6676 8.365 0.295
48.6881 7.833 0.286
48.7085 8.729 0.302
48.7290 8.490 0.297
48.7495 8.302 0.294
48.7699 8.083 0.290
48.7904 6.958 0.269
48.8109 8.219 0.293
48.8313 7.958 0.288
48.8518 7.156 0.273
48.8722 7.813 0.285
48.8927 6.958 0.269
48.9132 7.385 0.277
48.9336 7.177 0.273
48.9541 7.188 0.274
48.9746 7.208 0.274
48.9950 6.969 0.269
49.0155 6.750 0.265
49.0359 7.125 0.272
49.0564 6.979 0.270
49.0769 7.010 0.270
49.0973 6.823 0.267
49.1178 6.896 0.268
49.1383 6.927 0.269
49.1587 7.063 0.271
49.1792 7.010 0.270
49.1997 7.167 0.273
49.2201 6.042 0.251
49.2406 6.948 0.269
49.2610 6.896 0.268
49.2815 6.677 0.264
49.3020 6.740 0.265
49.3224 6.781 0.266
49.3429 7.167 0.273
49.3634 7.021 0.270
49.3838 7.531 0.280
49.4043 7.115 0.272
49.4247 7.333 0.276
49.4452 7.146 0.273
49.4657 7.458 0.279
49.4861 7.417 0.278
49.5066 7.938 0.288
49.5271 7.625 0.282
49.5475 7.500 0.280
49.5680 7.615 0.282
49.5884 8.229 0.293
49.6089 8.271 0.294
49.6294 8.177 0.292
49.6498 8.583 0.299
49.6703 8.531 0.298
49.6908 9.490 0.314
49.7112 9.427 0.313
49.7317 9.760 0.319
49.7521 10.979 0.338
49.7726 11.865 0.352
49.7931 13.448 0.374
49.8135 14.542 0.389
49.8340 15.740 0.405
49.8545 15.635 0.404
49.8749 15.229 0.398
49.8954 13.958 0.381
49.9158 13.417 0.374
49.9363 13.417 0.374
49.9568 13.563 0.376
49.9772 13.146 0.370
49.9977 11.917 0.352
50.0182 11.271 0.343
50.0386 10.625 0.333
50.0591 10.542 0.331
50.0796 9.688 0.318
50.1000 10.240 0.327
50.1205 9.417 0.313
50.1409 9.719 0.318
50.1614 10.104 0.324
50.1819 9.750 0.319
50.2023 10.479 0.330
50.2228 10.000 0.323
50.2433 10.208 0.326
50.2637 9.135 0.308
50.2842 8.885 0.304
50.3046 8.781 0.302
50.3251 8.760 0.302
50.3456 8.885 0.304
50.3660 8.688 0.301
50.3865 8.458 0.297
50.4070 8.750 0.302
50.4274 8.146 0.291
50.4479 8.406 0.296
50.4683 8.208 0.292
50.4888 8.073 0.290
50.5093 8.000 0.289
50.5297 7.781 0.285
50.5502 8.250 0.293
50.5707 7.802 0.285
50.5911 7.771 0.285
50.6116 8.000 0.289
50.6320 7.708 0.283
50.6525 8.396 0.296
50.6730 8.469 0.297
50.6934 8.646 0.300
50.7139 8.698 0.301
50.7344 8.344 0.295
50.7548 8.448 0.297
50.7753 8.490 0.297
50.7958 8.740 0.302
50.8162 8.146 0.291
50.8367 8.958 0.305
50.8571 8.563 0.299
50.8776 9.177 0.309
50.8981 10.271 0.327
50.9185 11.833 0.351
50.9390 14.302 0.386
50.9595 13.208 0.371
50.9799 10.479 0.330
51.0004 10.125 0.325
51.0208 9.396 0.313
51.0413 9.385 0.313
51.0618 10.833 0.336
51.0822 10.958 0.338
51.1027 9.875 0.321
51.1232 8.698 0.301
51.1436 8.438 0.296
51.1641 8.677 0.301
51.1845 7.833 0.286
51.2050 7.969 0.288
51.2255 7.552 0.280
51.2459 7.583 0.281
51.2664 7.938 0.288
51.2869 8.083 0.290
51.3073 8.021 0.289
51.3278 7.708 0.283
51.3482 7.760 0.284
51.3687 6.854 0.267
51.3892 7.156 0.273
51.4096 7.229 0.274
51.4301 7.583 0.281
51.4506 7.313 0.276
51.4710 6.771 0.266
51.4915 7.146 0.273
51.5119 7.448 0.279
51.5324 7.469 0.279
51.5529 7.104 0.272
51.5733 6.771 0.266
51.5938 7.594 0.281
51.6143 7.438 0.278
51.6347 7.469 0.279
51.6552 8.250 0.293
51.6757 7.729 0.284
51.6961 7.719 0.284
51.7166 6.760 0.265
51.7370 7.594 0.281
51.7575 7.802 0.285
51.7780 7.208 0.274
51.7984 7.010 0.270
51.8189 6.875 0.268
51.8394 7.177 0.273
51.8598 6.573 0.262
51.8803 6.802 0.266
51.9007 6.531 0.261
51.9212 6.375 0.258
51.9417 6.271 0.256
51.9621 6.146 0.253
51.9826 6.344 0.257
52.0031 6.313 0.256
52.0235 6.313 0.256
52.0440 6.365 0.257
52.0644 6.177 0.254
52.0849 5.917 0.248
52.1054 6.385 0.258
52.1258 5.958 0.249
52.1463 6.438 0.259
52.1668 5.969 0.249
52.1872 6.000 0.250
52.2077 6.167 0.253
52.2281 6.302 0.256
52.2486 6.125 0.253
52.2691 6.094 0.252
52.2895 6.083 0.252
52.3100 6.031 0.251
52.3305 6.823 0.267
52.3509 6.750 0.265
52.3714 7.052 0.271
52.3918 7.063 0.271
52.4123 6.750 0.265
52.4328 6.094 0.252
52.4532 6.115 0.252
52.4737 6.177 0.254
52.4942 6.000 0.250
52.5146 6.479 0.260
52.5351 6.198 0.254
52.5556 6.083 0.252
52.5760 6.208 0.254
52.5965 5.969 0.249
52.6169 6.042 0.251
52.6374 5.896 0.248
52.6579 6.031 0.251
52.6783 5.667 0.243
52.6988 6.667 0.264
52.7193 5.938 0.249
52.7397 6.063 0.251
52.7602 5.865 0.247
52.7806 5.542 0.240
52.8011 5.708 0.244
52.8216 6.271 0.256
52.8420 5.927 0.248
52.8625 5.990 0.250
52.8830 5.823 0.246
52.9034 6.115 0.252
52.9239 6.010 0.250
52.9443 6.219 0.255
52.9648 5.948 0.249
52.9853 5.990 0.250
53.0057 6.052 0.251
53.0262 6.208 0.254
53.0467 6.240 0.255
53.0671 6.281 0.256
53.0876 6.344 0.257
53.1080 6.354 0.257
53.1285 6.781 0.266
53.1490 6.271 0.256
53.1694 6.271 0.256
53.1899 6.219 0.255
53.2104 6.250 0.255
53.2308 6.052 0.251
53.2513 6.313 0.256
53.2717 6.219 0.255
53.2922 6.594 0.262
53.3127 6.271 0.256
53.3331 6.656 0.263
53.3536 6.469 0.260
53.3741 6.031 0.251
53.3945 6.500 0.260
53.4150 7.104 0.272
53.4355 6.823 0.267
53.4559 6.896 0.268
53.4764 6.219 0.255
53.4968 6.708 0.264
53.5173 6.031 0.251
53.5378 6.135 0.253
53.5582 6.240 0.255
53.5787 6.385 0.258
53.5992 6.625 0.263
53.6196 6.000 0.250
53.6401 6.021 0.250
53.6605 5.938 0.249
53.6810 6.156 0.253
53.7015 5.667 0.243
53.7219 5.823 0.246
53.7424 6.104 0.252
53.7629 5.771 0.245
53.7833 5.250 0.234
53.8038 5.813 0.246
53.8242 5.646 0.243
53.8447 5.990 0.250
53.8652 5.771 0.245
53.8856 5.740 0.245
53.9061 5.271 0.234
53.9266 6.063 0.251
53.9470 5.750 0.245
53.9675 5.125 0.231
53.9879 6.010 0.250
54.0084 5.365 0.236
54.0289 5.990 0.250
54.0493 5.594 0.241
54.0698 5.813 0.246
54.0903 6.344 0.257
54.1107 6.552 0.261
54.1312 5.958 0.249
54.1516 6.188 0.254
54.1721 5.844 0.247
54.1926 6.052 0.251
54.2130 6.344 0.257
54.2335 6.135 0.253
54.2540 6.323 0.257
54.2744 6.219 0.255
54.2949 5.938 0.249
54.3154 6.250 0.255
54.3358 6.604 0.262
54.3563 5.698 0.244
54.3767 5.885 0.248
54.3972 5.417 0.238
54.4177 5.802 0.246
54.4381 5.740 0.245
54.4586 5.875 0.247
54.4791 5.698 0.244
54.4995 5.875 0.247
54.5200 6.094 0.252
54.5404 6.240 0.255
54.5609 6.292 0.256
54.5814 5.969 0.249
54.6018 6.271 0.256
54.6223 6.156 0.253
54.6428 5.448 0.238
54.6632 5.552 0.240
54.6837 5.844 0.247
54.7041 5.583 0.241
54.7246 5.740 0.245
54.7451 6.052 0.251
54.7655 6.156 0.253
54.7860 5.573 0.241
54.8065 5.573 0.241
54.8269 6.104 0.252
54.8474 5.615 0.242
54.8678 5.948 0.249
54.8883 5.698 0.244
54.9088 5.854 0.247
54.9292 6.781 0.266
54.9497 5.885 0.248
54.9702 6.229 0.255
54.9906 6.927 0.269
55.0111 6.938 0.269
55.0316 6.885 0.268
55.0520 6.958 0.269
55.0725 8.000 0.289
55.0929 9.063 0.307
55.1134 9.302 0.311
55.1339 10.875 0.337
55.1543 13.052 0.369
55.1748 13.688 0.378
55.1953 13.417 0.374
55.2157 12.896 0.367
55.2362 11.781 0.350
55.2566 12.740 0.364
55.2771 12.604 0.362
55.2976 12.979 0.368
55.3180 12.458 0.360
55.3385 11.583 0.347
55.3590 10.667 0.333
55.3794 9.865 0.321
55.3999 9.063 0.307
55.4203 8.885 0.304
55.4408 8.406 0.296
55.4613 8.448 0.297
55.4817 7.146 0.273
55.5022 7.698 0.283
55.5227 7.458 0.279
55.5431 7.229 0.274
55.5636 7.521 0.280
55.5840 7.458 0.279
55.6045 6.688 0.264
55.6250 7.365 0.277
55.6454 7.438 0.278
55.6659 7.427 0.278
55.6864 6.531 0.261
55.7068 7.219 0.274
55.7273 7.313 0.276
55.7477 6.365 0.257
55.7682 6.833 0.267
55.7887 7.208 0.274
55.8091 6.927 0.269
55.8296 7.135 0.273
55.8501 7.635 0.282
55.8705 6.792 0.266
55.8910 6.615 0.262
55.9115 6.708 0.264
55.9319 6.854 0.267
55.9524 7.219 0.274
55.9728 7.469 0.279
55.9933 6.969 0.269
56.0138 6.958 0.269
56.0342 7.344 0.277
56.0547 7.135 0.273
56.0752 7.927 0.287
56.0956 7.688 0.283
56.1161 8.271 0.294
56.1365 9.323 0.312
56.1570 10.938 0.338
56.1775 12.104 0.355
56.1979 11.771 0.350
56.2184 11.552 0.347
56.2389 10.667 0.333
56.2593 10.281 0.327
56.2798 9.677 0.317
56.3002 9.740 0.319
56.3207 9.417 0.313
56.3412 9.260 0.311
56.3616 8.990 0.306
56.3821 8.615 0.300
56.4026 8.104 0.291
56.4230 7.688 0.283
56.4435 7.021 0.270
56.4639 6.198 0.254
56.4844 6.365 0.257
56.5049 6.458 0.259
56.5253 5.802 0.246
56.5458 5.760 0.245
56.5663 5.771 0.245
56.5867 5.854 0.247
56.6072 6.229 0.255
56.6276 5.854 0.247
56.6481 5.552 0.240
56.6686 5.198 0.233
56.6890 5.865 0.247
56.7095 5.406 0.237
56.7300 5.073 0.230
56.7504 5.521 0.240
56.7709 5.781 0.245
56.7914 5.177 0.232
56.8118 5.750 0.245
56.8323 5.427 0.238
56.8527 5.656 0.243
56.8732 5.438 0.238
56.8937 5.688 0.243
56.9141 5.198 0.233
56.9346 5.281 0.235
56.9551 5.615 0.242
56.9755 5.490 0.239
56.9960 5.542 0.240
57.0164 5.292 0.235
57.0369 5.219 0.233
57.0574 5.323 0.235
57.0778 5.271 0.234
57.0983 5.740 0.245
57.1188 5.198 0.233
57.1392 5.563 0.241
57.1597 5.354 0.236
57.1801 5.469 0.239
57.2006 5.479 0.239
57.2211 5.219 0.233
57.2415 5.229 0.233
57.2620 5.448 0.238
57.2825 5.375 0.237
57.3029 5.625 0.242
57.3234 5.906 0.248
57.3438 5.281 0.235
57.3643 5.406 0.237
57.3848 5.281 0.235
57.4052 5.448 0.238
57.4257 5.938 0.249
57.4462 6.042 0.251
57.4666 5.906 0.248
57.4871 5.792 0.246
57.5075 5.813 0.246
57.5280 5.583 0.241
57.5485 5.656 0.243
57.5689 5.479 0.239
57.5894 5.240 0.234
57.6099 5.927 0.248
57.6303 5.708 0.244
57.6508 6.229 0.255
57.6713 6.260 0.255
57.6917 6.896 0.268
57.7122 6.823 0.267
57.7326 6.990 0.270
57.7531 6.865 0.267
57.7736 7.094 0.272
57.7940 7.240 0.275
57.8145 7.635 0.282
57.8350 8.479 0.297
57.8554 9.125 0.308
57.8759 10.708 0.334
57.8963 10.667 0.333
57.9168 10.396 0.329
57.9373 9.375 0.313
57.9577 9.281 0.311
57.9782 8.042 0.289
57.9987 8.958 0.305
58.0191 8.385 0.296
58.0396 8.281 0.294
58.0600 8.771 0.302
58.0805 8.073 0.290
58.1010 7.948 0.288
58.1214 7.208 0.274
58.1419 6.729 0.265
58.1624 6.938 0.269
58.1828 6.333 0.257
58.2033 6.271 0.256
58.2237 6.313 0.256
58.2442 6.458 0.259
58.2647 6.427 0.259
58.2851 6.052 0.251
58.3056 6.313 0.256
58.3261 6.250 0.255
58.3465 6.313 0.256
58.3670 6.219 0.255
58.3874 6.083 0.252
58.4079 5.771 0.245
58.4284 6.375 0.258
58.4488 5.542 0.240
58.4693 5.385 0.237
58.4898 6.219 0.255
58.5102 5.792 0.246
58.5307 5.802 0.246
58.5512 6.073 0.252
58.5716 6.031 0.251
58.5921 5.969 0.249
58.6125 6.313 0.256
58.6330 5.740 0.245
58.6535 5.938 0.249
58.6739 5.865 0.247
58.6944 6.031 0.251
58.7149 5.917 0.248
58.7353 6.031 0.251
58.7558 5.802 0.246
58.7762 6.271 0.256
58.7967 6.594 0.262
58.8172 6.458 0.259
58.8376 6.656 0.263
58.8581 6.875 0.268
58.8786 6.427 0.259
58.8990 6.198 0.254
58.9195 6.260 0.255
58.9399 6.010 0.250
58.9604 5.865 0.247
58.9809 6.521 0.261
59.0013 6.396 0.258
59.0218 6.417 0.259
59.0423 6.427 0.259
59.0627 6.531 0.261
59.0832 6.531 0.261
59.1036 6.792 0.266
59.1241 6.938 0.269
59.1446 7.219 0.274
59.1650 8.073 0.290
59.1855 7.729 0.284
59.2060 7.594 0.281
59.2264 7.833 0.286
59.2469 7.385 0.277
59.2674 7.073 0.271
59.2878 6.938 0.269
59.3083 6.292 0.256
59.3287 6.688 0.264
59.3492 6.750 0.265
59.3697 6.552 0.261
59.3901 6.979 0.270
59.4106 6.323 0.257
59.4311 6.344 0.257
59.4515 5.719 0.244
59.4720 5.990 0.250
59.4924 5.542 0.240
59.5129 5.583 0.241
59.5334 5.427 0.238
59.5538 5.406 0.237
59.5743 5.542 0.240
59.5948 5.844 0.247
59.6152 5.542 0.240
59.6357 5.240 0.234
59.6561 6.146 0.253
59.6766 5.833 0.247
59.6971 5.583 0.241
59.7175 5.875 0.247
59.7380 6.219 0.255
59.7585 6.000 0.250
59.7789 5.948 0.249
59.7994 7.167 0.273
59.8198 7.729 0.284
59.8403 7.771 0.285
59.8608 7.542 0.280
59.8812 7.781 0.285
59.9017 7.844 0.286
59.9222 7.083 0.272
59.9426 6.677 0.264
59.9631 7.260 0.275
59.9835 7.135 0.273
60.0040 7.594 0.281
60.0245 7.302 0.276
60.0449 6.938 0.269
60.0654 6.031 0.251
60.0859 6.292 0.256
60.1063 5.792 0.246
60.1268 6.198 0.254
60.1473 6.042 0.251
60.1677 5.490 0.239
60.1882 5.573 0.241
60.2086 5.563 0.241
60.2291 5.635 0.242
60.2496 5.188 0.232
60.2700 5.635 0.242
60.2905 5.156 0.232
60.3110 5.344 0.236
60.3314 4.854 0.225
60.3519 5.052 0.229
60.3723 5.281 0.235
60.3928 5.281 0.235
60.4133 5.552 0.240
60.4337 5.302 0.235
60.4542 5.406 0.237
60.4747 5.646 0.243
60.4951 5.458 0.238
60.5156 5.375 0.237
60.5360 4.948 0.227
60.5565 5.813 0.246
60.5770 5.740 0.245
60.5974 5.281 0.235
60.6179 5.917 0.248
60.6384 5.469 0.239
60.6588 5.708 0.244
60.6793 5.635 0.242
60.6997 5.354 0.236
60.7202 5.833 0.247
60.7407 5.135 0.231
60.7611 5.406 0.237
60.7816 5.531 0.240
60.8021 5.531 0.240
60.8225 5.344 0.236
60.8430 5.042 0.229
60.8634 5.573 0.241
60.8839 5.198 0.233
60.9044 5.344 0.236
60.9248 5.302 0.235
60.9453 5.260 0.234
60.9658 5.198 0.233
60.9862 5.396 0.237
61.0067 5.156 0.232
61.0272 5.406 0.237
61.0476 5.125 0.231
61.0681 4.948 0.227
61.0885 5.042 0.229
61.1090 5.250 0.234
61.1295 5.208 0.233
61.1499 4.906 0.226
61.1704 4.760 0.223
61.1909 4.938 0.227
61.2113 5.000 0.228
61.2318 4.969 0.228
61.2522 4.969 0.228
61.2727 4.510 0.217
61.2932 5.240 0.234
61.3136 4.917 0.226
61.3341 4.844 0.225
61.3546 4.542 0.218
61.3750 4.719 0.222
61.3955 4.927 0.227
61.4159 4.760 0.223
61.4364 4.844 0.225
61.4569 5.031 0.229
61.4773 5.021 0.229
61.4978 5.208 0.233
61.5183 4.802 0.224
61.5387 4.635 0.220
61.5592 4.573 0.218
61.5796 4.875 0.225
61.6001 5.063 0.230
61.6206 4.635 0.220
61.6410 4.531 0.217
61.6615 4.719 0.222
61.6820 4.990 0.228
61.7024 5.115 0.231
61.7229 4.615 0.219
61.7433 4.938 0.227
61.7638 4.698 0.221
61.7843 4.406 0.214
61.8047 4.917 0.226
61.8252 4.708 0.221
61.8457 5.250 0.234
61.8661 4.865 0.225
61.8866 4.750 0.222
61.9071 4.802 0.224
61.9275 5.302 0.235
61.9480 4.865 0.225
61.9684 4.854 0.225
61.9889 4.792 0.223
62.0094 5.344 0.236
62.0298 5.469 0.239
62.0503 5.573 0.241
62.0708 5.500 0.239
62.0912 5.781 0.245
62.1117 6.438 0.259
62.1321 6.260 0.255
62.1526 6.365 0.257
62.1731 5.833 0.247
62.1935 5.635 0.242
62.2140 5.365 0.236
62.2345 5.292 0.235
62.2549 5.573 0.241
62.2754 5.573 0.241
62.2958 5.719 0.244
62.3163 5.406 0.237
62.3368 5.677 0.243
62.3572 5.281 0.235
62.3777 5.469 0.239
62.3982 5.094 0.230
62.4186 5.010 0.228
62.4391 4.885 0.226
62.4595 4.708 0.221
62.4800 5.000 0.228
62.5005 4.667 0.220
62.5209 5.167 0.232
62.5414 4.750 0.222
62.5619 5.292 0.235
62.5823 4.698 0.221
62.6028 4.719 0.222
62.6232 4.615 0.219
62.6437 4.906 0.226
62.6642 4.979 0.228
62.6846 4.948 0.227
62.7051 5.063 0.230
62.7256 5.156 0.232
62.7460 4.667 0.220
62.7665 4.750 0.222
62.7870 4.896 0.226
62.8074 5.302 0.235
62.8279 4.635 0.220
62.8483 5.240 0.234
62.8688 5.115 0.231
62.8893 5.177 0.232
62.9097 4.865 0.225
62.9302 5.010 0.228
62.9507 5.031 0.229
62.9711 5.344 0.236
62.9916 4.896 0.226
63.0120 4.958 0.227
63.0325 5.073 0.230
63.0530 5.177 0.232
63.0734 5.406 0.237
63.0939 5.052 0.229
63.1144 5.073 0.230
63.1348 5.104 0.231
63.1553 5.146 0.232
63.1757 5.010 0.228
63.1962 5.417 0.238
63.2167 4.948 0.227
63.2371 5.146 0.232
63.2576 4.833 0.224
63.2781 5.063 0.230
63.2985 4.990 0.228
63.3190 4.875 0.225
63.3394 4.885 0.226
63.3599 5.094 0.230
63.3804 5.323 0.235
63.4008 5.292 0.235
63.4213 5.031 0.229
63.4418 5.240 0.234
63.4622 5.292 0.235
63.4827 4.802 0.224
63.5032 5.667 0.243
63.5236 4.927 0.227
63.5441 5.677 0.243
63.5645 5.427 0.238
63.5850 5.542 0.240
63.6055 5.115 0.231
63.6259 5.375 0.237
63.6464 5.135 0.231
63.6669 5.625 0.242
63.6873 5.573 0.241
63.7078 5.990 0.250
63.7282 5.542 0.240
63.7487 4.917 0.226
63.7692 5.438 0.238
63.7896 5.521 0.240
63.8101 5.531 0.240
63.8306 5.771 0.245
63.8510 5.573 0.241
63.8715 6.219 0.255
63.8919 5.906 0.248
63.9124 5.552 0.240
63.9329 5.417 0.238
63.9533 6.188 0.254
63.9738 5.865 0.247
63.9943 6.490 0.260
64.0147 5.958 0.249
64.0352 6.063 0.251
64.0556 5.688 0.243
64.0761 5.823 0.246
64.0966 5.500 0.239
64.1170 5.844 0.247
64.1375 5.771 0.245
64.1580 5.573 0.241
64.1784 5.917 0.248
64.1989 5.990 0.250
64.2193 5.510 0.240
64.2398 6.021 0.250
64.2603 6.104 0.252
64.2807 5.563 0.241
64.3012 5.490 0.239
64.3217 5.625 0.242
64.3421 5.510 0.240
64.3626 5.979 0.250
64.3831 5.635 0.242
64.4035 6.094 0.252
64.4240 5.740 0.245
64.4444 5.823 0.246
64.4649 5.635 0.242
64.4854 5.844 0.247
64.5058 5.990 0.250
64.5263 5.875 0.247
64.5468 6.417 0.259
64.5672 6.333 0.257
64.5877 6.396 0.258
64.6081 7.740 0.284
64.6286 7.896 0.287
64.6491 7.917 0.287
64.6695 8.240 0.293
64.6900 7.677 0.283
64.7105 8.167 0.292
64.7309 8.135 0.291
64.7514 7.688 0.283
64.7718 7.760 0.284
64.7923 7.656 0.282
64.8128 7.667 0.283
64.8332 7.208 0.274
64.8537 7.115 0.272
64.8742 6.667 0.264
64.8946 6.521 0.261
64.9151 6.052 0.251
64.9355 5.990 0.250
64.9560 5.906 0.248
64.9765 6.177 0.254
64.9969 5.875 0.247
65.0174 5.833 0.247
65.0379 5.313 0.235
65.0583 5.146 0.232
65.0788 5.333 0.236
65.0992 5.490 0.239
65.1197 5.688 0.243
65.1402 5.198 0.233
65.1606 5.146 0.232
65.1811 5.146 0.232
65.2016 5.292 0.235
65.2220 5.135 0.231
65.2425 4.844 0.225
65.2630 4.854 0.225
65.2834 5.292 0.235
65.3039 5.656 0.243
65.3243 4.635 0.220
65.3448 5.354 0.236
65.3653 4.833 0.224
65.3857 4.594 0.219
65.4062 4.542 0.218
65.4267 5.167 0.232
65.4471 5.719 0.244
65.4676 5.500 0.239
65.4880 5.448 0.238
65.5085 5.281 0.235
65.5290 5.375 0.237
65.5494 6.271 0.256
65.5699 6.240 0.255
65.5904 6.531 0.261
65.6108 6.302 0.256
65.6313 6.073 0.252
65.6517 6.135 0.253
65.6722 6.531 0.261
65.6927 5.250 0.234
65.7131 5.875 0.247
65.7336 5.573 0.241
65.7541 6.063 0.251
65.7745 5.875 0.247
65.7950 5.427 0.238
65.8154 5.448 0.238
65.8359 5.313 0.235
65.8564 5.146 0.232
65.8768 5.406 0.237
65.8973 5.000 0.228
65.9178 5.063 0.230
65.9382 4.917 0.226
65.9587 5.208 0.233
65.9791 5.281 0.235
65.9996 5.219 0.233
66.0201 5.042 0.229
66.0405 4.542 0.218
66.0610 4.740 0.222
66.0815 4.906 0.226
66.1019 4.865 0.225
66.1224 4.854 0.225
66.1429 5.260 0.234
66.1633 4.844 0.225
66.1838 5.052 0.229
66.2042 4.917 0.226
66.2247 4.865 0.225
66.2452 4.500 0.217
66.2656 4.646 0.220
66.2861 5.146 0.232
66.3066 4.844 0.225
66.3270 4.521 0.217
66.3475 4.885 0.226
66.3679 4.865 0.225
66.3884 4.792 0.223
66.4089 4.906 0.226
66.4293 4.792 0.223
66.4498 4.875 0.225
66.4703 4.917 0.226
66.4907 4.906 0.226
66.5112 4.740 0.222
66.5316 4.354 0.213
66.5521 4.854 0.225
66.5726 5.010 0.228
66.5930 4.771 0.223
66.6135 4.927 0.227
66.6340 4.917 0.226
66.6544 4.719 0.222
66.6749 4.563 0.218
66.6953 4.583 0.219
66.7158 4.854 0.225
66.7363 4.563 0.218
66.7567 4.896 0.226
66.7772 4.865 0.225
66.7977 4.823 0.224
66.8181 5.031 0.229
66.8386 5.052 0.229
66.8590 5.125 0.231
66.8795 5.198 0.233
66.9000 5.313 0.235
66.9204 5.219 0.233
66.9409 5.760 0.245
66.9614 5.896 0.248
66.9818 6.115 0.252
67.0023 5.917 0.248
67.0228 6.385 0.258
67.0432 6.938 0.269
67.0637 6.948 0.269
67.0841 7.479 0.279
67.1046 8.219 0.293
67.1251 8.938 0.305
67.1455 8.865 0.304
67.1660 8.917 0.305
67.1865 7.865 0.286
67.2069 7.458 0.279
67.2274 6.844 0.267
67.2478 7.281 0.275
67.2683 7.198 0.274
67.2888 7.323 0.276
67.3092 8.250 0.293
67.3297 7.740 0.284
67.3502 7.063 0.271
67.3706 6.906 0.268
67.3911 6.698 0.264
67.4115 6.021 0.250
67.4320 6.281 0.256
67.4525 6.063 0.251
67.4729 5.740 0.245
67.4934 5.563 0.241
67.5139 5.802 0.246
67.5343 5.500 0.239
67.5548 5.354 0.236
67.5752 5.406 0.237
67.5957 5.094 0.230
67.6162 5.563 0.241
67.6366 5.031 0.229
67.6571 5.552 0.240
67.6776 5.469 0.239
67.6980 5.490 0.239
67.7185 5.365 0.236
67.7389 5.521 0.240
67.7594 5.344 0.236
67.7799 5.802 0.246
67.8003 5.583 0.241
67.8208 5.510 0.240
67.8413 5.292 0.235
67.8617 5.406 0.237
67.8822 5.438 0.238
67.9027 5.208 0.233
67.9231 5.615 0.242
67.9436 5.646 0.243
67.9640 5.115 0.231
67.9845 5.510 0.240
68.0050 5.010 0.228
68.0254 5.781 0.245
68.0459 5.656 0.243
68.0664 6.000 0.250
68.0868 5.635 0.242
68.1073 5.323 0.235
68.1277 5.531 0.240
68.1482 5.229 0.233
68.1687 5.542 0.240
68.1891 5.823 0.246
68.2096 5.542 0.240
68.2301 5.844 0.247
68.2505 5.677 0.243
68.2710 5.781 0.245
68.2914 5.740 0.245
68.3119 5.844 0.247
68.3324 6.083 0.252
68.3528 6.177 0.254
68.3733 5.781 0.245
68.3938 6.063 0.251
68.4142 5.625 0.242
68.4347 5.771 0.245
68.4551 5.281 0.235
68.4756 5.688 0.243
68.4961 5.177 0.232
68.5165 5.010 0.228
68.5370 5.135 0.231
68.5575 5.365 0.236
68.5779 5.792 0.246
68.5984 5.073 0.230
68.6189 5.115 0.231
68.6393 4.500 0.217
68.6598 4.885 0.226
68.6802 4.302 0.212
68.7007 5.104 0.231
68.7212 4.708 0.221
68.7416 4.688 0.221
68.7621 4.573 0.218
68.7826 4.896 0.226
68.8030 4.604 0.219
68.8235 4.958 0.227
68.8439 4.667 0.220
68.8644 4.969 0.228
68.8849 5.052 0.229
68.9053 5.594 0.241
68.9258 5.688 0.243
68.9463 5.448 0.238
68.9667 5.625 0.242
68.9872 5.615 0.242
69.0076 6.021 0.250
69.0281 5.573 0.241
69.0486 5.510 0.240
69.0690 4.948 0.227
69.0895 5.146 0.232
69.1100 5.125 0.231
69.1304 5.365 0.236
69.1509 5.198 0.233
69.1713 5.302 0.235
69.1918 5.625 0.242
69.2123 5.583 0.241
69.2327 5.583 0.241
69.2532 5.156 0.232
69.2737 5.031 0.229
69.2941 5.073 0.230
69.3146 4.750 0.222
69.3350 5.260 0.234
69.3555 4.750 0.222
69.3760 4.583 0.219
69.3964 4.990 0.228
69.4169 4.698 0.221
69.4374 4.750 0.222
69.4578 4.760 0.223
69.4783 4.844 0.225
69.4988 4.313 0.212
69.5192 4.531 0.217
69.5397 4.635 0.220
69.5601 3.969 0.203
69.5806 4.552 0.218
69.6011 4.458 0.216
69.6215 4.250 0.210
69.6420 4.438 0.215
69.6625 4.167 0.208
69.6829 4.698 0.221
69.7034 4.625 0.219
69.7238 4.458 0.216
69.7443 4.656 0.220
69.7648 4.333 0.212
69.7852 4.708 0.221
69.8057 4.542 0.218
69.8262 4.344 0.213
69.8466 4.563 0.218
69.8671 4.104 0.207
69.8875 4.260 0.211
69.9080 4.229 0.210
69.9285 4.698 0.221
69.9489 4.521 0.217
69.9694 4.375 0.213
69.9899 4.104 0.207
70.0103 4.052 0.205
70.0308 4.219 0.210
70.0512 4.031 0.205
70.0717 4.073 0.206
70.0922 4.313 0.212
70.1126 4.354 0.213
70.1331 3.969 0.203
70.1536 4.125 0.207
70.1740 3.958 0.203
70.1945 4.510 0.217
70.2149 4.260 0.211
70.2354 3.979 0.204
70.2559 4.313 0.212
70.2763 3.885 0.201
70.2968 4.188 0.209
70.3173 3.906 0.202
70.3377 3.813 0.199
70.3582 3.823 0.200
70.3787 4.271 0.211
70.3991 4.792 0.223
70.4196 4.396 0.214
70.4400 4.510 0.217
70.4605 4.594 0.219
70.4810 4.042 0.205
70.5014 4.313 0.212
70.5219 4.167 0.208
70.5424 4.354 0.213
70.5628 4.260 0.211
70.5833 4.500 0.217
70.6037 3.979 0.204
70.6242 4.333 0.212
70.6447 4.229 0.210
70.6651 4.333 0.212
70.6856 4.281 0.211
70.7061 4.385 0.214
70.7265 4.177 0.209
70.7470 4.281 0.211
70.7674 4.198 0.209
70.7879 4.094 0.207
70.8084 4.188 0.209
70.8288 4.396 0.214
70.8493 4.104 0.207
70.8698 4.344 0.213
70.8902 4.229 0.210
70.9107 4.313 0.212
70.9311 4.323 0.212
70.9516 4.240 0.210
70.9721 4.344 0.213
70.9925 4.250 0.210
71.0130 4.469 0.216
71.0335 4.292 0.211
71.0539 4.604 0.219
71.0744 4.125 0.207
71.0948 4.740 0.222
71.1153 4.417 0.214
71.1358 3.969 0.203
71.1562 4.271 0.211
71.1767 4.531 0.217
71.1972 4.438 0.215
71.2176 4.198 0.209
71.2381 4.323 0.212
71.2586 4.313 0.212
71.2790 4.521 0.217
71.2995 3.990 0.204
71.3199 4.458 0.216
71.3404 4.229 0.210
71.3609 4.323 0.212
71.3813 4.260 0.211
71.4018 3.958 0.203
71.4223 4.031 0.205
71.4427 4.031 0.205
71.4632 3.990 0.204
71.4836 3.990 0.204
71.5041 4.344 0.213
71.5246 4.198 0.209
71.5450 4.302 0.212
71.5655 3.760 0.198
71.5860 4.198 0.209
71.6064 4.365 0.213
71.6269 4.156 0.208
71.6473 4.260 0.211
71.6678 3.896 0.201
71.6883 3.948 0.203
71.7087 4.115 0.207
71.7292 3.771 0.198
71.7497 4.115 0.207
71.7701 4.323 0.212
71.7906 4.125 0.207
71.8110 4.594 0.219
71.8315 4.094 0.207
71.8520 4.010 0.204
71.8724 3.823 0.200
71.8929 4.333 0.212
71.9134 4.010 0.204
71.9338 4.531 0.217
71.9543 3.875 0.201
71.9747 4.021 0.205
71.9952 4.198 0.209
72.0157 3.688 0.196
72.0361 3.656 0.195
72.0566 4.010 0.204
72.0771 3.781 0.198
72.0975 4.177 0.209
72.1180 4.073 0.206
72.1385 3.833 0.200
72.1589 4.031 0.205
72.1794 4.271 0.211
72.1998 4.115 0.207
72.2203 3.844 0.200
72.2408 4.083 0.206
72.2612 4.083 0.206
72.2817 4.302 0.212
72.3022 4.063 0.206
72.3226 4.323 0.212
72.3431 3.927 0.202
72.3635 4.042 0.205
72.3840 3.875 0.201
72.4045 3.771 0.198
72.4249 3.719 0.197
72.4454 3.979 0.204
72.4659 3.938 0.203
72.4863 4.104 0.207
72.5068 4.198 0.209
72.5272 4.104 0.207
72.5477 4.323 0.212
72.5682 3.948 0.203
72.5886 3.927 0.202
72.6091 3.823 0.200
72.6296 4.115 0.207
72.6500 4.260 0.211
72.6705 4.115 0.207
72.6909 3.990 0.204
72.7114 3.688 0.196
72.7319 4.073 0.206
72.7523 4.115 0.207
72.7728 4.469 0.216
72.7933 4.417 0.214
72.8137 4.031 0.205
72.8342 4.510 0.217
72.8547 4.771 0.223
72.8751 4.323 0.212
72.8956 4.292 0.211
72.9160 4.281 0.211
72.9365 4.135 0.208
72.9570 3.875 0.201
72.9774 3.906 0.202
72.9979 4.177 0.209
73.0184 3.969 0.203
73.0388 4.063 0.206
73.0593 3.990 0.204
73.0797 4.010 0.204
73.1002 4.135 0.208
73.1207 4.385 0.214
73.1411 3.563 0.193
73.1616 4.104 0.207
73.1821 3.729 0.197
73.2025 3.896 0.201
73.2230 3.823 0.200
73.2434 3.865 0.201
73.2639 3.948 0.203
73.2844 3.594 0.193
73.3048 3.677 0.196
73.3253 3.823 0.200
73.3458 3.802 0.199
73.3662 3.854 0.200
73.3867 3.677 0.196
73.4071 3.948 0.203
73.4276 3.792 0.199
73.4481 3.969 0.203
73.4685 3.781 0.198
73.4890 3.875 0.201
73.5095 3.823 0.200
73.5299 3.688 0.196
73.5504 3.760 0.198
73.5708 3.813 0.199
73.5913 3.531 0.192
73.6118 3.708 0.197
73.6322 3.583 0.193
73.6527 3.823 0.200
73.6732 3.427 0.189
73.6936 3.906 0.202
73.7141 3.865 0.201
73.7346 3.906 0.202
73.7550 3.625 0.194
73.7755 3.688 0.196
73.7959 3.750 0.198
73.8164 4.094 0.207
73.8369 3.823 0.200
73.8573 3.823 0.200
73.8778 3.563 0.193
73.8983 3.708 0.197
73.9187 3.875 0.201
73.9392 3.656 0.195
73.9596 3.573 0.193
73.9801 3.760 0.198
74.0006 3.906 0.202
74.0210 3.781 0.198
74.0415 4.250 0.210
74.0620 4.385 0.214
74.0824 3.708 0.197
74.1029 3.927 0.202
74.1233 4.167 0.208
74.1438 3.677 0.196
74.1643 3.771 0.198
74.1847 4.125 0.207
74.2052 4.000 0.204
74.2257 3.854 0.200
74.2461 3.885 0.201
74.2666 4.281 0.211
74.2870 4.146 0.208
74.3075 3.625 0.194
74.3280 3.958 0.203
74.3484 3.771 0.198
74.3689 3.729 0.197
74.3894 3.417 0.189
74.4098 3.802 0.199
74.4303 3.833 0.200
74.4507 3.573 0.193
74.4712 3.885 0.201
74.4917 3.854 0.200
74.5121 3.635 0.195
74.5326 3.271 0.185
74.5531 3.781 0.198
74.5735 3.552 0.192
74.5940 4.094 0.207
74.6145 3.219 0.183
74.6349 3.740 0.197
74.6554 3.854 0.200
74.6758 4.052 0.205
74.6963 3.938 0.203
74.7168 4.010 0.204
74.7372 3.458 0.190
74.7577 3.729 0.197
74.7782 3.635 0.195
74.7986 3.313 0.186
74.8191 3.708 0.197
74.8395 4.063 0.206
74.8600 3.844 0.200
74.8805 3.771 0.198
74.9009 3.615 0.194
74.9214 3.458 0.190
74.9419 3.656 0.195
74.9623 3.802 0.199
74.9828 3.677 0.196
75.0032 3.656 0.195
75.0237 3.510 0.191
75.0442 3.448 0.190
75.0646 3.833 0.200
75.0851 3.646 0.195
75.1056 3.927 0.202
75.1260 4.073 0.206
75.1465 3.625 0.194
75.1669 3.604 0.194
75.1874 3.552 0.192
75.2079 3.823 0.200
75.2283 3.677 0.196
75.2488 3.427 0.189
75.2693 4.135 0.208
75.2897 3.740 0.197
75.3102 4.031 0.205
75.3306 4.323 0.212
75.3511 3.938 0.203
75.3716 3.927 0.202
75.3920 3.469 0.190
75.4125 3.990 0.204
75.4330 4.042 0.205
75.4534 3.906 0.202
75.4739 3.990 0.204
75.4944 3.906 0.202
75.5148 4.125 0.207
75.5353 3.750 0.198
75.5557 4.323 0.212
75.5762 3.844 0.200
75.5967 4.125 0.207
75.6171 4.385 0.214
75.6376 4.427 0.215
75.6581 4.667 0.220
75.6785 4.875 0.225
75.6990 4.688 0.221
75.7194 4.802 0.224
75.7399 5.208 0.233
75.7604 5.177 0.232
75.7808 4.969 0.228
75.8013 5.219 0.233
75.8218 5.135 0.231
75.8422 4.896 0.226
75.8627 4.802 0.224
75.8831 4.844 0.225
75.9036 4.573 0.218
75.9241 4.458 0.216
75.9445 4.781 0.223
75.9650 4.646 0.220
75.9855 4.854 0.225
76.0059 4.552 0.218
76.0264 4.771 0.223
76.0468 4.646 0.220
76.0673 4.583 0.219
76.0878 4.208 0.209
76.1082 4.604 0.219
76.1287 4.531 0.217
76.1492 4.135 0.208
76.1696 4.219 0.210
76.1901 4.177 0.209
76.2105 3.885 0.201
76.2310 4.167 0.208
76.2515 4.021 0.205
76.2719 3.906 0.202
76.2924 3.844 0.200
76.3129 3.740 0.197
76.3333 3.885 0.201
76.3538 3.740 0.197
76.3743 4.531 0.217
76.3947 3.823 0.200
76.4152 3.948 0.203
76.4356 3.729 0.197
76.4561 4.052 0.205
76.4766 3.500 0.191
76.4970 3.677 0.196
76.5175 3.792 0.199
76.5380 3.875 0.201
76.5584 4.323 0.212
76.5789 3.979 0.204
76.5993 3.948 0.203
76.6198 3.875 0.201
76.6403 3.615 0.194
76.6607 3.708 0.197
76.6812 3.635 0.195
76.7017 3.823 0.200
76.7221 3.490 0.191
76.7426 3.927 0.202
76.7630 3.917 0.202
76.7835 3.542 0.192
76.8040 3.521 0.192
76.8244 3.531 0.192
76.8449 4.010 0.204
76.8654 3.594 0.193
76.8858 3.896 0.201
76.9063 4.094 0.207
76.9267 3.896 0.201
76.9472 3.729 0.197
76.9677 3.813 0.199
76.9881 3.833 0.200
77.0086 3.667 0.195
77.0291 3.698 0.196
77.0495 3.938 0.203
77.0700 3.969 0.203
77.0905 4.010 0.204
77.1109 3.865 0.201
77.1314 3.781 0.198
77.1518 3.604 0.194
77.1723 3.656 0.195
77.1928 3.833 0.200
77.2132 3.781 0.198
77.2337 3.802 0.199
77.2542 3.792 0.199
77.2746 3.948 0.203
77.2951 4.021 0.205
77.3155 4.042 0.205
77.3360 3.802 0.199
77.3565 3.542 0.192
77.3769 4.271 0.211
77.3974 4.073 0.206
77.4179 3.938 0.203
77.4383 4.115 0.207
77.4588 4.333 0.212
77.4792 4.146 0.208
77.4997 4.500 0.217
77.5202 4.375 0.213
77.5406 4.271 0.211
77.5611 4.375 0.213
77.5816 4.344 0.213
77.6020 3.823 0.200
77.6225 4.229 0.210
77.6429 4.313 0.212
77.6634 4.229 0.210
77.6839 4.229 0.210
77.7043 4.396 0.214
77.7248 4.490 0.216
77.7453 4.156 0.208
77.7657 4.531 0.217
77.7862 4.354 0.213
77.8066 4.271 0.211
77.8271 4.490 0.216
77.8476 4.260 0.211
77.8680 4.177 0.209
77.8885 4.417 0.214
77.9090 4.167 0.208
77.9294 3.906 0.202
77.9499 3.615 0.194
77.9704 4.344 0.213
77.9908 4.167 0.208
78.0113 4.000 0.204
78.0317 3.896 0.201
78.0522 3.906 0.202
78.0727 4.198 0.209
78.0931 4.219 0.210
78.1136 3.750 0.198
78.1341 3.979 0.204
78.1545 3.969 0.203
78.1750 3.885 0.201
78.1954 3.594 0.193
78.2159 3.781 0.198
78.2364 3.979 0.204
78.2568 3.938 0.203
78.2773 3.750 0.198
78.2978 4.302 0.212
78.3182 4.042 0.205
78.3387 3.875 0.201
78.3591 4.219 0.210
78.3796 4.052 0.205
78.4001 3.823 0.200
78.4205 4.208 0.209
78.4410 3.802 0.199
78.4615 4.198 0.209
78.4819 4.000 0.204
78.5024 4.146 0.208
78.5228 3.740 0.197
78.5433 3.802 0.199
78.5638 3.833 0.200
78.5842 4.083 0.206
78.6047 3.323 0.186
78.6252 4.333 0.212
78.6456 3.969 0.203
78.6661 3.438 0.189
78.6865 3.865 0.201
78.7070 3.958 0.203
78.7275 3.771 0.198
78.7479 4.010 0.204
78.7684 3.833 0.200
78.7889 3.781 0.198
78.8093 4.042 0.205
78.8298 4.042 0.205
78.8503 3.833 0.200
78.8707 3.948 0.203
78.8912 4.323 0.212
78.9116 4.115 0.207
78.9321 3.844 0.200
78.9526 4.125 0.207
78.9730 4.313 0.212
78.9935 4.052 0.205
79.0140 3.813 0.199
79.0344 4.219 0.210
79.0549 3.969 0.203
79.0753 3.490 0.191
79.0958 3.833 0.200
79.1163 3.656 0.195
79.1367 3.531 0.192
79.1572 3.969 0.203
79.1777 3.521 0.192
79.1981 4.229 0.210
79.2186 3.740 0.197
79.2390 3.760 0.198
79.2595 3.833 0.200
79.2800 3.740 0.197
79.3004 3.802 0.199
79.3209 3.948 0.203
79.3414 4.125 0.207
79.3618 4.302 0.212
79.3823 3.448 0.190
79.4027 4.135 0.208
79.4232 3.958 0.203
79.4437 4.135 0.208
79.4641 4.250 0.210
79.4846 3.927 0.202
79.5051 4.375 0.213
79.5255 4.479 0.216
79.5460 4.719 0.222
79.5664 4.375 0.213
79.5869 4.219 0.210
79.6074 3.833 0.200
79.6278 3.969 0.203
79.6483 4.177 0.209
79.6688 4.219 0.210
79.6892 3.875 0.201
79.7097 4.021 0.205
79.7302 4.198 0.209
79.7506 4.323 0.212
79.7711 3.958 0.203
79.7915 3.667 0.195
79.8120 4.302 0.212
79.8325 4.052 0.205
79.8529 3.500 0.191
79.8734 4.052 0.205
79.8939 4.146 0.208
79.9143 3.948 0.203
79.9348 4.073 0.206
79.9552 3.490 0.191
79.9757 3.646 0.195
79.9962 3.760 0.198
