'Id: "" Comment: "" Operator: "Lab Manager" Anode: "Cu" Scantype: "Locked Coupled" TimePerStep: "96" X: "0" Y: "0" Z: "0" 
5.0000 19.302 0.448
5.0205 19.531 0.451
5.0409 18.969 0.445
5.0614 19.344 0.449
5.0819 19.083 0.446
5.1023 18.594 0.440
5.1228 18.865 0.443
5.1432 19.094 0.446
5.1637 17.948 0.432
5.1842 18.656 0.441
5.2046 18.000 0.433
5.2251 18.177 0.435
5.2456 19.563 0.451
5.2660 18.292 0.437
5.2865 18.385 0.438
5.3069 17.854 0.431
5.3274 17.615 0.428
5.3479 18.000 0.433
5.3683 18.094 0.434
5.3888 18.104 0.434
5.4093 18.052 0.434
5.4297 17.240 0.424
5.4502 17.646 0.429
5.4706 17.667 0.429
5.4911 17.063 0.422
5.5116 17.271 0.424
5.5320 17.521 0.427
5.5525 17.042 0.421
5.5730 17.208 0.423
5.5934 17.365 0.425
5.6139 17.104 0.422
5.6343 16.385 0.413
5.6548 16.979 0.421
5.6753 16.688 0.417
5.6957 17.438 0.426
5.7162 17.010 0.421
5.7367 16.833 0.419
5.7571 16.542 0.415
5.7776 16.594 0.416
5.7980 15.792 0.406
5.8185 16.677 0.417
5.8390 17.094 0.422
5.8594 17.219 0.424
5.8799 16.792 0.418
5.9004 16.521 0.415
5.9208 16.917 0.420
5.9413 16.406 0.413
5.9618 16.615 0.416
5.9822 16.365 0.413
6.0027 16.448 0.414
6.0231 15.479 0.402
6.0436 16.917 0.420
6.0641 15.865 0.407
6.0845 16.604 0.416
6.1050 16.177 0.411
6.1255 16.469 0.414
6.1459 15.115 0.397
6.1664 16.625 0.416
6.1868 15.115 0.397
6.2073 15.760 0.405
6.2278 15.813 0.406
6.2482 15.927 0.407
6.2687 16.323 0.412
6.2892 15.073 0.396
6.3096 16.042 0.409
6.3301 15.771 0.405
6.3505 15.448 0.401
6.3710 15.365 0.400
6.3915 15.177 0.398
6.4119 16.188 0.411
6.4324 16.365 0.413
6.4529 16.500 0.415
6.4733 15.760 0.405
6.4938 14.938 0.394
6.5142 15.448 0.401
6.5347 15.594 0.403
6.5552 16.198 0.411
6.5756 16.250 0.411
6.5961 14.938 0.394
6.6166 15.146 0.397
6.6370 14.781 0.392
6.6575 15.708 0.405
6.6779 15.792 0.406
6.6984 16.365 0.413
6.7189 15.615 0.403
6.7393 15.031 0.396
6.7598 15.135 0.397
6.7803 15.000 0.395
6.8007 16.865 0.419
6.8212 15.708 0.405
6.8417 15.604 0.403
6.8621 15.698 0.404
6.8826 14.865 0.393
6.9030 15.323 0.400
6.9235 15.563 0.403
6.9440 15.219 0.398
6.9644 15.021 0.396
6.9849 15.635 0.404
7.0054 15.917 0.407
7.0258 15.125 0.397
7.0463 14.500 0.389
7.0667 15.729 0.405
7.0872 14.740 0.392
7.1077 15.021 0.396
7.1281 14.823 0.393
7.1486 15.385 0.400
7.1691 15.719 0.405
7.1895 15.406 0.401
7.2100 15.052 0.396
7.2304 15.750 0.405
7.2509 15.365 0.400
7.2714 15.573 0.403
7.2918 14.542 0.389
7.3123 14.938 0.394
7.3328 14.948 0.395
7.3532 14.146 0.384
7.3737 14.615 0.390
7.3941 14.552 0.389
7.4146 14.885 0.394
7.4351 14.885 0.394
7.4555 15.333 0.400
7.4760 15.313 0.399
7.4965 15.083 0.396
7.5169 15.333 0.400
7.5374 15.365 0.400
7.5579 15.417 0.401
7.5783 14.510 0.389
7.5988 15.042 0.396
7.6192 15.688 0.404
7.6397 15.719 0.405
7.6602 15.156 0.397
7.6806 15.385 0.400
7.7011 15.563 0.403
7.7216 14.563 0.389
7.7420 15.281 0.399
7.7625 15.250 0.399
7.7829 15.688 0.404
7.8034 15.479 0.402
7.8239 15.677 0.404
7.8443 15.573 0.403
7.8648 15.042 0.396
7.8853 15.552 0.402
7.9057 14.490 0.389
7.9262 15.604 0.403
7.9466 15.938 0.407
7.9671 15.510 0.402
7.9876 15.521 0.402
8.0080 15.250 0.399
8.0285 15.031 0.396
8.0490 15.792 0.406
8.0694 15.479 0.402
8.0899 16.052 0.409
8.1103 15.646 0.404
8.1308 15.385 0.400
8.1513 15.760 0.405
8.1717 15.396 0.400
8.1922 15.865 0.407
8.2127 15.302 0.399
8.2331 15.365 0.400
8.2536 15.792 0.406
8.2740 15.771 0.405
8.2945 15.917 0.407
8.3150 15.990 0.408
8.3354 15.521 0.402
8.3559 15.063 0.396
8.3764 15.281 0.399
8.3968 15.917 0.407
8.4173 16.229 0.411
8.4378 16.958 0.420
8.4582 15.438 0.401
8.4787 15.583 0.403
8.4991 15.531 0.402
8.5196 15.104 0.397
8.5401 16.146 0.410
8.5605 15.490 0.402
8.5810 15.563 0.403
8.6015 16.115 0.410
8.6219 16.031 0.409
8.6424 15.667 0.404
8.6628 15.260 0.399
8.6833 15.177 0.398
8.7038 14.771 0.392
8.7242 15.906 0.407
8.7447 15.490 0.402
8.7652 15.927 0.407
8.7856 16.271 0.412
8.8061 16.656 0.417
8.8265 15.927 0.407
8.8470 16.229 0.411
8.8675 17.042 0.421
8.8879 16.646 0.416
8.9084 17.448 0.426
8.9289 16.938 0.420
8.9493 17.969 0.433
8.9698 18.406 0.438
8.9902 19.198 0.447
9.0107 18.833 0.443
9.0312 18.875 0.443
9.0516 18.021 0.433
9.0721 19.042 0.445
9.0926 19.021 0.445
9.1130 19.833 0.455
9.1335 20.417 0.461
9.1539 21.125 0.469
9.1744 22.167 0.481
9.1949 21.854 0.477
9.2153 22.854 0.488
9.2358 24.781 0.508
9.2563 25.563 0.516
9.2767 26.594 0.526
9.2972 27.490 0.535
9.3177 31.448 0.572
9.3381 33.250 0.589
9.3586 34.948 0.603
9.3790 35.823 0.611
9.3995 34.948 0.603
9.4200 35.188 0.605
9.4404 34.417 0.599
9.4609 34.667 0.601
9.4814 35.604 0.609
9.5018 35.771 0.610
9.5223 36.542 0.617
9.5427 40.250 0.648
9.5632 42.490 0.665
9.5837 45.448 0.688
9.6041 48.938 0.714
9.6246 53.104 0.744
9.6451 58.688 0.782
9.6655 62.885 0.809
9.6860 68.125 0.842
9.7064 72.365 0.868
9.7269 82.125 0.925
9.7474 90.167 0.969
9.7678 104.198 1.042
9.7883 121.396 1.125
9.8088 150.417 1.252
9.8292 190.469 1.409
9.8497 265.510 1.663
9.8701 384.063 2.000
9.8906 526.604 2.342
9.9111 674.385 2.650
9.9315 837.323 2.953
9.9520 991.927 3.214
9.9725 884.594 3.036
9.9929 563.354 2.422
10.0134 267.406 1.669
10.0338 121.406 1.125
10.0543 72.688 0.870
10.0748 57.927 0.777
10.0952 52.552 0.740
10.1157 48.438 0.710
10.1362 46.646 0.697
10.1566 44.021 0.677
10.1771 39.865 0.644
10.1976 34.813 0.602
10.2180 31.531 0.573
10.2385 27.406 0.534
10.2589 24.885 0.509
10.2794 23.969 0.500
10.2999 23.240 0.492
10.3203 22.656 0.486
10.3408 22.188 0.481
10.3613 22.333 0.482
10.3817 22.385 0.483
10.4022 20.531 0.462
10.4226 20.865 0.466
10.4431 20.844 0.466
10.4636 20.396 0.461
10.4840 19.969 0.456
10.5045 20.583 0.463
10.5250 19.188 0.447
10.5454 18.844 0.443
10.5659 18.844 0.443
10.5863 19.875 0.455
10.6068 19.156 0.447
10.6273 19.448 0.450
10.6477 18.760 0.442
10.6682 19.594 0.452
10.6887 18.479 0.439
10.7091 18.896 0.444
10.7296 18.792 0.442
10.7500 17.969 0.433
10.7705 18.865 0.443
10.7910 18.667 0.441
10.8114 18.104 0.434
10.8319 18.302 0.437
10.8524 17.823 0.431
10.8728 17.042 0.421
10.8933 17.229 0.424
10.9137 17.365 0.425
10.9342 17.104 0.422
10.9547 17.125 0.422
10.9751 15.927 0.407
10.9956 16.448 0.414
11.0161 16.375 0.413
11.0365 16.063 0.409
11.0570 15.990 0.408
11.0775 16.125 0.410
11.0979 16.052 0.409
11.1184 15.875 0.407
11.1388 15.708 0.405
11.1593 15.927 0.407
11.1798 16.073 0.409
11.2002 15.927 0.407
11.2207 15.417 0.401
11.2412 15.698 0.404
11.2616 15.292 0.399
11.2821 15.635 0.404
11.3025 15.115 0.397
11.3230 15.531 0.402
11.3435 15.052 0.396
11.3639 14.760 0.392
11.3844 15.521 0.402
11.4049 15.000 0.395
11.4253 13.969 0.381
11.4458 15.188 0.398
11.4662 14.750 0.392
11.4867 14.677 0.391
11.5072 14.615 0.390
11.5276 14.104 0.383
11.5481 14.635 0.390
11.5686 14.375 0.387
11.5890 14.271 0.386
11.6095 14.250 0.385
11.6299 14.229 0.385
11.6504 14.250 0.385
11.6709 14.531 0.389
11.6913 13.635 0.377
11.7118 13.729 0.378
11.7323 13.125 0.370
11.7527 14.000 0.382
11.7732 13.865 0.380
11.7937 12.969 0.368
11.8141 14.313 0.386
11.8346 12.906 0.367
11.8550 13.375 0.373
11.8755 13.760 0.379
11.8960 12.760 0.365
11.9164 13.073 0.369
11.9369 13.531 0.375
11.9574 13.208 0.371
11.9778 13.177 0.370
11.9983 13.365 0.373
12.0187 12.813 0.365
12.0392 12.833 0.366
12.0597 12.740 0.364
12.0801 12.448 0.360
12.1006 12.906 0.367
12.1211 13.365 0.373
12.1415 12.635 0.363
12.1620 13.406 0.374
12.1824 12.490 0.361
12.2029 12.698 0.364
12.2234 12.583 0.362
12.2438 12.385 0.359
12.2643 12.021 0.354
12.2848 12.031 0.354
12.3052 12.656 0.363
12.3257 12.323 0.358
12.3461 12.177 0.356
12.3666 12.490 0.361
12.3871 12.073 0.355
12.4075 12.000 0.354
12.4280 11.760 0.350
12.4485 11.792 0.350
12.4689 12.010 0.354
12.4894 11.854 0.351
12.5098 11.260 0.342
12.5303 11.948 0.353
12.5508 11.833 0.351
12.5712 10.958 0.338
12.5917 10.802 0.335
12.6122 11.427 0.345
12.6326 11.438 0.345
12.6531 11.833 0.351
12.6736 12.542 0.361
12.6940 11.365 0.344
12.7145 11.229 0.342
12.7349 11.448 0.345
12.7554 11.167 0.341
12.7759 10.979 0.338
12.7963 11.510 0.346
12.8168 11.260 0.342
12.8373 10.854 0.336
12.8577 10.854 0.336
12.8782 10.740 0.334
12.8986 10.927 0.337
12.9191 11.042 0.339
12.9396 10.885 0.337
12.9600 11.167 0.341
12.9805 11.146 0.341
13.0010 11.313 0.343
13.0214 10.604 0.332
13.0419 11.156 0.341
13.0623 10.656 0.333
13.0828 10.979 0.338
13.1033 10.500 0.331
13.1237 11.021 0.339
13.1442 10.542 0.331
13.1647 11.156 0.341
13.1851 11.469 0.346
13.2056 10.750 0.335
13.2260 10.969 0.338
13.2465 10.740 0.334
13.2670 10.927 0.337
13.2874 10.271 0.327
13.3079 10.333 0.328
13.3284 9.885 0.321
13.3488 10.896 0.337
13.3693 10.833 0.336
13.3897 10.250 0.327
13.4102 10.302 0.328
13.4307 10.115 0.325
13.4511 10.750 0.335
13.4716 10.667 0.333
13.4921 10.500 0.331
13.5125 10.323 0.328
13.5330 11.021 0.339
13.5535 10.938 0.338
13.5739 10.719 0.334
13.5944 10.094 0.324
13.6148 10.354 0.328
13.6353 10.354 0.328
13.6558 10.260 0.327
13.6762 10.125 0.325
13.6967 10.313 0.328
13.7172 10.052 0.324
13.7376 10.469 0.330
13.7581 10.135 0.325
13.7785 10.125 0.325
13.7990 10.177 0.326
13.8195 9.292 0.311
13.8399 9.938 0.322
13.8604 10.063 0.324
13.8809 9.750 0.319
13.9013 9.896 0.321
13.9218 10.135 0.325
13.9422 9.250 0.310
13.9627 9.979 0.322
13.9832 9.500 0.315
14.0036 9.281 0.311
14.0241 9.573 0.316
14.0446 9.885 0.321
14.0650 9.281 0.311
14.0855 9.875 0.321
14.1059 9.771 0.319
14.1264 9.625 0.317
14.1469 10.115 0.325
14.1673 10.271 0.327
14.1878 9.719 0.318
14.2083 10.083 0.324
14.2287 9.625 0.317
14.2492 9.271 0.311
14.2696 10.083 0.324
14.2901 9.490 0.314
14.3106 9.625 0.317
14.3310 9.677 0.317
14.3515 9.760 0.319
14.3720 9.469 0.314
14.3924 9.760 0.319
14.4129 9.646 0.317
14.4334 8.938 0.305
14.4538 9.510 0.315
14.4743 9.656 0.317
14.4947 9.688 0.318
14.5152 9.656 0.317
14.5357 9.406 0.313
14.5561 9.177 0.309
14.5766 9.552 0.315
14.5971 9.208 0.310
14.6175 9.385 0.313
14.6380 9.469 0.314
14.6584 10.094 0.324
14.6789 9.844 0.320
14.6994 8.969 0.306
14.7198 9.615 0.316
14.7403 9.917 0.321
14.7608 9.604 0.316
14.7812 9.500 0.315
14.8017 9.292 0.311
14.8221 9.948 0.322
14.8426 9.594 0.316
14.8631 9.375 0.313
14.8835 9.417 0.313
14.9040 9.563 0.316
14.9245 9.104 0.308
14.9449 9.448 0.314
14.9654 9.313 0.311
14.9858 9.063 0.307
15.0063 9.344 0.312
15.0268 9.552 0.315
15.0472 9.688 0.318
15.0677 9.625 0.317
15.0882 9.250 0.310
15.1086 9.250 0.310
15.1291 9.438 0.314
15.1495 8.635 0.300
15.1700 8.656 0.300
15.1905 8.823 0.303
15.2109 9.063 0.307
15.2314 9.198 0.310
15.2519 9.417 0.313
15.2723 9.344 0.312
15.2928 9.271 0.311
15.3133 9.646 0.317
15.3337 9.073 0.307
15.3542 8.990 0.306
15.3746 9.292 0.311
15.3951 9.250 0.310
15.4156 9.417 0.313
15.4360 9.292 0.311
15.4565 9.052 0.307
15.4770 9.219 0.310
15.4974 9.375 0.313
15.5179 9.333 0.312
15.5383 9.354 0.312
15.5588 8.573 0.299
15.5793 8.875 0.304
15.5997 9.104 0.308
15.6202 9.031 0.307
15.6407 8.729 0.302
15.6611 9.885 0.321
15.6816 9.615 0.316
15.7020 8.823 0.303
15.7225 9.208 0.310
15.7430 8.344 0.295
15.7634 8.677 0.301
15.7839 9.219 0.310
15.8044 9.583 0.316
15.8248 10.063 0.324
15.8453 9.396 0.313
15.8657 9.771 0.319
15.8862 9.594 0.316
15.9067 9.115 0.308
15.9271 9.167 0.309
15.9476 9.177 0.309
15.9681 8.635 0.300
15.9885 9.500 0.315
16.0090 8.896 0.304
16.0295 8.969 0.306
16.0499 8.656 0.300
16.0704 9.240 0.310
16.0908 9.594 0.316
16.1113 8.927 0.305
16.1318 8.344 0.295
16.1522 9.052 0.307
16.1727 8.938 0.305
16.1932 8.625 0.300
16.2136 8.813 0.303
16.2341 9.083 0.308
16.2545 9.250 0.310
16.2750 9.083 0.308
16.2955 9.594 0.316
16.3159 8.729 0.302
16.3364 9.292 0.311
16.3569 8.698 0.301
16.3773 8.854 0.304
16.3978 8.510 0.298
16.4182 8.938 0.305
16.4387 8.531 0.298
16.4592 9.469 0.314
16.4796 8.396 0.296
16.5001 8.875 0.304
16.5206 8.990 0.306
16.5410 9.167 0.309
16.5615 9.375 0.313
16.5819 9.542 0.315
16.6024 8.896 0.304
16.6229 8.667 0.300
16.6433 9.271 0.311
16.6638 8.583 0.299
16.6843 8.677 0.301
16.7047 8.510 0.298
16.7252 9.146 0.309
16.7456 8.938 0.305
16.7661 8.688 0.301
16.7866 8.927 0.305
16.8070 9.063 0.307
16.8275 8.521 0.298
16.8480 8.917 0.305
16.8684 9.135 0.308
16.8889 8.479 0.297
16.9094 8.458 0.297
16.9298 8.604 0.299
16.9503 9.167 0.309
16.9707 8.896 0.304
16.9912 9.375 0.313
17.0117 9.188 0.309
17.0321 9.063 0.307
17.0526 8.646 0.300
17.0731 9.479 0.314
17.0935 8.917 0.305
17.1140 9.021 0.307
17.1344 9.146 0.309
17.1549 9.354 0.312
17.1754 9.979 0.322
17.1958 8.844 0.304
17.2163 9.573 0.316
17.2368 9.323 0.312
17.2572 9.240 0.310
17.2777 9.729 0.318
17.2981 9.406 0.313
17.3186 9.917 0.321
17.3391 9.948 0.322
17.3595 9.083 0.308
17.3800 9.208 0.310
17.4005 9.521 0.315
17.4209 10.000 0.323
17.4414 9.323 0.312
17.4618 9.667 0.317
17.4823 9.469 0.314
17.5028 9.458 0.314
17.5232 9.583 0.316
17.5437 9.427 0.313
17.5642 10.188 0.326
17.5846 10.375 0.329
17.6051 10.125 0.325
17.6255 9.906 0.321
17.6460 10.469 0.330
17.6665 10.281 0.327
17.6869 10.385 0.329
17.7074 10.583 0.332
17.7279 10.417 0.329
17.7483 10.625 0.333
17.7688 10.719 0.334
17.7893 10.698 0.334
17.8097 11.083 0.340
17.8302 11.292 0.343
17.8506 12.250 0.357
17.8711 12.063 0.354
17.8916 12.135 0.356
17.9120 12.156 0.356
17.9325 12.344 0.359
17.9530 12.521 0.361
17.9734 13.885 0.380
17.9939 13.354 0.373
18.0143 12.958 0.367
18.0348 14.365 0.387
18.0553 13.458 0.374
18.0757 14.833 0.393
18.0962 14.969 0.395
18.1167 16.760 0.418
18.1371 16.323 0.412
18.1576 17.573 0.428
18.1780 17.615 0.428
18.1985 17.333 0.425
18.2190 16.490 0.414
18.2394 16.271 0.412
18.2599 16.740 0.418
18.2804 16.802 0.418
18.3008 17.448 0.426
18.3213 16.844 0.419
18.3417 17.688 0.429
18.3622 17.677 0.429
18.3827 18.677 0.441
18.4031 18.958 0.444
18.4236 18.854 0.443
18.4441 19.104 0.446
18.4645 19.938 0.456
18.4850 20.479 0.462
18.5054 20.823 0.466
18.5259 21.563 0.474
18.5464 22.229 0.481
18.5668 24.021 0.500
18.5873 24.510 0.505
18.6078 24.198 0.502
18.6282 23.833 0.498
18.6487 23.802 0.498
18.6692 25.063 0.511
18.6896 24.031 0.500
18.7101 24.229 0.502
18.7305 22.833 0.488
18.7510 22.073 0.480
18.7715 21.469 0.473
18.7919 20.813 0.466
18.8124 20.281 0.460
18.8329 19.635 0.452
18.8533 19.156 0.447
18.8738 18.823 0.443
18.8942 18.531 0.439
18.9147 18.292 0.437
18.9352 16.646 0.416
18.9556 16.625 0.416
18.9761 15.313 0.399
18.9966 16.073 0.409
19.0170 15.073 0.396
19.0375 14.948 0.395
19.0579 14.521 0.389
19.0784 14.438 0.388
19.0989 13.917 0.381
19.1193 14.000 0.382
19.1398 13.958 0.381
19.1603 13.469 0.375
19.1807 14.260 0.385
19.2012 13.990 0.382
19.2216 14.813 0.393
19.2421 15.354 0.400
19.2626 14.979 0.395
19.2830 14.948 0.395
19.3035 14.833 0.393
19.3240 14.604 0.390
19.3444 14.979 0.395
19.3649 13.906 0.381
19.3853 14.271 0.386
19.4058 14.313 0.386
19.4263 15.240 0.398
19.4467 14.969 0.395
19.4672 15.969 0.408
19.4877 15.323 0.400
19.5081 15.729 0.405
19.5286 16.219 0.411
19.5491 16.083 0.409
19.5695 18.427 0.438
19.5900 19.677 0.453
19.6104 19.656 0.452
19.6309 21.281 0.471
19.6514 22.031 0.479
19.6718 23.542 0.495
19.6923 24.583 0.506
19.7128 27.250 0.533
19.7332 30.531 0.564
19.7537 33.115 0.587
19.7741 38.854 0.636
19.7946 47.406 0.703
19.8151 65.396 0.825
19.8355 111.521 1.078
19.8560 170.625 1.333
19.8765 248.760 1.610
19.8969 323.146 1.835
19.9174 283.625 1.719
19.9378 214.271 1.494
19.9583 163.740 1.306
19.9788 91.573 0.977
19.9992 50.438 0.725
20.0197 33.604 0.592
20.0402 27.427 0.535
20.0606 24.167 0.502
20.0811 22.719 0.486
20.1015 20.917 0.467
20.1220 20.313 0.460
20.1425 18.844 0.443
20.1629 17.427 0.426
20.1834 15.750 0.405
20.2039 16.396 0.413
20.2243 15.083 0.396
20.2448 15.125 0.397
20.2653 15.906 0.407
20.2857 14.885 0.394
20.3062 15.271 0.399
20.3266 15.583 0.403
20.3471 16.313 0.412
20.3676 16.177 0.411
20.3880 16.802 0.418
20.4085 15.406 0.401
20.4290 16.938 0.420
20.4494 16.594 0.416
20.4699 15.042 0.396
20.4903 15.552 0.402
20.5108 15.469 0.401
20.5313 15.750 0.405
20.5517 15.229 0.398
20.5722 14.896 0.394
20.5927 15.146 0.397
20.6131 15.688 0.404
20.6336 15.146 0.397
20.6540 15.021 0.396
20.6745 14.156 0.384
20.6950 13.344 0.373
20.7154 13.677 0.377
20.7359 13.104 0.369
20.7564 13.406 0.374
20.7768 13.198 0.371
20.7973 11.969 0.353
20.8177 12.635 0.363
20.8382 12.021 0.354
20.8587 12.344 0.359
20.8791 11.635 0.348
20.8996 11.802 0.351
20.9201 11.365 0.344
20.9405 11.240 0.342
20.9610 11.302 0.343
20.9814 11.677 0.349
21.0019 11.240 0.342
21.0224 11.115 0.340
21.0428 11.042 0.339
21.0633 10.979 0.338
21.0838 10.406 0.329
21.1042 10.104 0.324
21.1247 11.219 0.342
21.1452 10.073 0.324
21.1656 10.917 0.337
21.1861 10.365 0.329
21.2065 10.292 0.327
21.2270 10.573 0.332
21.2475 10.208 0.326
21.2679 10.698 0.334
21.2884 10.740 0.334
21.3089 10.448 0.330
21.3293 10.010 0.323
21.3498 10.948 0.338
21.3702 10.083 0.324
21.3907 9.688 0.318
21.4112 10.229 0.326
21.4316 9.792 0.319
21.4521 9.865 0.321
21.4726 10.156 0.325
21.4930 10.354 0.328
21.5135 9.896 0.321
21.5339 9.990 0.323
21.5544 9.688 0.318
21.5749 9.781 0.319
21.5953 10.281 0.327
21.6158 9.052 0.307
21.6363 9.719 0.318
21.6567 10.344 0.328
21.6772 10.729 0.334
21.6976 9.885 0.321
21.7181 9.594 0.316
21.7386 9.281 0.311
21.7590 9.594 0.316
21.7795 9.792 0.319
21.8000 9.604 0.316
21.8204 9.969 0.322
21.8409 9.469 0.314
21.8613 10.250 0.327
21.8818 9.990 0.323
21.9023 10.406 0.329
21.9227 9.771 0.319
21.9432 10.646 0.333
21.9637 10.427 0.330
21.9841 10.854 0.336
22.0046 10.656 0.333
22.0251 11.250 0.342
22.0455 10.813 0.336
22.0660 10.479 0.330
22.0864 11.438 0.345
22.1069 12.000 0.354
22.1274 13.208 0.371
22.1478 14.094 0.383
22.1683 17.271 0.424
22.1888 21.208 0.470
22.2092 26.531 0.526
22.2297 36.740 0.619
22.2501 44.146 0.678
22.2706 45.125 0.686
22.2911 41.583 0.658
22.3115 35.250 0.606
22.3320 29.260 0.552
22.3525 23.208 0.492
22.3729 18.677 0.441
22.3934 16.167 0.410
22.4138 14.771 0.392
22.4343 13.677 0.377
22.4548 12.625 0.363
22.4752 11.979 0.353
22.4957 12.083 0.355
22.5162 12.240 0.357
22.5366 11.135 0.341
22.5571 11.083 0.340
22.5775 10.406 0.329
22.5980 10.573 0.332
22.6185 10.240 0.327
22.6389 10.344 0.328
22.6594 10.146 0.325
22.6799 10.104 0.324
22.7003 10.396 0.329
22.7208 9.823 0.320
22.7412 10.438 0.330
22.7617 9.865 0.321
22.7822 10.063 0.324
22.8026 9.896 0.321
22.8231 9.313 0.311
22.8436 10.615 0.333
22.8640 9.250 0.310
22.8845 9.740 0.319
22.9050 9.771 0.319
22.9254 9.885 0.321
22.9459 9.417 0.313
22.9663 9.865 0.321
22.9868 9.479 0.314
23.0073 9.604 0.316
23.0277 9.427 0.313
23.0482 9.552 0.315
23.0687 9.260 0.311
23.0891 8.865 0.304
23.1096 9.625 0.317
23.1300 9.104 0.308
23.1505 9.344 0.312
23.1710 8.844 0.304
23.1914 9.260 0.311
23.2119 8.677 0.301
23.2324 9.021 0.307
23.2528 8.802 0.303
23.2733 8.458 0.297
23.2937 8.469 0.297
23.3142 8.156 0.291
23.3347 8.438 0.296
23.3551 9.219 0.310
23.3756 8.396 0.296
23.3961 8.156 0.291
23.4165 8.771 0.302
23.4370 8.219 0.293
23.4574 8.719 0.301
23.4779 8.948 0.305
23.4984 8.760 0.302
23.5188 8.646 0.300
23.5393 9.073 0.307
23.5598 8.500 0.298
23.5802 8.802 0.303
23.6007 8.875 0.304
23.6211 8.396 0.296
23.6416 8.313 0.294
23.6621 8.990 0.306
23.6825 8.563 0.299
23.7030 8.979 0.306
23.7235 9.125 0.308
23.7439 9.313 0.311
23.7644 8.583 0.299
23.7849 8.427 0.296
23.8053 8.417 0.296
23.8258 8.240 0.293
23.8462 8.740 0.302
23.8667 8.135 0.291
23.8872 8.490 0.297
23.9076 8.313 0.294
23.9281 8.281 0.294
23.9486 8.333 0.295
23.9690 7.896 0.287
23.9895 8.333 0.295
24.0099 8.250 0.293
24.0304 8.250 0.293
24.0509 8.073 0.290
24.0713 7.948 0.288
24.0918 8.500 0.298
24.1123 8.260 0.293
24.1327 8.146 0.291
24.1532 7.729 0.284
24.1736 8.344 0.295
24.1941 8.104 0.291
24.2146 8.260 0.293
24.2350 8.438 0.296
24.2555 8.052 0.290
24.2760 8.333 0.295
24.2964 8.156 0.291
24.3169 9.000 0.306
24.3373 9.177 0.309
24.3578 9.938 0.322
24.3783 10.250 0.327
24.3987 11.438 0.345
24.4192 11.427 0.345
24.4397 11.552 0.347
24.4601 10.052 0.324
24.4806 9.719 0.318
24.5011 8.802 0.303
24.5215 8.500 0.298
24.5420 7.948 0.288
24.5624 7.885 0.287
24.5829 7.844 0.286
24.6034 8.458 0.297
24.6238 7.240 0.275
24.6443 7.760 0.284
24.6648 7.635 0.282
24.6852 7.990 0.288
24.7057 8.542 0.298
24.7261 8.094 0.290
24.7466 8.073 0.290
24.7671 7.302 0.276
24.7875 7.927 0.287
24.8080 8.021 0.289
24.8285 7.854 0.286
24.8489 7.688 0.283
24.8694 7.823 0.285
24.8898 7.479 0.279
24.9103 8.042 0.289
24.9308 7.542 0.280
24.9512 7.792 0.285
24.9717 8.313 0.294
24.9922 7.729 0.284
25.0126 7.844 0.286
25.0331 7.271 0.275
25.0535 7.427 0.278
25.0740 7.469 0.279
25.0945 7.646 0.282
25.1149 7.938 0.288
25.1354 7.698 0.283
25.1559 7.646 0.282
25.1763 7.302 0.276
25.1968 7.813 0.285
25.2172 8.250 0.293
25.2377 7.760 0.284
25.2582 7.802 0.285
25.2786 7.344 0.277
25.2991 7.896 0.287
25.3196 7.635 0.282
25.3400 7.552 0.280
25.3605 7.979 0.288
25.3810 7.760 0.284
25.4014 7.177 0.273
25.4219 7.427 0.278
25.4423 7.479 0.279
25.4628 7.406 0.278
25.4833 8.000 0.289
25.5037 7.333 0.276
25.5242 7.896 0.287
25.5447 7.833 0.286
25.5651 7.198 0.274
25.5856 7.958 0.288
25.6060 7.021 0.270
25.6265 7.438 0.278
25.6470 7.375 0.277
25.6674 8.188 0.292
25.6879 7.792 0.285
25.7084 7.313 0.276
25.7288 7.271 0.275
25.7493 8.031 0.289
25.7697 7.063 0.271
25.7902 7.292 0.276
25.8107 7.552 0.280
25.8311 7.302 0.276
25.8516 7.875 0.286
25.8721 7.385 0.277
25.8925 7.917 0.287
25.9130 7.406 0.278
25.9334 7.656 0.282
25.9539 7.781 0.285
25.9744 7.875 0.286
25.9948 7.698 0.283
26.0153 7.333 0.276
26.0358 7.094 0.272
26.0562 7.719 0.284
26.0767 7.865 0.286
26.0971 7.813 0.285
26.1176 7.708 0.283
26.1381 8.438 0.296
26.1585 7.635 0.282
26.1790 7.979 0.288
26.1995 7.948 0.288
26.2199 9.177 0.309
26.2404 9.542 0.315
26.2609 8.917 0.305
26.2813 8.760 0.302
26.3018 9.198 0.310
26.3222 8.313 0.294
26.3427 8.198 0.292
26.3632 8.833 0.303
26.3836 8.135 0.291
26.4041 8.188 0.292
26.4246 8.208 0.292
26.4450 7.729 0.284
26.4655 7.719 0.284
26.4859 8.292 0.294
26.5064 7.729 0.284
26.5269 8.031 0.289
26.5473 7.844 0.286
26.5678 7.708 0.283
26.5883 7.167 0.273
26.6087 7.333 0.276
26.6292 7.396 0.278
26.6496 7.938 0.288
26.6701 7.896 0.287
26.6906 7.469 0.279
26.7110 7.719 0.284
26.7315 7.458 0.279
26.7520 7.375 0.277
26.7724 7.344 0.277
26.7929 7.625 0.282
26.8133 7.875 0.286
26.8338 7.104 0.272
26.8543 7.323 0.276
26.8747 7.823 0.285
26.8952 7.760 0.284
26.9157 7.615 0.282
26.9361 7.094 0.272
26.9566 7.677 0.283
26.9770 7.250 0.275
26.9975 8.010 0.289
27.0180 7.573 0.281
27.0384 7.740 0.284
27.0589 7.760 0.284
27.0794 7.802 0.285
27.0998 7.990 0.288
27.1203 7.229 0.274
27.1408 7.615 0.282
27.1612 8.052 0.290
27.1817 8.271 0.294
27.2021 8.563 0.299
27.2226 8.188 0.292
27.2431 7.906 0.287
27.2635 7.927 0.287
27.2840 7.792 0.285
27.3045 8.115 0.291
27.3249 7.781 0.285
27.3454 7.615 0.282
27.3658 7.594 0.281
27.3863 8.083 0.290
27.4068 7.292 0.276
27.4272 7.667 0.283
27.4477 7.229 0.274
27.4682 6.885 0.268
27.4886 7.354 0.277
27.5091 7.260 0.275
27.5295 7.396 0.278
27.5500 7.156 0.273
27.5705 7.760 0.284
27.5909 7.083 0.272
27.6114 7.188 0.274
27.6319 8.010 0.289
27.6523 7.604 0.281
27.6728 7.458 0.279
27.6932 7.458 0.279
27.7137 7.406 0.278
27.7342 7.344 0.277
27.7546 7.583 0.281
27.7751 7.844 0.286
27.7956 7.333 0.276
27.8160 7.521 0.280
27.8365 7.625 0.282
27.8569 7.271 0.275
27.8774 7.750 0.284
27.8979 8.188 0.292
27.9183 7.250 0.275
27.9388 7.219 0.274
27.9593 7.760 0.284
27.9797 7.865 0.286
28.0002 7.375 0.277
28.0207 7.177 0.273
28.0411 7.344 0.277
28.0616 7.448 0.279
28.0820 7.615 0.282
28.1025 7.781 0.285
28.1230 6.938 0.269
28.1434 7.479 0.279
28.1639 7.156 0.273
28.1844 7.323 0.276
28.2048 7.385 0.277
28.2253 7.510 0.280
28.2457 7.240 0.275
28.2662 7.406 0.278
28.2867 7.198 0.274
28.3071 7.708 0.283
28.3276 7.198 0.274
28.3481 7.156 0.273
28.3685 7.531 0.280
28.3890 7.354 0.277
28.4094 6.844 0.267
28.4299 7.396 0.278
28.4504 7.688 0.283
28.4708 6.854 0.267
28.4913 7.271 0.275
28.5118 7.604 0.281
28.5322 6.896 0.268
28.5527 7.260 0.275
28.5731 7.260 0.275
28.5936 7.271 0.275
28.6141 6.792 0.266
28.6345 7.000 0.270
28.6550 7.042 0.271
28.6755 7.010 0.270
28.6959 7.406 0.278
28.7164 6.781 0.266
28.7368 7.167 0.273
28.7573 6.990 0.270
28.7778 7.198 0.274
28.7982 7.000 0.270
28.8187 6.573 0.262
28.8392 7.115 0.272
28.8596 6.927 0.269
28.8801 6.760 0.265
28.9006 7.365 0.277
28.9210 7.510 0.280
28.9415 7.771 0.285
28.9619 7.250 0.275
28.9824 7.125 0.272
29.0029 7.083 0.272
29.0233 7.427 0.278
29.0438 7.313 0.276
29.0643 7.844 0.286
29.0847 7.333 0.276
29.1052 7.594 0.281
29.1256 7.292 0.276
29.1461 7.479 0.279
29.1666 7.531 0.280
29.1870 7.490 0.279
29.2075 7.521 0.280
29.2280 7.448 0.279
29.2484 7.385 0.277
29.2689 8.021 0.289
29.2893 8.375 0.295
29.3098 8.333 0.295
29.3303 9.708 0.318
29.3507 10.500 0.331
29.3712 10.594 0.332
29.3917 11.281 0.343
29.4121 11.323 0.343
29.4326 11.000 0.339
29.4530 10.656 0.333
29.4735 9.354 0.312
29.4940 8.490 0.297
29.5144 8.458 0.297
29.5349 7.990 0.288
29.5554 7.927 0.287
29.5758 7.396 0.278
29.5963 7.156 0.273
29.6168 7.229 0.274
29.6372 7.344 0.277
29.6577 7.521 0.280
29.6781 7.260 0.275
29.6986 7.010 0.270
29.7191 6.854 0.267
29.7395 6.750 0.265
29.7600 6.438 0.259
29.7805 6.313 0.256
29.8009 6.563 0.261
29.8214 7.156 0.273
29.8418 7.042 0.271
29.8623 6.781 0.266
29.8828 6.760 0.265
29.9032 6.854 0.267
29.9237 6.677 0.264
29.9442 7.438 0.278
29.9646 6.792 0.266
29.9851 7.281 0.275
30.0055 7.333 0.276
30.0260 7.094 0.272
30.0465 6.979 0.270
30.0669 7.260 0.275
30.0874 6.792 0.266
30.1079 6.771 0.266
30.1283 6.750 0.265
30.1488 6.844 0.267
30.1692 6.667 0.264
30.1897 6.917 0.268
30.2102 6.667 0.264
30.2306 6.750 0.265
30.2511 6.667 0.264
30.2716 6.750 0.265
30.2920 6.813 0.266
30.3125 6.563 0.261
30.3329 6.667 0.264
30.3534 6.781 0.266
30.3739 6.771 0.266
30.3943 7.010 0.270
30.4148 7.010 0.270
30.4353 7.354 0.277
30.4557 6.698 0.264
30.4762 6.063 0.251
30.4967 6.844 0.267
30.5171 6.521 0.261
30.5376 6.833 0.267
30.5580 6.573 0.262
30.5785 6.927 0.269
30.5990 6.708 0.264
30.6194 7.271 0.275
30.6399 7.396 0.278
30.6604 6.417 0.259
30.6808 7.063 0.271
30.7013 6.573 0.262
30.7217 6.604 0.262
30.7422 7.313 0.276
30.7627 7.156 0.273
30.7831 6.781 0.266
30.8036 6.885 0.268
30.8241 6.906 0.268
30.8445 7.292 0.276
30.8650 8.083 0.290
30.8854 7.531 0.280
30.9059 8.385 0.296
30.9264 8.750 0.302
30.9468 8.677 0.301
30.9673 9.760 0.319
30.9878 10.948 0.338
31.0082 12.177 0.356
31.0287 17.188 0.423
31.0491 22.625 0.485
31.0696 30.615 0.565
31.0901 37.031 0.621
31.1105 36.323 0.615
31.1310 31.708 0.575
31.1515 30.281 0.562
31.1719 28.521 0.545
31.1924 23.604 0.496
31.2128 19.688 0.453
31.2333 15.875 0.407
31.2538 12.813 0.365
31.2742 10.646 0.333
31.2947 9.219 0.310
31.3152 9.521 0.315
31.3356 8.573 0.299
31.3561 8.375 0.295
31.3766 8.271 0.294
31.3970 8.083 0.290
31.4175 8.292 0.294
31.4379 8.552 0.298
31.4584 8.052 0.290
31.4789 7.844 0.286
31.4993 8.063 0.290
31.5198 7.594 0.281
31.5403 7.198 0.274
31.5607 6.750 0.265
31.5812 6.865 0.267
31.6016 6.177 0.254
31.6221 6.958 0.269
31.6426 6.865 0.267
31.6630 6.938 0.269
31.6835 6.990 0.270
31.7040 6.667 0.264
31.7244 6.927 0.269
31.7449 6.781 0.266
31.7653 6.740 0.265
31.7858 7.073 0.271
31.8063 7.010 0.270
31.8267 6.740 0.265
31.8472 6.833 0.267
31.8677 7.854 0.286
31.8881 6.604 0.262
31.9086 6.760 0.265
31.9290 6.969 0.269
31.9495 6.615 0.262
31.9700 6.563 0.261
31.9904 6.531 0.261
32.0109 7.438 0.278
32.0314 6.813 0.266
32.0518 7.948 0.288
32.0723 7.760 0.284
32.0927 7.854 0.286
32.1132 8.281 0.294
32.1337 7.854 0.286
32.1541 8.542 0.298
32.1746 9.510 0.315
32.1951 9.250 0.310
32.2155 9.438 0.314
32.2360 9.302 0.311
32.2565 8.552 0.298
32.2769 8.458 0.297
32.2974 8.740 0.302
32.3178 7.927 0.287
32.3383 7.990 0.288
32.3588 8.052 0.290
32.3792 7.677 0.283
32.3997 7.365 0.277
32.4202 7.563 0.281
32.4406 7.219 0.274
32.4611 8.354 0.295
32.4815 7.885 0.287
32.5020 7.906 0.287
32.5225 8.479 0.297
32.5429 9.146 0.309
32.5634 9.333 0.312
32.5839 10.198 0.326
32.6043 11.000 0.339
32.6248 12.406 0.359
32.6452 14.625 0.390
32.6657 17.177 0.423
32.6862 20.052 0.457
32.7066 19.979 0.456
32.7271 18.135 0.435
32.7476 16.969 0.420
32.7680 15.740 0.405
32.7885 14.438 0.388
32.8089 12.760 0.365
32.8294 11.333 0.344
32.8499 10.115 0.325
32.8703 8.917 0.305
32.8908 8.573 0.299
32.9113 8.625 0.300
32.9317 8.042 0.289
32.9522 7.698 0.283
32.9726 7.813 0.285
32.9931 7.729 0.284
33.0136 7.073 0.271
33.0340 7.365 0.277
33.0545 7.635 0.282
33.0750 7.292 0.276
33.0954 7.625 0.282
33.1159 7.479 0.279
33.1364 7.792 0.285
33.1568 7.813 0.285
33.1773 7.427 0.278
33.1977 7.521 0.280
33.2182 6.729 0.265
33.2387 7.135 0.273
33.2591 7.604 0.281
33.2796 6.896 0.268
33.3001 6.635 0.263
33.3205 6.521 0.261
33.3410 6.635 0.263
33.3614 6.656 0.263
33.3819 6.719 0.265
33.4024 6.323 0.257
33.4228 7.094 0.272
33.4433 6.677 0.264
33.4638 6.604 0.262
33.4842 6.021 0.250
33.5047 6.802 0.266
33.5251 6.781 0.266
33.5456 6.104 0.252
33.5661 6.427 0.259
33.5865 6.469 0.260
33.6070 6.583 0.262
33.6275 6.542 0.261
33.6479 6.313 0.256
33.6684 6.458 0.259
33.6888 6.969 0.269
33.7093 6.719 0.265
33.7298 6.740 0.265
33.7502 6.469 0.260
33.7707 6.781 0.266
33.7912 6.604 0.262
33.8116 6.073 0.252
33.8321 6.292 0.256
33.8526 5.969 0.249
33.8730 6.260 0.255
33.8935 7.000 0.270
33.9139 6.448 0.259
33.9344 6.469 0.260
33.9549 6.156 0.253
33.9753 6.292 0.256
33.9958 6.385 0.258
34.0163 5.875 0.247
34.0367 6.198 0.254
34.0572 6.313 0.256
34.0776 6.094 0.252
34.0981 6.427 0.259
34.1186 6.458 0.259
34.1390 6.188 0.254
34.1595 6.198 0.254
34.1800 6.125 0.253
34.2004 6.635 0.263
34.2209 6.198 0.254
34.2413 6.646 0.263
34.2618 6.708 0.264
34.2823 6.417 0.259
34.3027 6.552 0.261
34.3232 6.698 0.264
34.3437 6.563 0.261
34.3641 6.521 0.261
34.3846 6.594 0.262
34.4050 6.927 0.269
34.4255 6.583 0.262
34.4460 6.458 0.259
34.4664 6.521 0.261
34.4869 6.333 0.257
34.5074 6.250 0.255
34.5278 6.583 0.262
34.5483 6.521 0.261
34.5687 6.229 0.255
34.5892 6.073 0.252
34.6097 6.479 0.260
34.6301 6.167 0.253
34.6506 5.854 0.247
34.6711 6.083 0.252
34.6915 6.021 0.250
34.7120 6.219 0.255
34.7325 5.906 0.248
34.7529 6.854 0.267
34.7734 5.771 0.245
34.7938 5.917 0.248
34.8143 6.073 0.252
34.8348 6.615 0.262
34.8552 6.250 0.255
34.8757 6.208 0.254
34.8962 6.385 0.258
34.9166 6.271 0.256
34.9371 6.240 0.255
34.9575 7.000 0.270
34.9780 6.094 0.252
34.9985 6.479 0.260
35.0189 6.896 0.268
35.0394 6.531 0.261
35.0599 6.521 0.261
35.0803 6.573 0.262
35.1008 6.667 0.264
35.1212 6.490 0.260
35.1417 6.469 0.260
35.1622 6.281 0.256
35.1826 6.406 0.258
35.2031 6.563 0.261
35.2236 6.333 0.257
35.2440 6.063 0.251
35.2645 6.250 0.255
35.2849 6.781 0.266
35.3054 6.552 0.261
35.3259 6.167 0.253
35.3463 6.615 0.262
35.3668 6.604 0.262
35.3873 6.375 0.258
35.4077 6.115 0.252
35.4282 7.490 0.279
35.4486 7.219 0.274
35.4691 6.635 0.263
35.4896 6.594 0.262
35.5100 6.573 0.262
35.5305 6.885 0.268
35.5510 6.667 0.264
35.5714 6.458 0.259
35.5919 6.719 0.265
35.6124 6.667 0.264
35.6328 6.708 0.264
35.6533 6.604 0.262
35.6737 6.198 0.254
35.6942 7.021 0.270
35.7147 7.292 0.276
35.7351 6.667 0.264
35.7556 6.854 0.267
35.7761 7.292 0.276
35.7965 7.333 0.276
35.8170 7.781 0.285
35.8374 7.229 0.274
35.8579 7.510 0.280
35.8784 7.302 0.276
35.8988 7.292 0.276
35.9193 7.260 0.275
35.9398 7.573 0.281
35.9602 7.667 0.283
35.9807 7.677 0.283
36.0011 7.865 0.286
36.0216 8.917 0.305
36.0421 8.563 0.299
36.0625 8.865 0.304
36.0830 8.875 0.304
36.1035 9.938 0.322
36.1239 9.635 0.317
36.1444 9.865 0.321
36.1648 10.302 0.328
36.1853 11.094 0.340
36.2058 10.573 0.332
36.2262 11.125 0.340
36.2467 11.573 0.347
36.2672 11.052 0.339
36.2876 11.604 0.348
36.3081 11.063 0.339
36.3285 11.583 0.347
36.3490 10.792 0.335
36.3695 10.563 0.332
36.3899 11.281 0.343
36.4104 11.500 0.346
36.4309 11.042 0.339
36.4513 11.542 0.347
36.4718 10.510 0.331
36.4923 11.156 0.341
36.5127 11.979 0.353
36.5332 12.448 0.360
36.5536 12.323 0.358
36.5741 13.229 0.371
36.5946 14.396 0.387
36.6150 15.156 0.397
36.6355 19.177 0.447
36.6560 23.344 0.493
36.6764 24.875 0.509
36.6969 23.646 0.496
36.7173 21.396 0.472
36.7378 19.438 0.450
36.7583 19.073 0.446
36.7787 18.833 0.443
36.7992 16.292 0.412
36.8197 15.490 0.402
36.8401 13.927 0.381
36.8606 12.781 0.365
36.8810 12.885 0.366
36.9015 12.479 0.361
36.9220 13.240 0.371
36.9424 13.917 0.381
36.9629 13.427 0.374
36.9834 13.521 0.375
37.0038 15.115 0.397
37.0243 15.750 0.405
37.0447 16.219 0.411
37.0652 17.760 0.430
37.0857 19.688 0.453
37.1061 24.427 0.504
37.1266 28.250 0.542
37.1471 31.760 0.575
37.1675 31.188 0.570
37.1880 29.688 0.556
37.2084 26.750 0.528
37.2289 26.031 0.521
37.2494 23.250 0.492
37.2698 20.958 0.467
37.2903 18.677 0.441
37.3108 16.365 0.413
37.3312 14.542 0.389
37.3517 13.135 0.370
37.3722 12.000 0.354
37.3926 11.427 0.345
37.4131 10.292 0.327
37.4335 10.208 0.326
37.4540 9.781 0.319
37.4745 10.031 0.323
37.4949 10.125 0.325
37.5154 9.906 0.321
37.5359 10.219 0.326
37.5563 9.563 0.316
37.5768 9.354 0.312
37.5972 10.021 0.323
37.6177 9.656 0.317
37.6382 9.625 0.317
37.6586 8.927 0.305
37.6791 9.802 0.320
37.6996 9.656 0.317
37.7200 9.302 0.311
37.7405 8.906 0.305
37.7609 9.479 0.314
37.7814 9.479 0.314
37.8019 9.073 0.307
37.8223 9.229 0.310
37.8428 9.771 0.319
37.8633 9.781 0.319
37.8837 9.198 0.310
37.9042 10.135 0.325
37.9246 10.083 0.324
37.9451 9.979 0.322
37.9656 10.833 0.336
37.9860 10.698 0.334
38.0065 11.250 0.342
38.0270 12.208 0.357
38.0474 12.865 0.366
38.0679 14.646 0.391
38.0884 16.010 0.408
38.1088 16.313 0.412
38.1293 16.104 0.410
38.1497 15.333 0.400
38.1702 14.188 0.384
38.1907 13.698 0.378
38.2111 13.885 0.380
38.2316 12.917 0.367
38.2521 11.688 0.349
38.2725 11.792 0.350
38.2930 10.906 0.337
38.3134 10.823 0.336
38.3339 10.500 0.331
38.3544 10.135 0.325
38.3748 10.052 0.324
38.3953 10.292 0.327
38.4158 10.656 0.333
38.4362 10.438 0.330
38.4567 10.917 0.337
38.4771 11.563 0.347
38.4976 12.771 0.365
38.5181 13.844 0.380
38.5385 14.010 0.382
38.5590 13.229 0.371
38.5795 13.177 0.370
38.5999 12.719 0.364
38.6204 12.073 0.355
38.6408 11.958 0.353
38.6613 10.802 0.335
38.6818 10.688 0.334
38.7022 10.063 0.324
38.7227 9.260 0.311
38.7432 9.302 0.311
38.7636 8.438 0.296
38.7841 9.167 0.309
38.8045 8.552 0.298
38.8250 8.646 0.300
38.8455 8.531 0.298
38.8659 8.271 0.294
38.8864 8.542 0.298
38.9069 8.271 0.294
38.9273 7.906 0.287
38.9478 8.479 0.297
38.9683 7.542 0.280
38.9887 7.896 0.287
39.0092 8.469 0.297
39.0296 7.792 0.285
39.0501 8.135 0.291
39.0706 8.500 0.298
39.0910 8.458 0.297
39.1115 8.104 0.291
39.1320 8.094 0.290
39.1524 8.583 0.299
39.1729 8.448 0.297
39.1933 8.104 0.291
39.2138 8.052 0.290
39.2343 8.052 0.290
39.2547 8.115 0.291
39.2752 7.771 0.285
39.2957 8.302 0.294
39.3161 8.781 0.302
39.3366 8.240 0.293
39.3570 8.125 0.291
39.3775 7.885 0.287
39.3980 8.198 0.292
39.4184 8.438 0.296
39.4389 8.510 0.298
39.4594 9.177 0.309
39.4798 9.083 0.308
39.5003 9.000 0.306
39.5207 8.906 0.305
39.5412 9.417 0.313
39.5617 8.365 0.295
39.5821 8.031 0.289
39.6026 8.531 0.298
39.6231 8.542 0.298
39.6435 8.438 0.296
39.6640 8.552 0.298
39.6844 7.896 0.287
39.7049 8.219 0.293
39.7254 8.615 0.300
39.7458 8.188 0.292
39.7663 8.656 0.300
39.7868 9.260 0.311
39.8072 9.010 0.306
39.8277 10.583 0.332
39.8482 10.396 0.329
39.8686 11.385 0.344
39.8891 11.240 0.342
39.9095 10.896 0.337
39.9300 10.010 0.323
39.9505 10.250 0.327
39.9709 9.823 0.320
39.9914 9.771 0.319
40.0119 9.833 0.320
40.0323 9.427 0.313
40.0528 8.479 0.297
40.0732 8.948 0.305
40.0937 8.740 0.302
40.1142 8.323 0.294
40.1346 8.396 0.296
40.1551 8.188 0.292
40.1756 8.167 0.292
40.1960 8.250 0.293
40.2165 8.167 0.292
40.2369 8.542 0.298
40.2574 9.115 0.308
40.2779 9.781 0.319
40.2983 10.396 0.329
40.3188 12.906 0.367
40.3393 15.229 0.398
40.3597 14.604 0.390
40.3802 12.500 0.361
40.4006 11.865 0.352
40.4211 11.302 0.343
40.4416 12.302 0.358
40.4620 11.813 0.351
40.4825 10.646 0.333
40.5030 9.656 0.317
40.5234 9.250 0.310
40.5439 8.531 0.298
40.5643 8.823 0.303
40.5848 7.948 0.288
40.6053 8.781 0.302
40.6257 8.052 0.290
40.6462 8.156 0.291
40.6667 8.281 0.294
40.6871 7.823 0.285
40.7076 8.802 0.303
40.7281 7.833 0.286
40.7485 7.958 0.288
40.7690 8.313 0.294
40.7894 8.073 0.290
40.8099 7.927 0.287
40.8304 7.813 0.285
40.8508 8.021 0.289
40.8713 7.740 0.284
40.8918 7.531 0.280
40.9122 7.281 0.275
40.9327 7.865 0.286
40.9531 7.802 0.285
40.9736 7.917 0.287
40.9941 8.292 0.294
41.0145 7.875 0.286
41.0350 7.969 0.288
41.0555 8.354 0.295
41.0759 8.688 0.301
41.0964 9.000 0.306
41.1168 9.896 0.321
41.1373 10.302 0.328
41.1578 10.792 0.335
41.1782 12.750 0.364
41.1987 14.698 0.391
41.2192 14.594 0.390
41.2396 13.823 0.379
41.2601 12.260 0.357
41.2805 12.125 0.355
41.3010 12.073 0.355
41.3215 10.917 0.337
41.3419 10.646 0.333
41.3624 10.313 0.328
41.3829 8.927 0.305
41.4033 8.323 0.294
41.4238 8.417 0.296
41.4442 7.760 0.284
41.4647 7.208 0.274
41.4852 7.229 0.274
41.5056 6.781 0.266
41.5261 6.469 0.260
41.5466 6.542 0.261
41.5670 6.896 0.268
41.5875 7.073 0.271
41.6080 6.531 0.261
41.6284 6.583 0.262
41.6489 6.885 0.268
41.6693 7.031 0.271
41.6898 6.792 0.266
41.7103 6.563 0.261
41.7307 6.750 0.265
41.7512 6.146 0.253
41.7717 7.313 0.276
41.7921 6.573 0.262
41.8126 7.021 0.270
41.8330 6.396 0.258
41.8535 6.594 0.262
41.8740 6.719 0.265
41.8944 6.865 0.267
41.9149 6.719 0.265
41.9354 6.698 0.264
41.9558 7.073 0.271
41.9763 6.698 0.264
41.9967 6.865 0.267
42.0172 6.604 0.262
42.0377 6.844 0.267
42.0581 6.146 0.253
42.0786 6.656 0.263
42.0991 7.021 0.270
42.1195 6.969 0.269
42.1400 6.438 0.259
42.1604 6.229 0.255
42.1809 6.594 0.262
42.2014 6.729 0.265
42.2218 6.854 0.267
42.2423 6.646 0.263
42.2628 6.854 0.267
42.2832 6.792 0.266
42.3037 6.948 0.269
42.3242 6.594 0.262
42.3446 6.615 0.262
42.3651 6.875 0.268
42.3855 7.396 0.278
42.4060 7.177 0.273
42.4265 6.875 0.268
42.4469 7.427 0.278
42.4674 6.958 0.269
42.4879 7.458 0.279
42.5083 7.406 0.278
42.5288 7.302 0.276
42.5492 6.833 0.267
42.5697 7.052 0.271
42.5902 7.344 0.277
42.6106 7.396 0.278
42.6311 7.594 0.281
42.6516 7.125 0.272
42.6720 7.521 0.280
42.6925 7.667 0.283
42.7129 7.438 0.278
42.7334 7.833 0.286
42.7539 7.344 0.277
42.7743 7.438 0.278
42.7948 6.844 0.267
42.8153 7.292 0.276
42.8357 7.615 0.282
42.8562 7.094 0.272
42.8766 7.615 0.282
42.8971 7.208 0.274
42.9176 7.552 0.280
42.9380 7.781 0.285
42.9585 7.313 0.276
42.9790 7.292 0.276
42.9994 7.208 0.274
43.0199 7.604 0.281
43.0403 7.146 0.273
43.0608 7.135 0.273
43.0813 7.135 0.273
43.1017 7.563 0.281
43.1222 6.979 0.270
43.1427 7.365 0.277
43.1631 7.635 0.282
43.1836 7.875 0.286
43.2041 8.010 0.289
43.2245 8.479 0.297
43.2450 8.604 0.299
43.2654 9.625 0.317
43.2859 9.406 0.313
43.3064 9.510 0.315
43.3268 9.010 0.306
43.3473 9.344 0.312
43.3678 9.417 0.313
43.3882 9.604 0.316
43.4087 9.625 0.317
43.4291 9.313 0.311
43.4496 9.229 0.310
43.4701 9.250 0.310
43.4905 9.042 0.307
43.5110 9.063 0.307
43.5315 9.823 0.320
43.5519 9.917 0.321
43.5724 9.938 0.322
43.5928 10.740 0.334
43.6133 12.240 0.357
43.6338 12.927 0.367
43.6542 15.177 0.398
43.6747 17.698 0.429
43.6952 19.563 0.451
43.7156 20.719 0.465
43.7361 19.438 0.450
43.7565 17.771 0.430
43.7770 15.844 0.406
43.7975 16.260 0.412
43.8179 15.302 0.399
43.8384 14.667 0.391
43.8589 12.646 0.363
43.8793 11.604 0.348
43.8998 10.854 0.336
43.9202 10.313 0.328
43.9407 8.906 0.305
43.9612 8.552 0.298
43.9816 8.427 0.296
44.0021 7.698 0.283
44.0226 7.354 0.277
44.0430 7.302 0.276
44.0635 7.156 0.273
44.0840 7.792 0.285
44.1044 7.323 0.276
44.1249 7.125 0.272
44.1453 7.177 0.273
44.1658 7.229 0.274
44.1863 7.021 0.270
44.2067 7.125 0.272
44.2272 7.448 0.279
44.2477 7.073 0.271
44.2681 7.438 0.278
44.2886 6.438 0.259
44.3090 6.927 0.269
44.3295 7.063 0.271
44.3500 6.906 0.268
44.3704 6.594 0.262
44.3909 6.802 0.266
44.4114 6.865 0.267
44.4318 6.750 0.265
44.4523 6.177 0.254
44.4727 7.313 0.276
44.4932 6.979 0.270
44.5137 7.125 0.272
44.5341 6.490 0.260
44.5546 6.604 0.262
44.5751 6.250 0.255
44.5955 6.615 0.262
44.6160 7.438 0.278
44.6364 6.552 0.261
44.6569 6.677 0.264
44.6774 6.792 0.266
44.6978 6.208 0.254
44.7183 6.104 0.252
44.7388 7.115 0.272
44.7592 6.750 0.265
44.7797 6.885 0.268
44.8001 6.979 0.270
44.8206 6.719 0.265
44.8411 7.365 0.277
44.8615 6.719 0.265
44.8820 7.385 0.277
44.9025 6.875 0.268
44.9229 7.115 0.272
44.9434 6.990 0.270
44.9639 7.302 0.276
44.9843 7.427 0.278
45.0048 7.500 0.280
45.0252 6.760 0.265
45.0457 7.115 0.272
45.0662 6.427 0.259
45.0866 6.802 0.266
45.1071 6.854 0.267
45.1276 7.406 0.278
45.1480 7.229 0.274
45.1685 7.885 0.287
45.1889 7.188 0.274
45.2094 7.667 0.283
45.2299 7.802 0.285
45.2503 7.906 0.287
45.2708 8.719 0.301
45.2913 9.583 0.316
45.3117 9.729 0.318
45.3322 10.604 0.332
45.3526 9.760 0.319
45.3731 9.333 0.312
45.3936 8.625 0.300
45.4140 8.594 0.299
45.4345 8.865 0.304
45.4550 9.052 0.307
45.4754 7.896 0.287
45.4959 8.052 0.290
45.5163 7.438 0.278
45.5368 7.667 0.283
45.5573 7.156 0.273
45.5777 6.563 0.261
45.5982 6.500 0.260
45.6187 6.854 0.267
45.6391 6.594 0.262
45.6596 7.031 0.271
45.6800 7.438 0.278
45.7005 6.865 0.267
45.7210 6.896 0.268
45.7414 7.198 0.274
45.7619 6.823 0.267
45.7824 6.865 0.267
45.8028 7.333 0.276
45.8233 7.344 0.277
45.8438 7.458 0.279
45.8642 7.698 0.283
45.8847 8.042 0.289
45.9051 6.927 0.269
45.9256 6.365 0.257
45.9461 6.990 0.270
45.9665 7.135 0.273
45.9870 6.667 0.264
46.0075 6.833 0.267
46.0279 6.625 0.263
46.0484 6.729 0.265
46.0688 6.927 0.269
46.0893 6.146 0.253
46.1098 6.740 0.265
46.1302 6.646 0.263
46.1507 6.198 0.254
46.1712 5.906 0.248
46.1916 6.344 0.257
46.2121 6.688 0.264
46.2325 6.396 0.258
46.2530 5.938 0.249
46.2735 5.990 0.250
46.2939 5.969 0.249
46.3144 5.854 0.247
46.3349 5.958 0.249
46.3553 6.115 0.252
46.3758 6.125 0.253
46.3962 6.302 0.256
46.4167 5.792 0.246
46.4372 6.292 0.256
46.4576 6.479 0.260
46.4781 6.146 0.253
46.4986 5.542 0.240
46.5190 6.448 0.259
46.5395 6.063 0.251
46.5600 5.948 0.249
46.5804 6.010 0.250
46.6009 5.438 0.238
46.6213 6.281 0.256
46.6418 5.875 0.247
46.6623 5.729 0.244
46.6827 6.219 0.255
46.7032 6.271 0.256
46.7237 6.104 0.252
46.7441 6.063 0.251
46.7646 6.260 0.255
46.7850 5.948 0.249
46.8055 6.458 0.259
46.8260 6.427 0.259
46.8464 6.542 0.261
46.8669 5.563 0.241
46.8874 5.990 0.250
46.9078 5.625 0.242
46.9283 5.969 0.249
46.9487 6.146 0.253
46.9692 6.229 0.255
46.9897 6.375 0.258
47.0101 6.052 0.251
47.0306 5.667 0.243
47.0511 6.094 0.252
47.0715 6.115 0.252
47.0920 6.198 0.254
47.1124 6.219 0.255
47.1329 6.458 0.259
47.1534 6.302 0.256
47.1738 6.135 0.253
47.1943 6.677 0.264
47.2148 6.521 0.261
47.2352 6.729 0.265
47.2557 6.344 0.257
47.2761 6.688 0.264
47.2966 6.552 0.261
47.3171 6.969 0.269
47.3375 6.406 0.258
47.3580 6.427 0.259
47.3785 6.625 0.263
47.3989 6.875 0.268
47.4194 6.583 0.262
47.4399 6.469 0.260
47.4603 6.510 0.260
47.4808 7.156 0.273
47.5012 7.010 0.270
47.5217 7.000 0.270
47.5422 7.406 0.278
47.5626 7.302 0.276
47.5831 8.000 0.289
47.6036 8.146 0.291
47.6240 9.063 0.307
47.6445 10.083 0.324
47.6649 10.583 0.332
47.6854 10.948 0.338
47.7059 10.729 0.334
47.7263 10.792 0.335
47.7468 10.260 0.327
47.7673 10.094 0.324
47.7877 9.604 0.316
47.8082 10.479 0.330
47.8286 9.167 0.309
47.8491 8.250 0.293
47.8696 8.479 0.297
47.8900 8.125 0.291
47.9105 7.531 0.280
47.9310 7.135 0.273
47.9514 7.281 0.275
47.9719 7.073 0.271
47.9923 7.000 0.270
48.0128 7.042 0.271
48.0333 6.688 0.264
48.0537 6.750 0.265
48.0742 6.156 0.253
48.0947 6.802 0.266
48.1151 6.354 0.257
48.1356 6.604 0.262
48.1560 6.417 0.259
48.1765 6.240 0.255
48.1970 6.292 0.256
48.2174 6.938 0.269
48.2379 6.750 0.265
48.2584 6.865 0.267
48.2788 6.990 0.270
48.2993 7.073 0.271
48.3198 6.979 0.270
48.3402 6.813 0.266
48.3607 7.385 0.277
48.3811 7.802 0.285
48.4016 7.917 0.287
48.4221 7.802 0.285
48.4425 8.292 0.294
48.4630 8.135 0.291
48.4835 7.719 0.284
48.5039 7.625 0.282
48.5244 7.969 0.288
48.5448 7.313 0.276
48.5653 7.333 0.276
48.5858 6.813 0.266
48.6062 7.021 0.270
48.6267 7.115 0.272
48.6472 6.948 0.269
48.6676 6.948 0.269
48.6881 6.656 0.263
48.7085 6.781 0.266
48.7290 6.865 0.267
48.7495 6.802 0.266
48.7699 7.188 0.274
48.7904 7.167 0.273
48.8109 7.073 0.271
48.8313 7.010 0.270
48.8518 6.490 0.260
48.8722 7.042 0.271
48.8927 6.375 0.258
48.9132 6.458 0.259
48.9336 6.229 0.255
48.9541 6.521 0.261
48.9746 6.635 0.263
48.9950 5.990 0.250
49.0155 5.438 0.238
49.0359 6.281 0.256
49.0564 6.260 0.255
49.0769 5.656 0.243
49.0973 5.854 0.247
49.1178 5.688 0.243
49.1383 5.854 0.247
49.1587 5.896 0.248
49.1792 5.781 0.245
49.1997 5.354 0.236
49.2201 5.448 0.238
49.2406 5.635 0.242
49.2610 5.760 0.245
49.2815 5.573 0.241
49.3020 6.031 0.251
49.3224 5.323 0.235
49.3429 6.188 0.254
49.3634 5.490 0.239
49.3838 5.563 0.241
49.4043 6.240 0.255
49.4247 5.573 0.241
49.4452 5.500 0.239
49.4657 6.302 0.256
49.4861 6.115 0.252
49.5066 5.958 0.249
49.5271 6.000 0.250
49.5475 6.281 0.256
49.5680 6.479 0.260
49.5884 6.667 0.264
49.6089 6.333 0.257
49.6294 6.521 0.261
49.6498 6.719 0.265
49.6703 7.052 0.271
49.6908 6.802 0.266
49.7112 7.417 0.278
49.7317 7.406 0.278
49.7521 6.594 0.262
49.7726 7.333 0.276
49.7931 8.188 0.292
49.8135 8.542 0.298
49.8340 8.760 0.302
49.8545 9.802 0.320
49.8749 11.385 0.344
49.8954 12.260 0.357
49.9158 12.698 0.364
49.9363 13.115 0.370
49.9568 12.969 0.368
49.9772 12.688 0.364
49.9977 12.979 0.368
50.0182 11.552 0.347
50.0386 10.917 0.337
50.0591 11.115 0.340
50.0796 10.104 0.324
50.1000 10.292 0.327
50.1205 9.698 0.318
50.1409 9.188 0.309
50.1614 8.396 0.296
50.1819 8.875 0.304
50.2023 8.135 0.291
50.2228 8.917 0.305
50.2433 9.229 0.310
50.2637 8.927 0.305
50.2842 9.083 0.308
50.3046 8.604 0.299
50.3251 8.750 0.302
50.3456 7.927 0.287
50.3660 8.510 0.298
50.3865 7.906 0.287
50.4070 7.094 0.272
50.4274 7.948 0.288
50.4479 7.240 0.275
50.4683 6.781 0.266
50.4888 7.021 0.270
50.5093 6.406 0.258
50.5297 6.740 0.265
50.5502 6.615 0.262
50.5707 6.260 0.255
50.5911 6.208 0.254
50.6116 5.906 0.248
50.6320 6.125 0.253
50.6525 6.698 0.264
50.6730 6.479 0.260
50.6934 6.021 0.250
50.7139 6.000 0.250
50.7344 6.313 0.256
50.7548 6.479 0.260
50.7753 5.927 0.248
50.7958 5.729 0.244
50.8162 6.000 0.250
50.8367 6.427 0.259
50.8571 5.708 0.244
50.8776 6.250 0.255
50.8981 6.052 0.251
50.9185 6.490 0.260
50.9390 6.458 0.259
50.9595 6.771 0.266
50.9799 6.552 0.261
51.0004 7.063 0.271
51.0208 7.167 0.273
51.0413 7.708 0.283
51.0618 7.375 0.277
51.0822 7.958 0.288
51.1027 6.521 0.261
51.1232 7.063 0.271
51.1436 6.781 0.266
51.1641 7.573 0.281
51.1845 7.073 0.271
51.2050 6.865 0.267
51.2255 6.417 0.259
51.2459 7.563 0.281
51.2664 6.469 0.260
51.2869 6.042 0.251
51.3073 6.302 0.256
51.3278 6.490 0.260
51.3482 6.531 0.261
51.3687 6.698 0.264
51.3892 6.146 0.253
51.4096 6.458 0.259
51.4301 6.563 0.261
51.4506 6.125 0.253
51.4710 6.302 0.256
51.4915 6.063 0.251
51.5119 6.760 0.265
51.5324 6.240 0.255
51.5529 6.406 0.258
51.5733 5.927 0.248
51.5938 6.292 0.256
51.6143 6.042 0.251
51.6347 5.948 0.249
51.6552 5.854 0.247
51.6757 6.500 0.260
51.6961 6.573 0.262
51.7166 6.958 0.269
51.7370 7.250 0.275
51.7575 6.604 0.262
51.7780 6.427 0.259
51.7984 6.594 0.262
51.8189 6.188 0.254
51.8394 6.354 0.257
51.8598 5.833 0.247
51.8803 6.094 0.252
51.9007 6.417 0.259
51.9212 5.885 0.248
51.9417 5.865 0.247
51.9621 5.604 0.242
51.9826 5.990 0.250
52.0031 5.292 0.235
52.0235 5.969 0.249
52.0440 6.125 0.253
52.0644 5.052 0.229
52.0849 5.615 0.242
52.1054 5.479 0.239
52.1258 5.156 0.232
52.1463 5.667 0.243
52.1668 5.510 0.240
52.1872 5.677 0.243
52.2077 5.073 0.230
52.2281 5.448 0.238
52.2486 5.531 0.240
52.2691 5.135 0.231
52.2895 5.146 0.232
52.3100 5.302 0.235
52.3305 5.604 0.242
52.3509 4.854 0.225
52.3714 5.542 0.240
52.3918 6.031 0.251
52.4123 5.698 0.244
52.4328 6.104 0.252
52.4532 5.979 0.250
52.4737 5.875 0.247
52.4942 5.979 0.250
52.5146 5.604 0.242
52.5351 6.021 0.250
52.5556 5.781 0.245
52.5760 5.635 0.242
52.5965 5.604 0.242
52.6169 5.531 0.240
52.6374 5.698 0.244
52.6579 5.469 0.239
52.6783 5.156 0.232
52.6988 5.583 0.241
52.7193 4.844 0.225
52.7397 5.167 0.232
52.7602 4.875 0.225
52.7806 4.760 0.223
52.8011 5.104 0.231
52.8216 4.969 0.228
52.8420 5.365 0.236
52.8625 4.906 0.226
52.8830 5.323 0.235
52.9034 5.260 0.234
52.9239 5.406 0.237
52.9443 5.490 0.239
52.9648 5.542 0.240
52.9853 5.052 0.229
53.0057 5.594 0.241
53.0262 5.583 0.241
53.0467 5.281 0.235
53.0671 5.708 0.244
53.0876 5.708 0.244
53.1080 5.271 0.234
53.1285 5.552 0.240
53.1490 5.021 0.229
53.1694 5.844 0.247
53.1899 6.135 0.253
53.2104 5.469 0.239
53.2308 5.333 0.236
53.2513 5.333 0.236
53.2717 5.521 0.240
53.2922 4.896 0.226
53.3127 5.156 0.232
53.3331 5.063 0.230
53.3536 5.625 0.242
53.3741 4.885 0.226
53.3945 5.073 0.230
53.4150 5.208 0.233
53.4355 5.042 0.229
53.4559 4.854 0.225
53.4764 4.969 0.228
53.4968 5.427 0.238
53.5173 4.750 0.222
53.5378 5.250 0.234
53.5582 4.781 0.223
53.5787 4.917 0.226
53.5992 4.479 0.216
53.6196 5.208 0.233
53.6401 5.208 0.233
53.6605 5.292 0.235
53.6810 4.885 0.226
53.7015 5.167 0.232
53.7219 4.948 0.227
53.7424 4.688 0.221
53.7629 5.188 0.232
53.7833 4.635 0.220
53.8038 5.094 0.230
53.8242 5.302 0.235
53.8447 5.167 0.232
53.8652 5.094 0.230
53.8856 4.885 0.226
53.9061 5.260 0.234
53.9266 4.885 0.226
53.9470 4.792 0.223
53.9675 5.094 0.230
53.9879 4.615 0.219
54.0084 4.938 0.227
54.0289 5.135 0.231
54.0493 5.240 0.234
54.0698 4.927 0.227
54.0903 4.875 0.225
54.1107 5.115 0.231
54.1312 4.615 0.219
54.1516 5.208 0.233
54.1721 5.167 0.232
54.1926 5.302 0.235
54.2130 5.750 0.245
54.2335 5.344 0.236
54.2540 5.208 0.233
54.2744 5.510 0.240
54.2949 5.354 0.236
54.3154 5.188 0.232
54.3358 5.219 0.233
54.3563 5.177 0.232
54.3767 5.375 0.237
54.3972 5.344 0.236
54.4177 5.385 0.237
54.4381 4.875 0.225
54.4586 4.927 0.227
54.4791 4.833 0.224
54.4995 4.750 0.222
54.5200 5.115 0.231
54.5404 4.771 0.223
54.5609 4.906 0.226
54.5814 4.823 0.224
54.6018 4.938 0.227
54.6223 4.802 0.224
54.6428 4.542 0.218
54.6632 5.010 0.228
54.6837 4.583 0.219
54.7041 5.271 0.234
54.7246 5.396 0.237
54.7451 5.115 0.231
54.7655 4.750 0.222
54.7860 5.000 0.228
54.8065 4.771 0.223
54.8269 5.031 0.229
54.8474 5.042 0.229
54.8678 4.854 0.225
54.8883 4.865 0.225
54.9088 5.302 0.235
54.9292 4.760 0.223
54.9497 5.573 0.241
54.9702 4.938 0.227
54.9906 5.167 0.232
55.0111 5.510 0.240
55.0316 5.510 0.240
55.0520 5.844 0.247
55.0725 5.396 0.237
55.0929 5.917 0.248
55.1134 7.083 0.272
55.1339 6.323 0.257
55.1543 7.448 0.279
55.1748 8.260 0.293
55.1953 9.083 0.308
55.2157 10.844 0.336
55.2362 12.219 0.357
55.2566 12.219 0.357
55.2771 11.510 0.346
55.2976 10.583 0.332
55.3180 9.677 0.317
55.3385 9.292 0.311
55.3590 10.042 0.323
55.3794 10.500 0.331
55.3999 9.438 0.314
55.4203 9.760 0.319
55.4408 8.156 0.291
55.4613 8.073 0.290
55.4817 6.854 0.267
55.5022 7.375 0.277
55.5227 6.948 0.269
55.5431 6.000 0.250
55.5636 5.885 0.248
55.5840 5.792 0.246
55.6045 5.656 0.243
55.6250 5.500 0.239
55.6454 5.323 0.235
55.6659 5.177 0.232
55.6864 5.635 0.242
55.7068 5.583 0.241
55.7273 5.208 0.233
55.7477 5.354 0.236
55.7682 5.552 0.240
55.7887 5.531 0.240
55.8091 5.229 0.233
55.8296 5.583 0.241
55.8501 5.271 0.234
55.8705 6.271 0.256
55.8910 5.833 0.247
55.9115 6.125 0.253
55.9319 6.260 0.255
55.9524 6.281 0.256
55.9728 6.281 0.256
55.9933 5.844 0.247
56.0138 5.781 0.245
56.0342 6.302 0.256
56.0547 5.854 0.247
56.0752 5.969 0.249
56.0956 6.323 0.257
56.1161 6.010 0.250
56.1365 6.219 0.255
56.1570 6.979 0.270
56.1775 6.979 0.270
56.1979 7.167 0.273
56.2184 8.500 0.298
56.2389 9.354 0.312
56.2593 10.563 0.332
56.2798 10.260 0.327
56.3002 9.427 0.313
56.3207 8.490 0.297
56.3412 8.365 0.295
56.3616 7.313 0.276
56.3821 7.750 0.284
56.4026 7.969 0.288
56.4230 8.177 0.292
56.4435 7.563 0.281
56.4639 7.240 0.275
56.4844 6.365 0.257
56.5049 5.938 0.249
56.5253 5.990 0.250
56.5458 5.823 0.246
56.5663 5.448 0.238
56.5867 5.542 0.240
56.6072 4.896 0.226
56.6276 5.490 0.239
56.6481 4.594 0.219
56.6686 5.135 0.231
56.6890 4.969 0.228
56.7095 5.156 0.232
56.7300 4.833 0.224
56.7504 4.885 0.226
56.7709 5.135 0.231
56.7914 4.646 0.220
56.8118 5.000 0.228
56.8323 4.781 0.223
56.8527 4.823 0.224
56.8732 4.802 0.224
56.8937 4.458 0.216
56.9141 4.823 0.224
56.9346 4.781 0.223
56.9551 4.667 0.220
56.9755 4.302 0.212
56.9960 4.927 0.227
57.0164 4.583 0.219
57.0369 4.688 0.221
57.0574 4.688 0.221
57.0778 4.781 0.223
57.0983 4.531 0.217
57.1188 4.208 0.209
57.1392 4.750 0.222
57.1597 4.500 0.217
57.1801 4.719 0.222
57.2006 4.958 0.227
57.2211 4.490 0.216
57.2415 4.844 0.225
57.2620 4.625 0.219
57.2825 4.719 0.222
57.3029 4.854 0.225
57.3234 4.385 0.214
57.3438 4.719 0.222
57.3643 5.292 0.235
57.3848 4.979 0.228
57.4052 4.865 0.225
57.4257 4.625 0.219
57.4462 4.354 0.213
57.4666 4.938 0.227
57.4871 4.802 0.224
57.5075 4.833 0.224
57.5280 4.667 0.220
57.5485 4.729 0.222
57.5689 4.990 0.228
57.5894 4.948 0.227
57.6099 5.198 0.233
57.6303 4.865 0.225
57.6508 5.719 0.244
57.6713 4.802 0.224
57.6917 5.604 0.242
57.7122 5.281 0.235
57.7326 5.156 0.232
57.7531 5.208 0.233
57.7736 5.469 0.239
57.7940 5.302 0.235
57.8145 5.740 0.245
57.8350 5.604 0.242
57.8554 6.135 0.253
57.8759 6.302 0.256
57.8963 5.979 0.250
57.9168 6.573 0.262
57.9373 7.719 0.284
57.9577 8.135 0.291
57.9782 8.802 0.303
57.9987 8.479 0.297
58.0191 8.208 0.292
58.0396 8.125 0.291
58.0600 7.354 0.277
58.0805 7.302 0.276
58.1010 7.646 0.282
58.1214 7.365 0.277
58.1419 7.385 0.277
58.1624 6.885 0.268
58.1828 7.177 0.273
58.2033 6.417 0.259
58.2237 6.396 0.258
58.2442 5.677 0.243
58.2647 5.729 0.244
58.2851 5.115 0.231
58.3056 5.021 0.229
58.3261 5.000 0.228
58.3465 5.281 0.235
58.3670 5.177 0.232
58.3874 5.219 0.233
58.4079 5.469 0.239
58.4284 5.250 0.234
58.4488 5.125 0.231
58.4693 5.365 0.236
58.4898 5.021 0.229
58.5102 4.823 0.224
58.5307 4.313 0.212
58.5512 4.635 0.220
58.5716 5.198 0.233
58.5921 4.771 0.223
58.6125 4.896 0.226
58.6330 4.458 0.216
58.6535 5.125 0.231
58.6739 5.104 0.231
58.6944 5.052 0.229
58.7149 5.052 0.229
58.7353 4.573 0.218
58.7558 5.229 0.233
58.7762 4.823 0.224
58.7967 4.583 0.219
58.8172 4.771 0.223
58.8376 4.958 0.227
58.8581 4.938 0.227
58.8786 5.135 0.231
58.8990 5.417 0.238
58.9195 4.885 0.226
58.9399 5.000 0.228
58.9604 4.813 0.224
58.9809 5.063 0.230
59.0013 5.688 0.243
59.0218 5.021 0.229
59.0423 5.375 0.237
59.0627 5.135 0.231
59.0832 5.240 0.234
59.1036 5.438 0.238
59.1241 5.354 0.236
59.1446 5.552 0.240
59.1650 5.448 0.238
59.1855 5.635 0.242
59.2060 6.115 0.252
59.2264 6.594 0.262
59.2469 6.688 0.264
59.2674 6.594 0.262
59.2878 7.031 0.271
59.3083 6.635 0.263
59.3287 6.333 0.257
59.3492 6.573 0.262
59.3697 5.688 0.243
59.3901 6.333 0.257
59.4106 6.198 0.254
59.4311 6.188 0.254
59.4515 6.260 0.255
59.4720 5.479 0.239
59.4924 5.500 0.239
59.5129 4.990 0.228
59.5334 5.146 0.232
59.5538 5.344 0.236
59.5743 5.156 0.232
59.5948 4.823 0.224
59.6152 5.042 0.229
59.6357 4.958 0.227
59.6561 5.219 0.233
59.6766 5.115 0.231
59.6971 4.427 0.215
59.7175 5.385 0.237
59.7380 5.000 0.228
59.7585 5.167 0.232
59.7789 5.083 0.230
59.7994 5.240 0.234
59.8198 5.365 0.236
59.8403 5.052 0.229
59.8608 5.250 0.234
59.8812 5.813 0.246
59.9017 6.000 0.250
59.9222 6.385 0.258
59.9426 6.927 0.269
59.9631 6.635 0.263
59.9835 6.865 0.267
60.0040 6.302 0.256
60.0245 5.750 0.245
60.0449 5.604 0.242
60.0654 5.781 0.245
60.0859 6.521 0.261
60.1063 5.802 0.246
60.1268 5.958 0.249
60.1473 5.510 0.240
60.1677 5.198 0.233
60.1882 5.385 0.237
60.2086 5.208 0.233
60.2291 4.990 0.228
60.2496 5.313 0.235
60.2700 4.990 0.228
60.2905 4.875 0.225
60.3110 4.615 0.219
60.3314 4.469 0.216
60.3519 4.792 0.223
60.3723 4.281 0.211
60.3928 4.823 0.224
60.4133 4.844 0.225
60.4337 4.531 0.217
60.4542 4.354 0.213
60.4747 4.448 0.215
60.4951 4.865 0.225
60.5156 4.542 0.218
60.5360 4.135 0.208
60.5565 4.458 0.216
60.5770 4.667 0.220
60.5974 4.406 0.214
60.6179 4.719 0.222
60.6384 4.813 0.224
60.6588 4.781 0.223
60.6793 4.323 0.212
60.6997 4.469 0.216
60.7202 4.271 0.211
60.7407 4.802 0.224
60.7611 4.521 0.217
60.7816 4.542 0.218
60.8021 4.646 0.220
60.8225 4.490 0.216
60.8430 4.521 0.217
60.8634 4.417 0.214
60.8839 4.479 0.216
60.9044 4.698 0.221
60.9248 5.063 0.230
60.9453 4.656 0.220
60.9658 4.708 0.221
60.9862 4.656 0.220
61.0067 4.385 0.214
61.0272 4.927 0.227
61.0476 4.438 0.215
61.0681 4.854 0.225
61.0885 5.031 0.229
61.1090 4.646 0.220
61.1295 4.573 0.218
61.1499 3.875 0.201
61.1704 4.365 0.213
61.1909 4.135 0.208
61.2113 4.604 0.219
61.2318 4.365 0.213
61.2522 4.323 0.212
61.2727 4.240 0.210
61.2932 4.417 0.214
61.3136 4.302 0.212
61.3341 4.750 0.222
61.3546 4.115 0.207
61.3750 4.135 0.208
61.3955 4.458 0.216
61.4159 4.271 0.211
61.4364 4.604 0.219
61.4569 4.063 0.206
61.4773 4.354 0.213
61.4978 4.198 0.209
61.5183 4.052 0.205
61.5387 4.646 0.220
61.5592 4.344 0.213
61.5796 4.427 0.215
61.6001 4.531 0.217
61.6206 4.083 0.206
61.6410 4.219 0.210
61.6615 4.490 0.216
61.6820 4.115 0.207
61.7024 3.990 0.204
61.7229 4.250 0.210
61.7433 4.406 0.214
61.7638 4.375 0.213
61.7843 3.969 0.203
61.8047 4.052 0.205
61.8252 4.240 0.210
61.8457 4.573 0.218
61.8661 4.094 0.207
61.8866 4.479 0.216
61.9071 4.208 0.209
61.9275 4.219 0.210
61.9480 4.385 0.214
61.9684 4.208 0.209
61.9889 4.177 0.209
62.0094 4.406 0.214
62.0298 4.646 0.220
62.0503 4.427 0.215
62.0708 4.625 0.219
62.0912 4.063 0.206
62.1117 4.635 0.220
62.1321 5.146 0.232
62.1526 4.531 0.217
62.1731 5.531 0.240
62.1935 4.896 0.226
62.2140 5.521 0.240
62.2345 5.563 0.241
62.2549 5.344 0.236
62.2754 5.104 0.231
62.2958 4.813 0.224
62.3163 5.156 0.232
62.3368 4.594 0.219
62.3572 4.813 0.224
62.3777 4.948 0.227
62.3982 5.073 0.230
62.4186 4.396 0.214
62.4391 4.646 0.220
62.4595 4.615 0.219
62.4800 4.438 0.215
62.5005 4.000 0.204
62.5209 4.396 0.214
62.5414 4.500 0.217
62.5619 4.479 0.216
62.5823 3.990 0.204
62.6028 4.208 0.209
62.6232 4.521 0.217
62.6437 4.156 0.208
62.6642 4.333 0.212
62.6846 4.500 0.217
62.7051 4.281 0.211
62.7256 4.240 0.210
62.7460 4.313 0.212
62.7665 4.406 0.214
62.7870 4.031 0.205
62.8074 4.396 0.214
62.8279 4.260 0.211
62.8483 4.073 0.206
62.8688 3.969 0.203
62.8893 4.406 0.214
62.9097 3.969 0.203
62.9302 4.104 0.207
62.9507 4.021 0.205
62.9711 4.469 0.216
62.9916 4.448 0.215
63.0120 4.094 0.207
63.0325 4.250 0.210
63.0530 4.281 0.211
63.0734 4.344 0.213
63.0939 4.573 0.218
63.1144 4.760 0.223
63.1348 4.510 0.217
63.1553 4.365 0.213
63.1757 4.344 0.213
63.1962 4.479 0.216
63.2167 4.604 0.219
63.2371 4.323 0.212
63.2576 4.333 0.212
63.2781 4.885 0.226
63.2985 4.375 0.213
63.3190 4.927 0.227
63.3394 4.000 0.204
63.3599 4.427 0.215
63.3804 4.333 0.212
63.4008 4.417 0.214
63.4213 4.490 0.216
63.4418 4.500 0.217
63.4622 4.375 0.213
63.4827 4.438 0.215
63.5032 4.500 0.217
63.5236 4.708 0.221
63.5441 4.521 0.217
63.5645 4.740 0.222
63.5850 4.635 0.220
63.6055 4.740 0.222
63.6259 4.521 0.217
63.6464 4.646 0.220
63.6669 4.469 0.216
63.6873 4.313 0.212
63.7078 4.323 0.212
63.7282 4.688 0.221
63.7487 4.875 0.225
63.7692 4.542 0.218
63.7896 4.302 0.212
63.8101 4.667 0.220
63.8306 4.552 0.218
63.8510 4.896 0.226
63.8715 4.646 0.220
63.8919 4.792 0.223
63.9124 4.948 0.227
63.9329 4.469 0.216
63.9533 4.656 0.220
63.9738 5.031 0.229
63.9943 5.042 0.229
64.0147 5.073 0.230
64.0352 4.688 0.221
64.0556 5.063 0.230
64.0761 5.344 0.236
64.0966 5.000 0.228
64.1170 5.031 0.229
64.1375 5.042 0.229
64.1580 5.083 0.230
64.1784 5.219 0.233
64.1989 5.323 0.235
64.2193 4.990 0.228
64.2398 5.604 0.242
64.2603 5.260 0.234
64.2807 5.052 0.229
64.3012 5.188 0.232
64.3217 5.104 0.231
64.3421 5.000 0.228
64.3626 5.531 0.240
64.3831 5.271 0.234
64.4035 4.708 0.221
64.4240 5.042 0.229
64.4444 4.906 0.226
64.4649 5.219 0.233
64.4854 4.823 0.224
64.5058 5.031 0.229
64.5263 4.906 0.226
64.5468 5.323 0.235
64.5672 5.250 0.234
64.5877 5.698 0.244
64.6081 5.417 0.238
64.6286 5.604 0.242
64.6491 6.250 0.255
64.6695 6.823 0.267
64.6900 7.031 0.271
64.7105 6.719 0.265
64.7309 7.292 0.276
64.7514 6.740 0.265
64.7718 6.594 0.262
64.7923 6.885 0.268
64.8128 6.323 0.257
64.8332 6.208 0.254
64.8537 6.188 0.254
64.8742 6.531 0.261
64.8946 7.052 0.271
64.9151 6.552 0.261
64.9355 6.010 0.250
64.9560 5.594 0.241
64.9765 5.531 0.240
64.9969 5.615 0.242
65.0174 5.188 0.232
65.0379 4.615 0.219
65.0583 5.146 0.232
65.0788 4.521 0.217
65.0992 4.969 0.228
65.1197 4.635 0.220
65.1402 4.510 0.217
65.1606 4.792 0.223
65.1811 4.708 0.221
65.2016 4.500 0.217
65.2220 4.354 0.213
65.2425 4.469 0.216
65.2630 4.365 0.213
65.2834 4.708 0.221
65.3039 4.656 0.220
65.3243 4.885 0.226
65.3448 4.042 0.205
65.3653 4.406 0.214
65.3857 4.292 0.211
65.4062 4.698 0.221
65.4267 4.427 0.215
65.4471 4.198 0.209
65.4676 4.219 0.210
65.4880 4.688 0.221
65.5085 4.844 0.225
65.5290 4.292 0.211
65.5494 4.531 0.217
65.5699 4.948 0.227
65.5904 5.083 0.230
65.6108 5.063 0.230
65.6313 5.594 0.241
65.6517 5.292 0.235
65.6722 5.115 0.231
65.6927 5.521 0.240
65.7131 4.490 0.216
65.7336 4.896 0.226
65.7541 4.833 0.224
65.7745 4.323 0.212
65.7950 4.979 0.228
65.8154 4.875 0.225
65.8359 4.854 0.225
65.8564 4.865 0.225
65.8768 4.583 0.219
65.8973 4.542 0.218
65.9178 4.573 0.218
65.9382 4.313 0.212
65.9587 4.333 0.212
65.9791 4.344 0.213
65.9996 4.219 0.210
66.0201 4.271 0.211
66.0405 4.573 0.218
66.0610 4.313 0.212
66.0815 4.260 0.211
66.1019 4.313 0.212
66.1224 3.760 0.198
66.1429 4.031 0.205
66.1633 4.385 0.214
66.1838 4.167 0.208
66.2042 4.354 0.213
66.2247 4.125 0.207
66.2452 3.854 0.200
66.2656 4.104 0.207
66.2861 4.469 0.216
66.3066 3.906 0.202
66.3270 3.750 0.198
66.3475 4.167 0.208
66.3679 3.958 0.203
66.3884 4.073 0.206
66.4089 4.219 0.210
66.4293 3.833 0.200
66.4498 3.865 0.201
66.4703 3.813 0.199
66.4907 3.823 0.200
66.5112 4.167 0.208
66.5316 3.927 0.202
66.5521 3.771 0.198
66.5726 3.792 0.199
66.5930 3.740 0.197
66.6135 4.323 0.212
66.6340 3.979 0.204
66.6544 4.198 0.209
66.6749 4.240 0.210
66.6953 4.208 0.209
66.7158 4.042 0.205
66.7363 4.052 0.205
66.7567 4.073 0.206
66.7772 3.917 0.202
66.7977 4.260 0.211
66.8181 4.333 0.212
66.8386 4.115 0.207
66.8590 4.271 0.211
66.8795 4.604 0.219
66.9000 4.135 0.208
66.9204 4.729 0.222
66.9409 4.563 0.218
66.9614 4.677 0.221
66.9818 4.229 0.210
67.0023 4.000 0.204
67.0228 4.802 0.224
67.0432 4.865 0.225
67.0637 5.375 0.237
67.0841 5.167 0.232
67.1046 5.021 0.229
67.1251 5.563 0.241
67.1455 5.865 0.247
67.1660 6.323 0.257
67.1865 6.906 0.268
67.2069 7.198 0.274
67.2274 7.469 0.279
67.2478 7.271 0.275
67.2683 6.979 0.270
67.2888 6.510 0.260
67.3092 6.698 0.264
67.3297 5.958 0.249
67.3502 6.354 0.257
67.3706 6.281 0.256
67.3911 6.281 0.256
67.4115 6.115 0.252
67.4320 6.104 0.252
67.4525 5.750 0.245
67.4729 6.000 0.250
67.4934 5.125 0.231
67.5139 4.698 0.221
67.5343 5.260 0.234
67.5548 5.333 0.236
67.5752 4.990 0.228
67.5957 4.750 0.222
67.6162 4.490 0.216
67.6366 4.292 0.211
67.6571 4.375 0.213
67.6776 4.406 0.214
67.6980 4.615 0.219
67.7185 4.740 0.222
67.7389 4.167 0.208
67.7594 4.385 0.214
67.7799 4.302 0.212
67.8003 4.198 0.209
67.8208 4.646 0.220
67.8413 4.313 0.212
67.8617 4.031 0.205
67.8822 4.104 0.207
67.9027 4.458 0.216
67.9231 4.490 0.216
67.9436 4.646 0.220
67.9640 4.490 0.216
67.9845 4.677 0.221
68.0050 3.885 0.201
68.0254 4.573 0.218
68.0459 4.406 0.214
68.0664 4.479 0.216
68.0868 4.438 0.215
68.1073 4.719 0.222
68.1277 4.625 0.219
68.1482 4.635 0.220
68.1687 4.563 0.218
68.1891 4.344 0.213
68.2096 4.490 0.216
68.2301 4.625 0.219
68.2505 4.354 0.213
68.2710 4.615 0.219
68.2914 4.292 0.211
68.3119 4.323 0.212
68.3324 4.865 0.225
68.3528 4.615 0.219
68.3733 5.229 0.233
68.3938 4.667 0.220
68.4142 5.073 0.230
68.4347 5.427 0.238
68.4551 4.740 0.222
68.4756 5.000 0.228
68.4961 4.927 0.227
68.5165 4.625 0.219
68.5370 4.542 0.218
68.5575 4.573 0.218
68.5779 4.854 0.225
68.5984 4.708 0.221
68.6189 4.583 0.219
68.6393 4.177 0.209
68.6598 4.573 0.218
68.6802 4.438 0.215
68.7007 4.292 0.211
68.7212 4.104 0.207
68.7416 3.906 0.202
68.7621 4.063 0.206
68.7826 3.948 0.203
68.8030 4.260 0.211
68.8235 3.781 0.198
68.8439 4.073 0.206
68.8644 4.083 0.206
68.8849 4.490 0.216
68.9053 4.188 0.209
68.9258 4.302 0.212
68.9463 4.469 0.216
68.9667 4.240 0.210
68.9872 4.438 0.215
69.0076 4.844 0.225
69.0281 4.563 0.218
69.0486 4.646 0.220
69.0690 4.781 0.223
69.0895 4.823 0.224
69.1100 4.552 0.218
69.1304 4.708 0.221
69.1509 4.542 0.218
69.1713 4.719 0.222
69.1918 4.510 0.217
69.2123 4.469 0.216
69.2327 4.708 0.221
69.2532 4.635 0.220
69.2737 5.146 0.232
69.2941 5.156 0.232
69.3146 4.906 0.226
69.3350 4.906 0.226
69.3555 4.344 0.213
69.3760 5.010 0.228
69.3964 4.635 0.220
69.4169 3.885 0.201
69.4374 3.958 0.203
69.4578 4.302 0.212
69.4783 4.354 0.213
69.4988 4.208 0.209
69.5192 4.240 0.210
69.5397 4.177 0.209
69.5601 3.906 0.202
69.5806 3.688 0.196
69.6011 4.260 0.211
69.6215 3.958 0.203
69.6420 3.771 0.198
69.6625 4.031 0.205
69.6829 3.667 0.195
69.7034 3.740 0.197
69.7238 3.844 0.200
69.7443 3.573 0.193
69.7648 3.479 0.190
69.7852 3.490 0.191
69.8057 3.740 0.197
69.8262 3.917 0.202
69.8466 3.906 0.202
69.8671 3.844 0.200
69.8875 3.885 0.201
69.9080 3.729 0.197
69.9285 3.760 0.198
69.9489 3.708 0.197
69.9694 3.760 0.198
69.9899 3.604 0.194
70.0103 3.531 0.192
70.0308 3.740 0.197
70.0512 3.531 0.192
70.0717 3.802 0.199
70.0922 3.656 0.195
70.1126 3.927 0.202
70.1331 3.677 0.196
70.1536 3.667 0.195
70.1740 4.094 0.207
70.1945 3.531 0.192
70.2149 3.479 0.190
70.2354 3.844 0.200
70.2559 3.438 0.189
70.2763 3.344 0.187
70.2968 3.146 0.181
70.3173 3.708 0.197
70.3377 3.677 0.196
70.3582 3.865 0.201
70.3787 3.458 0.190
70.3991 3.469 0.190
70.4196 3.792 0.199
70.4400 3.604 0.194
70.4605 3.813 0.199
70.4810 3.177 0.182
70.5014 3.813 0.199
70.5219 3.948 0.203
70.5424 3.479 0.190
70.5628 3.656 0.195
70.5833 3.469 0.190
70.6037 3.833 0.200
70.6242 4.146 0.208
70.6447 4.000 0.204
70.6651 3.938 0.203
70.6856 3.979 0.204
70.7061 3.927 0.202
70.7265 3.604 0.194
70.7470 3.573 0.193
70.7674 3.323 0.186
70.7879 3.865 0.201
70.8084 3.302 0.185
70.8288 3.740 0.197
70.8493 3.448 0.190
70.8698 3.667 0.195
70.8902 3.490 0.191
70.9107 3.490 0.191
70.9311 3.354 0.187
70.9516 3.844 0.200
70.9721 4.052 0.205
70.9925 3.823 0.200
71.0130 3.354 0.187
71.0335 3.385 0.188
71.0539 3.604 0.194
71.0744 3.417 0.189
71.0948 3.615 0.194
71.1153 3.927 0.202
71.1358 3.875 0.201
71.1562 3.688 0.196
71.1767 3.677 0.196
71.1972 3.844 0.200
71.2176 3.969 0.203
71.2381 3.688 0.196
71.2586 3.646 0.195
71.2790 3.438 0.189
71.2995 3.417 0.189
71.3199 3.500 0.191
71.3404 3.417 0.189
71.3609 2.979 0.176
71.3813 3.698 0.196
71.4018 3.469 0.190
71.4223 3.323 0.186
71.4427 3.438 0.189
71.4632 3.292 0.185
71.4836 3.469 0.190
71.5041 3.688 0.196
71.5246 3.542 0.192
71.5450 3.458 0.190
71.5655 3.458 0.190
71.5860 2.990 0.176
71.6064 3.531 0.192
71.6269 3.333 0.186
71.6473 3.313 0.186
71.6678 3.740 0.197
71.6883 3.396 0.188
71.7087 3.708 0.197
71.7292 3.740 0.197
71.7497 3.615 0.194
71.7701 3.281 0.185
71.7906 3.302 0.185
71.8110 3.469 0.190
71.8315 3.365 0.187
71.8520 3.417 0.189
71.8724 3.385 0.188
71.8929 3.531 0.192
71.9134 3.417 0.189
71.9338 3.656 0.195
71.9543 3.323 0.186
71.9747 3.177 0.182
71.9952 3.875 0.201
72.0157 3.188 0.182
72.0361 3.479 0.190
72.0566 3.417 0.189
72.0771 3.198 0.183
72.0975 3.406 0.188
72.1180 3.615 0.194
72.1385 3.302 0.185
72.1589 3.396 0.188
72.1794 3.135 0.181
72.1998 3.271 0.185
72.2203 3.281 0.185
72.2408 3.385 0.188
72.2612 3.396 0.188
72.2817 3.167 0.182
72.3022 3.344 0.187
72.3226 3.240 0.184
72.3431 3.479 0.190
72.3635 3.365 0.187
72.3840 3.625 0.194
72.4045 3.385 0.188
72.4249 3.448 0.190
72.4454 3.469 0.190
72.4659 3.042 0.178
72.4863 3.531 0.192
72.5068 3.292 0.185
72.5272 3.354 0.187
72.5477 3.479 0.190
72.5682 3.240 0.184
72.5886 3.021 0.177
72.6091 3.469 0.190
72.6296 3.135 0.181
72.6500 3.667 0.195
72.6705 3.375 0.188
72.6909 3.479 0.190
72.7114 3.490 0.191
72.7319 3.344 0.187
72.7523 3.792 0.199
72.7728 3.427 0.189
72.7933 3.729 0.197
72.8137 3.531 0.192
72.8342 3.823 0.200
72.8547 3.771 0.198
72.8751 3.448 0.190
72.8956 4.052 0.205
72.9160 3.833 0.200
72.9365 3.802 0.199
72.9570 3.792 0.199
72.9774 4.104 0.207
72.9979 3.510 0.191
73.0184 3.573 0.193
73.0388 4.000 0.204
73.0593 3.573 0.193
73.0797 3.531 0.192
73.1002 3.396 0.188
73.1207 3.510 0.191
73.1411 3.458 0.190
73.1616 3.531 0.192
73.1821 3.469 0.190
73.2025 3.500 0.191
73.2230 3.177 0.182
73.2434 3.531 0.192
73.2639 3.250 0.184
73.2844 2.990 0.176
73.3048 3.417 0.189
73.3253 3.208 0.183
73.3458 3.250 0.184
73.3662 3.063 0.179
73.3867 3.417 0.189
73.4071 3.448 0.190
73.4276 3.365 0.187
73.4481 3.063 0.179
73.4685 3.229 0.183
73.4890 3.250 0.184
73.5095 3.250 0.184
73.5299 3.021 0.177
73.5504 3.104 0.180
73.5708 3.083 0.179
73.5913 3.115 0.180
73.6118 3.531 0.192
73.6322 3.333 0.186
73.6527 3.156 0.181
73.6732 3.531 0.192
73.6936 3.021 0.177
73.7141 3.521 0.192
73.7346 3.292 0.185
73.7550 3.313 0.186
73.7755 2.979 0.176
73.7959 3.448 0.190
73.8164 3.458 0.190
73.8369 3.375 0.188
73.8573 2.771 0.170
73.8778 3.115 0.180
73.8983 3.052 0.178
73.9187 3.208 0.183
73.9392 3.552 0.192
73.9596 3.656 0.195
73.9801 3.135 0.181
74.0006 3.500 0.191
74.0210 3.250 0.184
74.0415 3.448 0.190
74.0620 3.438 0.189
74.0824 3.292 0.185
74.1029 3.260 0.184
74.1233 3.479 0.190
74.1438 3.615 0.194
74.1643 3.406 0.188
74.1847 3.563 0.193
74.2052 3.167 0.182
74.2257 3.458 0.190
74.2461 3.135 0.181
74.2666 3.333 0.186
74.2870 3.479 0.190
74.3075 3.344 0.187
74.3280 3.208 0.183
74.3484 3.250 0.184
74.3689 3.167 0.182
74.3894 3.333 0.186
74.4098 3.521 0.192
74.4303 3.323 0.186
74.4507 3.031 0.178
74.4712 3.167 0.182
74.4917 3.448 0.190
74.5121 3.094 0.180
74.5326 3.156 0.181
74.5531 3.438 0.189
74.5735 3.167 0.182
74.5940 3.281 0.185
74.6145 3.094 0.180
74.6349 2.917 0.174
74.6554 3.458 0.190
74.6758 3.260 0.184
74.6963 2.969 0.176
74.7168 2.719 0.168
74.7372 3.302 0.185
74.7577 3.635 0.195
74.7782 3.063 0.179
74.7986 3.271 0.185
74.8191 3.115 0.180
74.8395 3.260 0.184
74.8600 2.948 0.175
74.8805 3.073 0.179
74.9009 3.031 0.178
74.9214 3.219 0.183
74.9419 3.167 0.182
74.9623 2.958 0.176
74.9828 3.583 0.193
75.0032 3.146 0.181
75.0237 3.365 0.187
75.0442 3.146 0.181
75.0646 3.115 0.180
75.0851 2.917 0.174
75.1056 3.146 0.181
75.1260 3.125 0.180
75.1465 2.875 0.173
75.1669 3.271 0.185
75.1874 3.240 0.184
75.2079 3.208 0.183
75.2283 3.500 0.191
75.2488 3.177 0.182
75.2693 3.198 0.183
75.2897 3.281 0.185
75.3102 3.083 0.179
75.3306 3.552 0.192
75.3511 3.563 0.193
75.3716 3.313 0.186
75.3920 3.344 0.187
75.4125 3.229 0.183
75.4330 3.219 0.183
75.4534 3.521 0.192
75.4739 3.844 0.200
75.4944 3.438 0.189
75.5148 3.552 0.192
75.5353 3.750 0.198
75.5557 3.250 0.184
75.5762 3.646 0.195
75.5967 3.406 0.188
75.6171 3.719 0.197
75.6376 3.448 0.190
75.6581 3.729 0.197
75.6785 3.573 0.193
75.6990 3.490 0.191
75.7194 3.896 0.201
75.7399 3.719 0.197
75.7604 4.021 0.205
75.7808 3.865 0.201
75.8013 3.833 0.200
75.8218 4.198 0.209
75.8422 4.094 0.207
75.8627 4.385 0.214
75.8831 4.115 0.207
75.9036 4.281 0.211
75.9241 4.083 0.206
75.9445 4.021 0.205
75.9650 3.875 0.201
75.9855 3.917 0.202
76.0059 3.927 0.202
76.0264 4.198 0.209
76.0468 3.833 0.200
76.0673 4.396 0.214
76.0878 4.219 0.210
76.1082 4.188 0.209
76.1287 4.104 0.207
76.1492 3.865 0.201
76.1696 3.719 0.197
76.1901 3.979 0.204
76.2105 3.781 0.198
76.2310 3.500 0.191
76.2515 3.740 0.197
76.2719 3.604 0.194
76.2924 3.510 0.191
76.3129 3.156 0.181
76.3333 3.375 0.188
76.3538 3.458 0.190
76.3743 3.719 0.197
76.3947 3.104 0.180
76.4152 3.302 0.185
76.4356 3.229 0.183
76.4561 3.135 0.181
76.4766 3.052 0.178
76.4970 3.365 0.187
76.5175 3.594 0.193
76.5380 3.229 0.183
76.5584 3.396 0.188
76.5789 3.406 0.188
76.5993 3.375 0.188
76.6198 3.354 0.187
76.6403 3.458 0.190
76.6607 3.573 0.193
76.6812 3.094 0.180
76.7017 3.250 0.184
76.7221 3.021 0.177
76.7426 3.052 0.178
76.7630 3.552 0.192
76.7835 3.271 0.185
76.8040 3.198 0.183
76.8244 3.302 0.185
76.8449 3.500 0.191
76.8654 3.219 0.183
76.8858 3.365 0.187
76.9063 3.271 0.185
76.9267 3.438 0.189
76.9472 3.625 0.194
76.9677 3.313 0.186
76.9881 3.198 0.183
77.0086 3.333 0.186
77.0291 3.083 0.179
77.0495 3.281 0.185
77.0700 3.063 0.179
77.0905 3.479 0.190
77.1109 3.438 0.189
77.1314 3.438 0.189
77.1518 3.292 0.185
77.1723 3.177 0.182
77.1928 3.438 0.189
77.2132 3.115 0.180
77.2337 3.667 0.195
77.2542 3.323 0.186
77.2746 3.104 0.180
77.2951 3.448 0.190
77.3155 3.375 0.188
77.3360 3.438 0.189
77.3565 3.583 0.193
77.3769 3.573 0.193
77.3974 3.240 0.184
77.4179 3.760 0.198
77.4383 3.729 0.197
77.4588 3.188 0.182
77.4792 3.552 0.192
77.4997 3.333 0.186
77.5202 3.615 0.194
77.5406 3.490 0.191
77.5611 3.708 0.197
77.5816 3.958 0.203
77.6020 3.938 0.203
77.6225 3.542 0.192
77.6429 4.021 0.205
77.6634 3.552 0.192
77.6839 4.052 0.205
77.7043 3.615 0.194
77.7248 3.406 0.188
77.7453 3.708 0.197
77.7657 4.000 0.204
77.7862 3.813 0.199
77.8066 3.583 0.193
77.8271 3.833 0.200
77.8476 4.031 0.205
77.8680 4.281 0.211
77.8885 4.083 0.206
77.9090 3.469 0.190
77.9294 3.542 0.192
77.9499 3.854 0.200
77.9704 3.677 0.196
77.9908 3.760 0.198
78.0113 3.323 0.186
78.0317 3.354 0.187
78.0522 3.188 0.182
78.0727 3.667 0.195
78.0931 3.750 0.198
78.1136 3.438 0.189
78.1341 3.604 0.194
78.1545 3.281 0.185
78.1750 3.594 0.193
78.1954 3.396 0.188
78.2159 3.156 0.181
78.2364 3.479 0.190
78.2568 3.104 0.180
78.2773 3.438 0.189
78.2978 3.427 0.189
78.3182 3.563 0.193
78.3387 2.979 0.176
78.3591 4.094 0.207
78.3796 3.406 0.188
78.4001 3.104 0.180
78.4205 3.656 0.195
78.4410 3.094 0.180
78.4615 3.635 0.195
78.4819 3.448 0.190
78.5024 3.792 0.199
78.5228 3.729 0.197
78.5433 3.656 0.195
78.5638 3.156 0.181
78.5842 3.479 0.190
78.6047 3.594 0.193
78.6252 3.469 0.190
78.6456 3.740 0.197
78.6661 3.677 0.196
78.6865 3.698 0.196
78.7070 3.396 0.188
78.7275 3.188 0.182
78.7479 3.375 0.188
78.7684 3.448 0.190
78.7889 3.396 0.188
78.8093 3.177 0.182
78.8298 3.802 0.199
78.8503 3.646 0.195
78.8707 3.490 0.191
78.8912 3.438 0.189
78.9116 3.396 0.188
78.9321 3.625 0.194
78.9526 3.458 0.190
78.9730 3.229 0.183
78.9935 3.490 0.191
79.0140 3.313 0.186
79.0344 3.198 0.183
79.0549 3.198 0.183
79.0753 3.240 0.184
79.0958 3.625 0.194
79.1163 3.531 0.192
79.1367 3.917 0.202
79.1572 3.448 0.190
79.1777 3.542 0.192
79.1981 3.438 0.189
79.2186 3.323 0.186
79.2390 3.375 0.188
79.2595 3.354 0.187
79.2800 3.292 0.185
79.3004 3.240 0.184
79.3209 3.771 0.198
79.3414 3.438 0.189
79.3618 3.198 0.183
79.3823 3.135 0.181
79.4027 3.573 0.193
79.4232 3.646 0.195
79.4437 3.177 0.182
79.4641 3.083 0.179
79.4846 3.479 0.190
79.5051 2.927 0.175
79.5255 3.521 0.192
79.5460 3.365 0.187
79.5664 3.740 0.197
79.5869 3.771 0.198
79.6074 3.896 0.201
79.6278 3.813 0.199
79.6483 3.583 0.193
79.6688 3.792 0.199
79.6892 3.823 0.200
79.7097 3.750 0.198
79.7302 3.417 0.189
79.7506 3.510 0.191
79.7711 3.542 0.192
79.7915 3.417 0.189
79.8120 3.615 0.194
79.8325 3.365 0.187
79.8529 3.698 0.196
79.8734 3.219 0.183
79.8939 3.302 0.185
79.9143 3.406 0.188
79.9348 3.115 0.180
79.9552 2.917 0.174
79.9757 3.417 0.189
79.9962 3.240 0.184
