'Id: "" Comment: "" Operator: "Lab Manager" Anode: "Cu" Scantype: "Locked Coupled" TimePerStep: "96" X: "0" Y: "0" Z: "0" 
5.0000 26.583 0.526
5.0205 27.469 0.535
5.0409 26.281 0.523
5.0614 27.198 0.532
5.0819 26.479 0.525
5.1023 26.760 0.528
5.1228 26.844 0.529
5.1432 27.625 0.536
5.1637 27.719 0.537
5.1842 26.198 0.522
5.2046 26.875 0.529
5.2251 26.813 0.528
5.2456 26.542 0.526
5.2660 27.250 0.533
5.2865 26.500 0.525
5.3069 26.438 0.525
5.3274 27.354 0.534
5.3479 26.646 0.527
5.3683 26.875 0.529
5.3888 27.073 0.531
5.4093 26.948 0.530
5.4297 27.063 0.531
5.4502 26.646 0.527
5.4706 27.438 0.535
5.4911 26.146 0.522
5.5116 27.573 0.536
5.5320 27.396 0.534
5.5525 27.094 0.531
5.5730 27.771 0.538
5.5934 27.854 0.539
5.6139 27.938 0.539
5.6343 27.656 0.537
5.6548 27.573 0.536
5.6753 28.688 0.547
5.6957 28.354 0.543
5.7162 28.958 0.549
5.7367 28.875 0.548
5.7571 30.594 0.565
5.7776 30.448 0.563
5.7980 30.594 0.565
5.8185 30.823 0.567
5.8390 31.990 0.577
5.8594 33.271 0.589
5.8799 33.292 0.589
5.9004 34.198 0.597
5.9208 35.552 0.609
5.9413 36.073 0.613
5.9618 38.313 0.632
5.9822 39.354 0.640
6.0027 40.240 0.647
6.0231 43.281 0.671
6.0436 43.521 0.673
6.0641 45.354 0.687
6.0845 48.073 0.708
6.1050 48.521 0.711
6.1255 51.542 0.733
6.1459 53.448 0.746
6.1664 56.188 0.765
6.1868 57.208 0.772
6.2073 58.510 0.781
6.2278 58.365 0.780
6.2482 56.344 0.766
6.2687 55.521 0.760
6.2892 53.677 0.748
6.3096 52.115 0.737
6.3301 50.875 0.728
6.3505 48.344 0.710
6.3710 48.510 0.711
6.3915 45.073 0.685
6.4119 44.635 0.682
6.4324 42.740 0.667
6.4529 41.219 0.655
6.4733 39.094 0.638
6.4938 38.469 0.633
6.5142 35.969 0.612
6.5347 35.333 0.607
6.5552 35.042 0.604
6.5756 33.813 0.593
6.5961 32.719 0.584
6.6166 32.990 0.586
6.6370 32.417 0.581
6.6575 33.240 0.588
6.6779 30.438 0.563
6.6984 30.042 0.559
6.7189 31.104 0.569
6.7393 28.510 0.545
6.7598 30.208 0.561
6.7803 29.302 0.552
6.8007 28.729 0.547
6.8212 28.896 0.549
6.8417 29.031 0.550
6.8621 27.781 0.538
6.8826 28.302 0.543
6.9030 28.469 0.545
6.9235 27.042 0.531
6.9440 26.635 0.527
6.9644 27.479 0.535
6.9849 27.427 0.535
7.0054 27.229 0.533
7.0258 27.417 0.534
7.0463 26.438 0.525
7.0667 26.740 0.528
7.0872 27.229 0.533
7.1077 26.667 0.527
7.1281 26.010 0.521
7.1486 26.260 0.523
7.1691 26.563 0.526
7.1895 24.677 0.507
7.2100 25.510 0.515
7.2304 25.729 0.518
7.2509 25.896 0.519
7.2714 26.021 0.521
7.2918 25.688 0.517
7.3123 25.594 0.516
7.3328 25.188 0.512
7.3532 25.521 0.516
7.3737 26.229 0.523
7.3941 26.188 0.522
7.4146 25.177 0.512
7.4351 25.073 0.511
7.4555 25.021 0.511
7.4760 25.958 0.520
7.4965 25.115 0.511
7.5169 25.365 0.514
7.5374 25.333 0.514
7.5579 25.156 0.512
7.5783 25.302 0.513
7.5988 25.958 0.520
7.6192 24.354 0.504
7.6397 24.365 0.504
7.6602 24.656 0.507
7.6806 25.417 0.515
7.7011 25.719 0.518
7.7216 25.302 0.513
7.7420 24.656 0.507
7.7625 24.917 0.509
7.7829 24.760 0.508
7.8034 26.000 0.520
7.8239 25.396 0.514
7.8443 25.500 0.515
7.8648 25.781 0.518
7.8853 24.365 0.504
7.9057 25.490 0.515
7.9262 25.031 0.511
7.9466 25.438 0.515
7.9671 24.500 0.505
7.9876 24.573 0.506
8.0080 25.844 0.519
8.0285 25.260 0.513
8.0490 25.990 0.520
8.0694 26.063 0.521
8.0899 25.771 0.518
8.1103 25.781 0.518
8.1308 25.521 0.516
8.1513 26.083 0.521
8.1717 27.073 0.531
8.1922 27.448 0.535
8.2127 26.979 0.530
8.2331 27.802 0.538
8.2536 26.729 0.528
8.2740 27.094 0.531
8.2945 26.240 0.523
8.3150 26.146 0.522
8.3354 26.313 0.524
8.3559 26.313 0.524
8.3764 25.427 0.515
8.3968 25.885 0.519
8.4173 25.646 0.517
8.4378 25.510 0.515
8.4582 25.490 0.515
8.4787 25.469 0.515
8.4991 26.073 0.521
8.5196 25.365 0.514
8.5401 25.292 0.513
8.5605 24.875 0.509
8.5810 24.927 0.510
8.6015 25.250 0.513
8.6219 25.479 0.515
8.6424 24.917 0.509
8.6628 25.448 0.515
8.6833 25.677 0.517
8.7038 26.229 0.523
8.7242 27.198 0.532
8.7447 27.208 0.532
8.7652 28.167 0.542
8.7856 30.115 0.560
8.8061 30.188 0.561
8.8265 32.229 0.579
8.8470 33.542 0.591
8.8675 34.510 0.600
8.8879 37.135 0.622
8.9084 39.708 0.643
8.9289 43.167 0.671
8.9493 50.260 0.724
8.9698 63.667 0.814
8.9902 82.531 0.927
9.0107 118.542 1.111
9.0312 172.458 1.340
9.0516 242.302 1.589
9.0721 292.750 1.746
9.0926 238.031 1.575
9.1130 137.906 1.199
9.1335 71.448 0.863
9.1539 45.979 0.692
9.1744 36.615 0.618
9.1949 33.438 0.590
9.2153 33.229 0.588
9.2358 32.156 0.579
9.2563 32.406 0.581
9.2767 32.896 0.585
9.2972 30.417 0.563
9.3177 29.490 0.554
9.3381 28.000 0.540
9.3586 27.906 0.539
9.3790 27.958 0.540
9.3995 25.771 0.518
9.4200 26.552 0.526
9.4404 26.458 0.525
9.4609 27.396 0.534
9.4814 26.500 0.525
9.5018 25.792 0.518
9.5223 27.917 0.539
9.5427 25.750 0.518
9.5632 26.729 0.528
9.5837 26.292 0.523
9.6041 26.896 0.529
9.6246 26.740 0.528
9.6451 27.083 0.531
9.6655 26.969 0.530
9.6860 27.615 0.536
9.7064 28.167 0.542
9.7269 28.042 0.540
9.7474 30.240 0.561
9.7678 30.146 0.560
9.7883 32.250 0.580
9.8088 34.781 0.602
9.8292 37.760 0.627
9.8497 37.083 0.622
9.8701 37.990 0.629
9.8906 35.802 0.611
9.9111 33.656 0.592
9.9315 34.063 0.596
9.9520 35.552 0.609
9.9725 35.021 0.604
9.9929 32.375 0.581
10.0134 31.333 0.571
10.0338 28.479 0.545
10.0543 26.729 0.528
10.0748 26.208 0.522
10.0952 26.188 0.522
10.1157 25.521 0.516
10.1362 24.427 0.504
10.1566 24.667 0.507
10.1771 24.969 0.510
10.1976 24.521 0.505
10.2180 24.854 0.509
10.2385 23.979 0.500
10.2589 24.823 0.508
10.2794 24.094 0.501
10.2999 24.333 0.503
10.3203 23.542 0.495
10.3408 24.406 0.504
10.3613 23.125 0.491
10.3817 23.500 0.495
10.4022 23.646 0.496
10.4226 23.990 0.500
10.4431 22.813 0.487
10.4636 23.313 0.493
10.4840 22.583 0.485
10.5045 22.406 0.483
10.5250 24.448 0.505
10.5454 23.469 0.494
10.5659 22.302 0.482
10.5863 23.375 0.493
10.6068 23.458 0.494
10.6273 22.656 0.486
10.6477 22.875 0.488
10.6682 22.760 0.487
10.6887 23.135 0.491
10.7091 23.219 0.492
10.7296 22.594 0.485
10.7500 22.667 0.486
10.7705 22.490 0.484
10.7910 21.552 0.474
10.8114 21.792 0.476
10.8319 22.438 0.483
10.8524 21.740 0.476
10.8728 22.625 0.485
10.8933 22.396 0.483
10.9137 22.542 0.485
10.9342 22.479 0.484
10.9547 21.938 0.478
10.9751 22.229 0.481
10.9956 22.510 0.484
11.0161 22.229 0.481
11.0365 22.083 0.480
11.0570 21.948 0.478
11.0775 21.510 0.473
11.0979 22.656 0.486
11.1184 22.083 0.480
11.1388 22.198 0.481
11.1593 22.417 0.483
11.1798 21.625 0.475
11.2002 21.833 0.477
11.2207 21.292 0.471
11.2412 22.188 0.481
11.2616 22.260 0.482
11.2821 20.510 0.462
11.3025 21.458 0.473
11.3230 21.281 0.471
11.3435 22.146 0.480
11.3639 21.760 0.476
11.3844 21.865 0.477
11.4049 21.792 0.476
11.4253 21.740 0.476
11.4458 20.583 0.463
11.4662 21.250 0.470
11.4867 22.042 0.479
11.5072 21.979 0.478
11.5276 21.875 0.477
11.5481 21.635 0.475
11.5686 22.167 0.481
11.5890 21.219 0.470
11.6095 21.917 0.478
11.6299 21.406 0.472
11.6504 21.760 0.476
11.6709 21.708 0.476
11.6913 22.146 0.480
11.7118 22.229 0.481
11.7323 21.438 0.473
11.7527 21.135 0.469
11.7732 21.979 0.478
11.7937 22.417 0.483
11.8141 22.792 0.487
11.8346 23.708 0.497
11.8550 22.719 0.486
11.8755 23.125 0.491
11.8960 23.906 0.499
11.9164 24.000 0.500
11.9369 25.406 0.514
11.9574 25.615 0.517
11.9778 26.260 0.523
11.9983 26.844 0.529
12.0187 29.156 0.551
12.0392 28.896 0.549
12.0597 30.646 0.565
12.0801 31.792 0.575
12.1006 33.938 0.595
12.1211 35.583 0.609
12.1415 36.990 0.621
12.1620 38.677 0.635
12.1824 42.458 0.665
12.2029 45.365 0.687
12.2234 47.542 0.704
12.2438 50.271 0.724
12.2643 52.885 0.742
12.2848 54.448 0.753
12.3052 55.729 0.762
12.3257 53.427 0.746
12.3461 51.750 0.734
12.3666 48.010 0.707
12.3871 45.844 0.691
12.4075 45.063 0.685
12.4280 43.896 0.676
12.4485 41.698 0.659
12.4689 39.885 0.645
12.4894 38.510 0.633
12.5098 35.552 0.609
12.5303 33.292 0.589
12.5508 32.906 0.585
12.5712 31.583 0.574
12.5917 29.635 0.556
12.6122 28.208 0.542
12.6326 28.208 0.542
12.6531 27.365 0.534
12.6736 26.740 0.528
12.6940 25.792 0.518
12.7145 25.292 0.513
12.7349 25.135 0.512
12.7554 23.771 0.498
12.7759 23.948 0.499
12.7963 22.594 0.485
12.8168 22.260 0.482
12.8373 22.229 0.481
12.8577 21.771 0.476
12.8782 20.938 0.467
12.8986 20.406 0.461
12.9191 19.708 0.453
12.9396 19.500 0.451
12.9600 18.729 0.442
12.9805 19.188 0.447
13.0010 18.646 0.441
13.0214 18.354 0.437
13.0419 17.604 0.428
13.0623 18.448 0.438
13.0828 18.740 0.442
13.1033 18.448 0.438
13.1237 17.333 0.425
13.1442 18.000 0.433
13.1647 17.583 0.428
13.1851 16.813 0.418
13.2056 17.906 0.432
13.2260 17.323 0.425
13.2465 16.323 0.412
13.2670 16.646 0.416
13.2874 16.771 0.418
13.3079 16.177 0.411
13.3284 16.323 0.412
13.3488 17.125 0.422
13.3693 16.771 0.418
13.3897 16.292 0.412
13.4102 15.771 0.405
13.4307 16.365 0.413
13.4511 16.094 0.409
13.4716 15.385 0.400
13.4921 15.229 0.398
13.5125 15.229 0.398
13.5330 16.031 0.409
13.5535 15.781 0.405
13.5739 15.802 0.406
13.5944 15.958 0.408
13.6148 15.438 0.401
13.6353 15.010 0.395
13.6558 15.344 0.400
13.6762 14.792 0.393
13.6967 15.344 0.400
13.7172 15.292 0.399
13.7376 14.448 0.388
13.7581 15.052 0.396
13.7785 15.354 0.400
13.7990 14.948 0.395
13.8195 14.813 0.393
13.8399 14.646 0.391
13.8604 14.563 0.389
13.8809 14.823 0.393
13.9013 15.146 0.397
13.9218 14.469 0.388
13.9422 14.938 0.394
13.9627 14.219 0.385
13.9832 14.458 0.388
14.0036 14.063 0.383
14.0241 14.677 0.391
14.0446 14.323 0.386
14.0650 14.552 0.389
14.0855 14.375 0.387
14.1059 13.479 0.375
14.1264 13.510 0.375
14.1469 13.927 0.381
14.1673 14.156 0.384
14.1878 15.229 0.398
14.2083 14.302 0.386
14.2287 14.406 0.387
14.2492 14.635 0.390
14.2696 14.354 0.387
14.2901 12.854 0.366
14.3106 13.750 0.378
14.3310 13.458 0.374
14.3515 13.573 0.376
14.3720 13.865 0.380
14.3924 14.031 0.382
14.4129 12.958 0.367
14.4334 13.594 0.376
14.4538 13.573 0.376
14.4743 13.208 0.371
14.4947 12.833 0.366
14.5152 13.188 0.371
14.5357 12.875 0.366
14.5561 13.302 0.372
14.5766 13.010 0.368
14.5971 13.250 0.372
14.6175 13.479 0.375
14.6380 13.094 0.369
14.6584 13.031 0.368
14.6789 12.896 0.367
14.6994 13.021 0.368
14.7198 13.271 0.372
14.7403 13.042 0.369
14.7608 13.563 0.376
14.7812 13.146 0.370
14.8017 13.146 0.370
14.8221 12.896 0.367
14.8426 13.333 0.373
14.8631 13.323 0.373
14.8835 12.969 0.368
14.9040 12.469 0.360
14.9245 12.188 0.356
14.9449 12.865 0.366
14.9654 12.354 0.359
14.9858 12.896 0.367
15.0063 13.615 0.377
15.0268 13.115 0.370
15.0472 13.271 0.372
15.0677 12.510 0.361
15.0882 12.604 0.362
15.1086 12.906 0.367
15.1291 12.354 0.359
15.1495 13.521 0.375
15.1700 13.219 0.371
15.1905 13.281 0.372
15.2109 14.094 0.383
15.2314 14.083 0.383
15.2519 13.615 0.377
15.2723 14.615 0.390
15.2928 15.521 0.402
15.3133 16.042 0.409
15.3337 16.531 0.415
15.3542 17.208 0.423
15.3746 16.917 0.420
15.3951 16.740 0.418
15.4156 14.063 0.383
15.4360 15.083 0.396
15.4565 14.969 0.395
15.4770 15.063 0.396
15.4974 14.719 0.392
15.5179 15.406 0.401
15.5383 16.063 0.409
15.5588 16.313 0.412
15.5793 16.052 0.409
15.5997 17.938 0.432
15.6202 20.083 0.457
15.6407 23.979 0.500
15.6611 29.552 0.555
15.6816 44.625 0.682
15.7020 66.177 0.830
15.7225 98.500 1.013
15.7430 124.781 1.140
15.7634 116.771 1.103
15.7839 87.979 0.957
15.8044 58.854 0.783
15.8248 33.417 0.590
15.8453 21.844 0.477
15.8657 18.385 0.438
15.8862 17.375 0.425
15.9067 16.229 0.411
15.9271 15.750 0.405
15.9476 15.865 0.407
15.9681 15.365 0.400
15.9885 14.583 0.390
16.0090 14.750 0.392
16.0295 14.135 0.384
16.0499 14.094 0.383
16.0704 13.719 0.378
16.0908 13.417 0.374
16.1113 13.021 0.368
16.1318 13.135 0.370
16.1522 13.021 0.368
16.1727 13.458 0.374
16.1932 13.802 0.379
16.2136 13.365 0.373
16.2341 13.906 0.381
16.2545 14.333 0.386
16.2750 13.469 0.375
16.2955 13.646 0.377
16.3159 13.302 0.372
16.3364 13.906 0.381
16.3569 13.563 0.376
16.3773 14.042 0.382
16.3978 13.781 0.379
16.4182 14.552 0.389
16.4387 13.781 0.379
16.4592 13.927 0.381
16.4796 14.688 0.391
16.5001 14.198 0.385
16.5206 14.271 0.386
16.5410 14.313 0.386
16.5615 14.135 0.384
16.5819 13.833 0.380
16.6024 13.844 0.380
16.6229 13.198 0.371
16.6433 12.469 0.360
16.6638 13.875 0.380
16.6843 13.760 0.379
16.7047 12.760 0.365
16.7252 13.396 0.374
16.7456 13.198 0.371
16.7661 13.500 0.375
16.7866 13.563 0.376
16.8070 13.760 0.379
16.8275 13.458 0.374
16.8480 13.302 0.372
16.8684 13.323 0.373
16.8889 13.625 0.377
16.9094 12.427 0.360
16.9298 12.552 0.362
16.9503 12.781 0.365
16.9707 12.854 0.366
16.9912 13.177 0.370
17.0117 12.771 0.365
17.0321 13.177 0.370
17.0526 13.042 0.369
17.0731 13.625 0.377
17.0935 12.760 0.365
17.1140 13.323 0.373
17.1344 12.917 0.367
17.1549 12.948 0.367
17.1754 13.563 0.376
17.1958 12.510 0.361
17.2163 13.302 0.372
17.2368 13.396 0.374
17.2572 14.281 0.386
17.2777 13.281 0.372
17.2981 12.875 0.366
17.3186 13.177 0.370
17.3391 13.094 0.369
17.3595 13.302 0.372
17.3800 14.083 0.383
17.4005 14.167 0.384
17.4209 13.969 0.381
17.4414 13.500 0.375
17.4618 13.948 0.381
17.4823 13.781 0.379
17.5028 13.125 0.370
17.5232 13.938 0.381
17.5437 14.063 0.383
17.5642 14.542 0.389
17.5846 14.104 0.383
17.6051 14.823 0.393
17.6255 14.667 0.391
17.6460 14.740 0.392
17.6665 15.927 0.407
17.6869 16.823 0.419
17.7074 16.917 0.420
17.7279 20.094 0.458
17.7483 23.188 0.491
17.7688 28.917 0.549
17.7893 31.563 0.573
17.8097 31.719 0.575
17.8302 26.844 0.529
17.8506 21.844 0.477
17.8711 19.167 0.447
17.8916 17.219 0.424
17.9120 15.854 0.406
17.9325 15.135 0.397
17.9530 14.844 0.393
17.9734 14.448 0.388
17.9939 14.938 0.394
18.0143 15.573 0.403
18.0348 15.365 0.400
18.0553 14.406 0.387
18.0757 15.417 0.401
18.0962 15.250 0.399
18.1167 15.115 0.397
18.1371 16.875 0.419
18.1576 17.427 0.426
18.1780 19.042 0.445
18.1985 21.365 0.472
18.2190 21.573 0.474
18.2394 19.146 0.447
18.2599 18.927 0.444
18.2804 17.031 0.421
18.3008 16.010 0.408
18.3213 15.354 0.400
18.3417 15.885 0.407
18.3622 16.042 0.409
18.3827 16.073 0.409
18.4031 15.115 0.397
18.4236 15.719 0.405
18.4441 14.938 0.394
18.4645 15.802 0.406
18.4850 15.031 0.396
18.5054 15.448 0.401
18.5259 15.604 0.403
18.5464 15.771 0.405
18.5668 15.333 0.400
18.5873 16.260 0.412
18.6078 16.781 0.418
18.6282 16.948 0.420
18.6487 17.469 0.427
18.6692 18.250 0.436
18.6896 18.042 0.434
18.7101 17.500 0.427
18.7305 18.875 0.443
18.7510 18.927 0.444
18.7715 21.479 0.473
18.7919 25.021 0.511
18.8124 30.896 0.567
18.8329 40.865 0.652
18.8533 45.250 0.687
18.8738 41.583 0.658
18.8942 34.677 0.601
18.9147 28.719 0.547
18.9352 22.552 0.485
18.9556 18.677 0.441
18.9761 17.021 0.421
18.9966 16.583 0.416
19.0170 15.063 0.396
19.0375 14.865 0.393
19.0579 15.896 0.407
19.0784 14.563 0.389
19.0989 14.406 0.387
19.1193 13.490 0.375
19.1398 14.063 0.383
19.1603 13.563 0.376
19.1807 13.438 0.374
19.2012 13.250 0.372
19.2216 13.833 0.380
19.2421 13.708 0.378
19.2626 13.708 0.378
19.2830 13.458 0.374
19.3035 13.906 0.381
19.3240 13.219 0.371
19.3444 13.625 0.377
19.3649 13.500 0.375
19.3853 13.458 0.374
19.4058 12.979 0.368
19.4263 12.958 0.367
19.4467 13.323 0.373
19.4672 13.458 0.374
19.4877 13.052 0.369
19.5081 13.656 0.377
19.5286 13.552 0.376
19.5491 14.292 0.386
19.5695 13.146 0.370
19.5900 14.292 0.386
19.6104 13.688 0.378
19.6309 14.229 0.385
19.6514 14.177 0.384
19.6718 14.115 0.383
19.6923 13.990 0.382
19.7128 14.625 0.390
19.7332 13.990 0.382
19.7537 15.115 0.397
19.7741 15.708 0.405
19.7946 15.010 0.395
19.8151 14.875 0.394
19.8355 14.333 0.386
19.8560 13.927 0.381
19.8765 13.719 0.378
19.8969 13.490 0.375
19.9174 13.625 0.377
19.9378 14.125 0.384
19.9583 13.865 0.380
19.9788 13.792 0.379
19.9992 13.375 0.373
20.0197 14.135 0.384
20.0402 13.708 0.378
20.0606 13.448 0.374
20.0811 13.969 0.381
20.1015 13.438 0.374
20.1220 12.833 0.366
20.1425 13.271 0.372
20.1629 13.896 0.380
20.1834 13.552 0.376
20.2039 14.073 0.383
20.2243 13.740 0.378
20.2448 13.958 0.381
20.2653 13.896 0.380
20.2857 14.063 0.383
20.3062 13.573 0.376
20.3266 14.688 0.391
20.3471 13.885 0.380
20.3676 13.469 0.375
20.3880 14.500 0.389
20.4085 13.750 0.378
20.4290 13.552 0.376
20.4494 14.490 0.389
20.4699 13.896 0.380
20.4903 13.469 0.375
20.5108 13.125 0.370
20.5313 13.635 0.377
20.5517 13.219 0.371
20.5722 14.344 0.387
20.5927 13.021 0.368
20.6131 13.000 0.368
20.6336 13.417 0.374
20.6540 12.729 0.364
20.6745 12.333 0.358
20.6950 13.344 0.373
20.7154 12.615 0.362
20.7359 11.979 0.353
20.7564 12.563 0.362
20.7768 12.240 0.357
20.7973 12.250 0.357
20.8177 12.438 0.360
20.8382 11.146 0.341
20.8587 11.438 0.345
20.8791 12.188 0.356
20.8996 11.219 0.342
20.9201 11.979 0.353
20.9405 11.854 0.351
20.9610 11.563 0.347
20.9814 11.708 0.349
21.0019 11.156 0.341
21.0224 11.594 0.348
21.0428 11.573 0.347
21.0633 11.656 0.348
21.0838 11.573 0.347
21.1042 11.604 0.348
21.1247 11.083 0.340
21.1452 11.594 0.348
21.1656 11.833 0.351
21.1861 12.073 0.355
21.2065 11.260 0.342
21.2270 11.385 0.344
21.2475 12.458 0.360
21.2679 12.125 0.355
21.2884 11.792 0.350
21.3089 12.427 0.360
21.3293 12.198 0.356
21.3498 12.010 0.354
21.3702 11.354 0.344
21.3907 11.896 0.352
21.4112 10.969 0.338
21.4316 11.104 0.340
21.4521 11.188 0.341
21.4726 11.917 0.352
21.4930 11.167 0.341
21.5135 11.167 0.341
21.5339 11.521 0.346
21.5544 11.083 0.340
21.5749 10.865 0.336
21.5953 10.906 0.337
21.6158 11.125 0.340
21.6363 11.260 0.342
21.6567 11.156 0.341
21.6772 10.354 0.328
21.6976 10.740 0.334
21.7181 10.333 0.328
21.7386 10.698 0.334
21.7590 10.438 0.330
21.7795 11.229 0.342
21.8000 11.125 0.340
21.8204 11.479 0.346
21.8409 10.917 0.337
21.8613 11.000 0.339
21.8818 11.052 0.339
21.9023 11.719 0.349
21.9227 11.063 0.339
21.9432 11.771 0.350
21.9637 11.823 0.351
21.9841 12.083 0.355
22.0046 12.781 0.365
22.0251 14.583 0.390
22.0455 15.510 0.402
22.0660 15.948 0.408
22.0864 15.500 0.402
22.1069 15.708 0.405
22.1274 13.604 0.376
22.1478 12.323 0.358
22.1683 12.208 0.357
22.1888 11.781 0.350
22.2092 11.896 0.352
22.2297 11.677 0.349
22.2501 11.646 0.348
22.2706 10.927 0.337
22.2911 11.052 0.339
22.3115 11.083 0.340
22.3320 11.188 0.341
22.3525 11.063 0.339
22.3729 10.594 0.332
22.3934 11.510 0.346
22.4138 11.083 0.340
22.4343 11.354 0.344
22.4548 11.396 0.345
22.4752 11.656 0.348
22.4957 11.271 0.343
22.5162 11.208 0.342
22.5366 11.469 0.346
22.5571 12.031 0.354
22.5775 11.833 0.351
22.5980 12.063 0.354
22.6185 12.073 0.355
22.6389 12.010 0.354
22.6594 12.990 0.368
22.6799 12.167 0.356
22.7003 12.635 0.363
22.7208 12.469 0.360
22.7412 13.635 0.377
22.7617 14.604 0.390
22.7822 16.385 0.413
22.8026 19.656 0.452
22.8231 27.260 0.533
22.8436 36.510 0.617
22.8640 51.208 0.730
22.8845 54.354 0.752
22.9050 48.156 0.708
22.9254 41.313 0.656
22.9459 34.927 0.603
22.9663 25.104 0.511
22.9868 17.646 0.429
23.0073 15.708 0.405
23.0277 13.719 0.378
23.0482 13.479 0.375
23.0687 13.083 0.369
23.0891 12.802 0.365
23.1096 11.833 0.351
23.1300 12.354 0.359
23.1505 11.958 0.353
23.1710 11.479 0.346
23.1914 11.323 0.343
23.2119 11.271 0.343
23.2324 11.323 0.343
23.2528 11.323 0.343
23.2733 10.906 0.337
23.2937 11.146 0.341
23.3142 10.833 0.336
23.3347 10.948 0.338
23.3551 11.281 0.343
23.3756 10.885 0.337
23.3961 11.031 0.339
23.4165 10.406 0.329
23.4370 11.615 0.348
23.4574 10.667 0.333
23.4779 11.031 0.339
23.4984 11.177 0.341
23.5188 11.313 0.343
23.5393 11.542 0.347
23.5598 12.281 0.358
23.5802 12.135 0.356
23.6007 13.156 0.370
23.6211 14.948 0.395
23.6416 17.406 0.426
23.6621 18.781 0.442
23.6825 17.698 0.429
23.7030 17.344 0.425
23.7235 15.948 0.408
23.7439 14.750 0.392
23.7644 13.708 0.378
23.7849 12.125 0.355
23.8053 11.813 0.351
23.8258 12.135 0.356
23.8462 12.656 0.363
23.8667 13.063 0.369
23.8872 12.563 0.362
23.9076 13.281 0.372
23.9281 12.802 0.365
23.9486 12.708 0.364
23.9690 12.635 0.363
23.9895 13.573 0.376
24.0099 12.188 0.356
24.0304 12.313 0.358
24.0509 11.698 0.349
24.0713 12.875 0.366
24.0918 12.448 0.360
24.1123 13.615 0.377
24.1327 14.875 0.394
24.1532 15.646 0.404
24.1736 15.240 0.398
24.1941 14.479 0.388
24.2146 14.833 0.393
24.2350 13.073 0.369
24.2555 12.844 0.366
24.2760 11.667 0.349
24.2964 11.885 0.352
24.3169 12.125 0.355
24.3373 11.010 0.339
24.3578 11.708 0.349
24.3783 11.458 0.345
24.3987 11.698 0.349
24.4192 11.979 0.353
24.4397 12.146 0.356
24.4601 12.135 0.356
24.4806 12.750 0.364
24.5011 12.385 0.359
24.5215 13.573 0.376
24.5420 14.240 0.385
24.5624 14.115 0.383
24.5829 14.094 0.383
24.6034 16.167 0.410
24.6238 17.552 0.428
24.6443 20.854 0.466
24.6648 20.781 0.465
24.6852 20.813 0.466
24.7057 18.521 0.439
24.7261 18.219 0.436
24.7466 16.823 0.419
24.7671 14.740 0.392
24.7875 13.885 0.380
24.8080 14.375 0.387
24.8285 13.646 0.377
24.8489 13.917 0.381
24.8694 13.740 0.378
24.8898 13.010 0.368
24.9103 14.135 0.384
24.9308 14.198 0.385
24.9512 13.854 0.380
24.9717 14.177 0.384
24.9922 13.708 0.378
25.0126 13.698 0.378
25.0331 13.792 0.379
25.0535 14.250 0.385
25.0740 13.240 0.371
25.0945 13.240 0.371
25.1149 12.469 0.360
25.1354 12.948 0.367
25.1559 13.031 0.368
25.1763 12.531 0.361
25.1968 12.604 0.362
25.2172 11.677 0.349
25.2377 12.094 0.355
25.2582 12.771 0.365
25.2786 12.063 0.354
25.2991 12.167 0.356
25.3196 12.354 0.359
25.3400 12.146 0.356
25.3605 11.729 0.350
25.3810 12.406 0.359
25.4014 12.323 0.358
25.4219 12.500 0.361
25.4423 13.479 0.375
25.4628 14.594 0.390
25.4833 16.531 0.415
25.5037 18.781 0.442
25.5242 25.510 0.515
25.5447 31.625 0.574
25.5651 34.438 0.599
25.5856 31.823 0.576
25.6060 27.250 0.533
25.6265 24.354 0.504
25.6470 21.885 0.477
25.6674 16.302 0.412
25.6879 13.698 0.378
25.7084 13.250 0.372
25.7288 12.792 0.365
25.7493 11.906 0.352
25.7697 11.563 0.347
25.7902 11.229 0.342
25.8107 11.500 0.346
25.8311 11.281 0.343
25.8516 11.125 0.340
25.8721 11.365 0.344
25.8925 11.740 0.350
25.9130 11.250 0.342
25.9334 11.208 0.342
25.9539 10.719 0.334
25.9744 10.260 0.327
25.9948 10.250 0.327
26.0153 10.823 0.336
26.0358 10.490 0.331
26.0562 10.448 0.330
26.0767 10.771 0.335
26.0971 10.760 0.335
26.1176 10.833 0.336
26.1381 10.042 0.323
26.1585 10.500 0.331
26.1790 11.198 0.342
26.1995 10.281 0.327
26.2199 10.458 0.330
26.2404 10.635 0.333
26.2609 10.375 0.329
26.2813 10.344 0.328
26.3018 10.979 0.338
26.3222 10.823 0.336
26.3427 10.479 0.330
26.3632 10.948 0.338
26.3836 10.740 0.334
26.4041 10.542 0.331
26.4246 10.490 0.331
26.4450 11.125 0.340
26.4655 10.906 0.337
26.4859 10.448 0.330
26.5064 10.208 0.326
26.5269 10.729 0.334
26.5473 10.823 0.336
26.5678 11.104 0.340
26.5883 9.979 0.322
26.6087 10.667 0.333
26.6292 10.375 0.329
26.6496 9.979 0.322
26.6701 10.740 0.334
26.6906 10.104 0.324
26.7110 11.042 0.339
26.7315 10.677 0.333
26.7520 10.781 0.335
26.7724 11.156 0.341
26.7929 11.115 0.340
26.8133 10.677 0.333
26.8338 10.521 0.331
26.8543 10.771 0.335
26.8747 11.115 0.340
26.8952 10.688 0.334
26.9157 10.646 0.333
26.9361 10.729 0.334
26.9566 10.688 0.334
26.9770 11.219 0.342
26.9975 11.021 0.339
27.0180 11.469 0.346
27.0384 11.615 0.348
27.0589 11.656 0.348
27.0794 11.781 0.350
27.0998 11.594 0.348
27.1203 11.479 0.346
27.1408 13.000 0.368
27.1612 12.729 0.364
27.1817 13.490 0.375
27.2021 14.438 0.388
27.2226 15.844 0.406
27.2431 15.510 0.402
27.2635 14.948 0.395
27.2840 15.760 0.405
27.3045 14.740 0.392
27.3249 15.094 0.397
27.3454 14.250 0.385
27.3658 15.000 0.395
27.3863 16.677 0.417
27.4068 21.063 0.468
27.4272 25.927 0.520
27.4477 30.125 0.560
27.4682 31.448 0.572
27.4886 25.344 0.514
27.5091 23.615 0.496
27.5295 21.229 0.470
27.5500 19.281 0.448
27.5705 15.177 0.398
27.5909 12.844 0.366
27.6114 11.552 0.347
27.6319 11.375 0.344
27.6523 11.667 0.349
27.6728 11.208 0.342
27.6932 11.740 0.350
27.7137 11.969 0.353
27.7342 11.156 0.341
27.7546 11.052 0.339
27.7751 11.594 0.348
27.7956 11.313 0.343
27.8160 11.719 0.349
27.8365 11.177 0.341
27.8569 10.521 0.331
27.8774 10.635 0.333
27.8979 10.594 0.332
27.9183 10.781 0.335
27.9388 10.344 0.328
27.9593 10.240 0.327
27.9797 10.021 0.323
28.0002 10.094 0.324
28.0207 10.354 0.328
28.0411 9.729 0.318
28.0616 10.260 0.327
28.0820 10.250 0.327
28.1025 10.135 0.325
28.1230 10.906 0.337
28.1434 10.510 0.331
28.1639 10.333 0.328
28.1844 10.406 0.329
28.2048 10.542 0.331
28.2253 10.333 0.328
28.2457 10.458 0.330
28.2662 10.885 0.337
28.2867 10.281 0.327
28.3071 9.865 0.321
28.3276 9.802 0.320
28.3481 10.344 0.328
28.3685 10.802 0.335
28.3890 10.208 0.326
28.4094 10.958 0.338
28.4299 10.750 0.335
28.4504 10.438 0.330
28.4708 10.042 0.323
28.4913 10.146 0.325
28.5118 10.813 0.336
28.5322 11.031 0.339
28.5527 10.354 0.328
28.5731 10.635 0.333
28.5936 11.104 0.340
28.6141 10.583 0.332
28.6345 10.635 0.333
28.6550 10.854 0.336
28.6755 10.896 0.337
28.6959 12.063 0.354
28.7164 11.469 0.346
28.7368 11.698 0.349
28.7573 11.469 0.346
28.7778 11.406 0.345
28.7982 11.594 0.348
28.8187 11.260 0.342
28.8392 10.615 0.333
28.8596 11.010 0.339
28.8801 10.583 0.332
28.9006 10.469 0.330
28.9210 10.885 0.337
28.9415 10.781 0.335
28.9619 10.594 0.332
28.9824 11.010 0.339
29.0029 10.635 0.333
29.0233 10.385 0.329
29.0438 11.542 0.347
29.0643 10.594 0.332
29.0847 10.750 0.335
29.1052 10.615 0.333
29.1256 11.188 0.341
29.1461 11.177 0.341
29.1666 10.313 0.328
29.1870 10.844 0.336
29.2075 10.229 0.326
29.2280 10.729 0.334
29.2484 10.729 0.334
29.2689 10.677 0.333
29.2893 10.396 0.329
29.3098 9.802 0.320
29.3303 10.667 0.333
29.3507 10.656 0.333
29.3712 10.406 0.329
29.3917 10.625 0.333
29.4121 10.198 0.326
29.4326 10.594 0.332
29.4530 10.313 0.328
29.4735 11.240 0.342
29.4940 11.438 0.345
29.5144 12.896 0.367
29.5349 14.104 0.383
29.5554 15.063 0.396
29.5758 13.646 0.377
29.5963 13.594 0.376
29.6168 12.333 0.358
29.6372 12.375 0.359
29.6577 11.792 0.350
29.6781 10.563 0.332
29.6986 10.156 0.325
29.7191 10.198 0.326
29.7395 10.115 0.325
29.7600 10.521 0.331
29.7805 10.021 0.323
29.8009 9.813 0.320
29.8214 10.500 0.331
29.8418 9.792 0.319
29.8623 9.542 0.315
29.8828 9.917 0.321
29.9032 10.281 0.327
29.9237 9.875 0.321
29.9442 9.958 0.322
29.9646 10.167 0.325
29.9851 9.729 0.318
30.0055 10.458 0.330
30.0260 10.021 0.323
30.0465 10.042 0.323
30.0669 10.052 0.324
30.0874 10.573 0.332
30.1079 10.031 0.323
30.1283 10.448 0.330
30.1488 9.771 0.319
30.1692 9.938 0.322
30.1897 10.458 0.330
30.2102 10.271 0.327
30.2306 9.875 0.321
30.2511 9.948 0.322
30.2716 10.677 0.333
30.2920 10.490 0.331
30.3125 9.865 0.321
30.3329 10.365 0.329
30.3534 10.385 0.329
30.3739 10.177 0.326
30.3943 10.625 0.333
30.4148 10.771 0.335
30.4353 10.583 0.332
30.4557 10.521 0.331
30.4762 11.135 0.341
30.4967 10.260 0.327
30.5171 10.531 0.331
30.5376 11.458 0.345
30.5580 10.990 0.338
30.5785 11.771 0.350
30.5990 11.271 0.343
30.6194 11.333 0.344
30.6399 11.094 0.340
30.6604 10.667 0.333
30.6808 11.552 0.347
30.7013 11.271 0.343
30.7217 11.594 0.348
30.7422 11.479 0.346
30.7627 11.375 0.344
30.7831 11.354 0.344
30.8036 11.583 0.347
30.8241 11.323 0.343
30.8445 11.438 0.345
30.8650 11.208 0.342
30.8854 10.354 0.328
30.9059 10.198 0.326
30.9264 11.427 0.345
30.9468 11.313 0.343
30.9673 11.344 0.344
30.9878 11.469 0.346
31.0082 11.396 0.345
31.0287 11.385 0.344
31.0491 12.042 0.354
31.0696 11.833 0.351
31.0901 12.073 0.355
31.1105 12.083 0.355
31.1310 11.885 0.352
31.1515 11.281 0.343
31.1719 11.219 0.342
31.1924 11.646 0.348
31.2128 11.896 0.352
31.2333 11.427 0.345
31.2538 12.000 0.354
31.2742 11.875 0.352
31.2947 12.156 0.356
31.3152 12.240 0.357
31.3356 12.229 0.357
31.3561 12.021 0.354
31.3766 12.052 0.354
31.3970 11.135 0.341
31.4175 11.854 0.351
31.4379 11.333 0.344
31.4584 11.563 0.347
31.4789 10.792 0.335
31.4993 10.542 0.331
31.5198 10.969 0.338
31.5403 10.167 0.325
31.5607 10.802 0.335
31.5812 10.479 0.330
31.6016 10.542 0.331
31.6221 10.677 0.333
31.6426 10.802 0.335
31.6630 10.063 0.324
31.6835 10.292 0.327
31.7040 10.729 0.334
31.7244 11.521 0.346
31.7449 12.063 0.354
31.7653 12.677 0.363
31.7858 13.563 0.376
31.8063 14.844 0.393
31.8267 15.156 0.397
31.8472 13.604 0.376
31.8677 13.219 0.371
31.8881 13.729 0.378
31.9086 12.677 0.363
31.9290 12.990 0.368
31.9495 13.063 0.369
31.9700 12.271 0.358
31.9904 12.448 0.360
32.0109 13.427 0.374
32.0314 13.958 0.381
32.0518 13.885 0.380
32.0723 14.250 0.385
32.0927 15.583 0.403
32.1132 17.531 0.427
32.1337 21.135 0.469
32.1541 26.604 0.526
32.1746 33.625 0.592
32.1951 36.719 0.618
32.2155 35.646 0.609
32.2360 30.250 0.561
32.2565 27.333 0.534
32.2769 25.552 0.516
32.2974 23.177 0.491
32.3178 18.469 0.439
32.3383 15.458 0.401
32.3588 13.260 0.372
32.3792 12.625 0.363
32.3997 11.833 0.351
32.4202 11.688 0.349
32.4406 11.385 0.344
32.4611 10.958 0.338
32.4815 11.208 0.342
32.5020 10.271 0.327
32.5225 11.063 0.339
32.5429 11.438 0.345
32.5634 12.667 0.363
32.5839 11.875 0.352
32.6043 11.469 0.346
32.6248 10.813 0.336
32.6452 11.156 0.341
32.6657 11.917 0.352
32.6862 10.719 0.334
32.7066 10.875 0.337
32.7271 10.740 0.334
32.7476 11.313 0.343
32.7680 11.573 0.347
32.7885 10.729 0.334
32.8089 11.156 0.341
32.8294 11.104 0.340
32.8499 11.875 0.352
32.8703 12.458 0.360
32.8908 12.781 0.365
32.9113 12.177 0.356
32.9317 12.938 0.367
32.9522 12.083 0.355
32.9726 12.156 0.356
32.9931 12.240 0.357
33.0136 12.563 0.362
33.0340 12.094 0.355
33.0545 11.979 0.353
33.0750 12.677 0.363
33.0954 14.927 0.394
33.1159 15.281 0.399
33.1364 16.667 0.417
33.1568 16.375 0.413
33.1773 16.094 0.409
33.1977 14.979 0.395
33.2182 15.021 0.396
33.2387 14.188 0.384
33.2591 14.188 0.384
33.2796 13.427 0.374
33.3001 14.344 0.387
33.3205 15.177 0.398
33.3410 14.948 0.395
33.3614 15.729 0.405
33.3819 15.125 0.397
33.4024 14.115 0.383
33.4228 14.833 0.393
33.4433 12.938 0.367
33.4638 12.813 0.365
33.4842 12.250 0.357
33.5047 11.531 0.347
33.5251 11.635 0.348
33.5456 12.333 0.358
33.5661 10.677 0.333
33.5865 10.802 0.335
33.6070 11.208 0.342
33.6275 10.698 0.334
33.6479 10.302 0.328
33.6684 11.313 0.343
33.6888 12.375 0.359
33.7093 12.469 0.360
33.7298 11.885 0.352
33.7502 11.813 0.351
33.7707 11.948 0.353
33.7912 11.531 0.347
33.8116 11.083 0.340
33.8321 10.542 0.331
33.8526 10.542 0.331
33.8730 10.417 0.329
33.8935 10.333 0.328
33.9139 10.625 0.333
33.9344 10.135 0.325
33.9549 10.865 0.336
33.9753 11.042 0.339
33.9958 10.365 0.329
34.0163 11.156 0.341
34.0367 10.615 0.333
34.0572 10.510 0.331
34.0776 11.375 0.344
34.0981 11.802 0.351
34.1186 12.427 0.360
34.1390 15.115 0.397
34.1595 16.146 0.410
34.1800 20.021 0.457
34.2004 21.802 0.477
34.2209 22.979 0.489
34.2413 21.229 0.470
34.2618 19.292 0.448
34.2823 18.365 0.437
34.3027 17.750 0.430
34.3232 16.667 0.417
34.3437 14.333 0.386
34.3641 12.896 0.367
34.3846 13.094 0.369
34.4050 12.302 0.358
34.4255 11.958 0.353
34.4460 11.698 0.349
34.4664 11.135 0.341
34.4869 10.792 0.335
34.5074 11.510 0.346
34.5278 10.979 0.338
34.5483 11.323 0.343
34.5687 11.667 0.349
34.5892 10.885 0.337
34.6097 11.583 0.347
34.6301 12.031 0.354
34.6506 11.635 0.348
34.6711 11.823 0.351
34.6915 11.740 0.350
34.7120 12.344 0.359
34.7325 13.208 0.371
34.7529 13.688 0.378
34.7734 13.240 0.371
34.7938 14.365 0.387
34.8143 15.146 0.397
34.8348 16.563 0.415
34.8552 19.354 0.449
34.8757 23.594 0.496
34.8962 31.646 0.574
34.9166 38.354 0.632
34.9371 42.458 0.665
34.9575 38.896 0.637
34.9780 33.677 0.592
34.9985 30.698 0.565
35.0189 31.271 0.571
35.0394 28.240 0.542
35.0599 23.021 0.490
35.0803 19.250 0.448
35.1008 17.417 0.426
35.1212 16.406 0.413
35.1417 14.271 0.386
35.1622 13.938 0.381
35.1826 13.885 0.380
35.2031 12.302 0.358
35.2236 12.979 0.368
35.2440 12.490 0.361
35.2645 12.906 0.367
35.2849 11.896 0.352
35.3054 12.000 0.354
35.3259 12.563 0.362
35.3463 11.906 0.352
35.3668 11.896 0.352
35.3873 12.417 0.360
35.4077 11.740 0.350
35.4282 11.479 0.346
35.4486 12.802 0.365
35.4691 13.188 0.371
35.4896 12.448 0.360
35.5100 12.521 0.361
35.5305 12.865 0.366
35.5510 12.615 0.362
35.5714 12.188 0.356
35.5919 11.969 0.353
35.6124 11.740 0.350
35.6328 11.167 0.341
35.6533 11.594 0.348
35.6737 10.885 0.337
35.6942 11.208 0.342
35.7147 11.490 0.346
35.7351 10.781 0.335
35.7556 11.406 0.345
35.7761 10.656 0.333
35.7965 11.021 0.339
35.8170 11.052 0.339
35.8374 11.156 0.341
35.8579 10.646 0.333
35.8784 10.771 0.335
35.8988 11.458 0.345
35.9193 11.375 0.344
35.9398 11.750 0.350
35.9602 11.583 0.347
35.9807 12.833 0.366
36.0011 13.240 0.371
36.0216 13.354 0.373
36.0421 14.229 0.385
36.0625 13.490 0.375
36.0830 12.552 0.362
36.1035 12.552 0.362
36.1239 13.073 0.369
36.1444 13.125 0.370
36.1648 12.354 0.359
36.1853 11.948 0.353
36.2058 12.094 0.355
36.2262 11.979 0.353
36.2467 11.656 0.348
36.2672 11.469 0.346
36.2876 12.583 0.362
36.3081 12.490 0.361
36.3285 11.833 0.351
36.3490 12.313 0.358
36.3695 12.521 0.361
36.3899 12.156 0.356
36.4104 12.292 0.358
36.4309 12.656 0.363
36.4513 12.406 0.359
36.4718 13.063 0.369
36.4923 13.167 0.370
36.5127 12.188 0.356
36.5332 12.521 0.361
36.5536 12.521 0.361
36.5741 12.531 0.361
36.5946 12.021 0.354
36.6150 12.052 0.354
36.6355 12.542 0.361
36.6560 11.854 0.351
36.6764 11.281 0.343
36.6969 11.750 0.350
36.7173 11.667 0.349
36.7378 11.500 0.346
36.7583 11.198 0.342
36.7787 11.625 0.348
36.7992 11.677 0.349
36.8197 11.875 0.352
36.8401 11.969 0.353
36.8606 12.323 0.358
36.8810 12.813 0.365
36.9015 12.729 0.364
36.9220 12.448 0.360
36.9424 12.448 0.360
36.9629 11.885 0.352
36.9834 11.781 0.350
37.0038 12.854 0.366
37.0243 13.063 0.369
37.0447 12.813 0.365
37.0652 12.771 0.365
37.0857 13.063 0.369
37.1061 13.177 0.370
37.1266 12.823 0.365
37.1471 12.823 0.365
37.1675 14.823 0.393
37.1880 15.313 0.399
37.2084 15.510 0.402
37.2289 16.615 0.416
37.2494 16.750 0.418
37.2698 15.802 0.406
37.2903 15.885 0.407
37.3108 14.875 0.394
37.3312 14.323 0.386
37.3517 13.979 0.382
37.3722 12.781 0.365
37.3926 12.729 0.364
37.4131 11.990 0.353
37.4335 11.927 0.352
37.4540 11.635 0.348
37.4745 11.177 0.341
37.4949 11.646 0.348
37.5154 11.375 0.344
37.5359 11.802 0.351
37.5563 11.490 0.346
37.5768 11.188 0.341
37.5972 11.250 0.342
37.6177 10.594 0.332
37.6382 11.365 0.344
37.6586 11.500 0.346
37.6791 11.167 0.341
37.6996 11.729 0.350
37.7200 11.146 0.341
37.7405 11.771 0.350
37.7609 11.083 0.340
37.7814 12.083 0.355
37.8019 11.198 0.342
37.8223 10.719 0.334
37.8428 12.427 0.360
37.8633 11.698 0.349
37.8837 11.479 0.346
37.9042 11.417 0.345
37.9246 11.573 0.347
37.9451 12.260 0.357
37.9656 12.135 0.356
37.9860 11.854 0.351
38.0065 11.625 0.348
38.0270 11.563 0.347
38.0474 12.833 0.366
38.0679 11.969 0.353
38.0884 11.542 0.347
38.1088 12.354 0.359
38.1293 12.500 0.361
38.1497 13.021 0.368
38.1702 12.188 0.356
38.1907 13.125 0.370
38.2111 13.115 0.370
38.2316 13.479 0.375
38.2521 14.094 0.383
38.2725 13.615 0.377
38.2930 13.094 0.369
38.3134 12.906 0.367
38.3339 13.240 0.371
38.3544 12.323 0.358
38.3748 12.677 0.363
38.3953 12.000 0.354
38.4158 12.281 0.358
38.4362 12.073 0.355
38.4567 11.688 0.349
38.4771 11.677 0.349
38.4976 11.542 0.347
38.5181 10.990 0.338
38.5385 11.198 0.342
38.5590 10.656 0.333
38.5795 10.583 0.332
38.5999 11.115 0.340
38.6204 11.219 0.342
38.6408 10.865 0.336
38.6613 11.146 0.341
38.6818 10.438 0.330
38.7022 10.708 0.334
38.7227 11.156 0.341
38.7432 10.594 0.332
38.7636 10.354 0.328
38.7841 10.760 0.335
38.8045 10.635 0.333
38.8250 10.635 0.333
38.8455 10.167 0.325
38.8659 10.771 0.335
38.8864 10.063 0.324
38.9069 10.708 0.334
38.9273 10.448 0.330
38.9478 10.510 0.331
38.9683 10.406 0.329
38.9887 10.677 0.333
39.0092 10.969 0.338
39.0296 10.927 0.337
39.0501 10.750 0.335
39.0706 11.250 0.342
39.0910 11.354 0.344
39.1115 10.552 0.332
39.1320 11.396 0.345
39.1524 11.052 0.339
39.1729 11.188 0.341
39.1933 11.292 0.343
39.2138 11.063 0.339
39.2343 11.406 0.345
39.2547 11.448 0.345
39.2752 11.313 0.343
39.2957 11.510 0.346
39.3161 11.396 0.345
39.3366 11.594 0.348
39.3570 11.427 0.345
39.3775 11.542 0.347
39.3980 11.771 0.350
39.4184 11.521 0.346
39.4389 11.802 0.351
39.4594 12.135 0.356
39.4798 11.969 0.353
39.5003 12.219 0.357
39.5207 12.010 0.354
39.5412 12.219 0.357
39.5617 12.427 0.360
39.5821 12.292 0.358
39.6026 11.917 0.352
39.6231 12.198 0.356
39.6435 12.250 0.357
39.6640 12.354 0.359
39.6844 12.302 0.358
39.7049 12.250 0.357
39.7254 11.917 0.352
39.7458 11.885 0.352
39.7663 11.333 0.344
39.7868 11.917 0.352
39.8072 12.177 0.356
39.8277 10.917 0.337
39.8482 11.583 0.347
39.8686 11.385 0.344
39.8891 11.031 0.339
39.9095 11.927 0.352
39.9300 11.990 0.353
39.9505 11.479 0.346
39.9709 11.073 0.340
39.9914 11.229 0.342
40.0119 10.625 0.333
40.0323 11.427 0.345
40.0528 11.104 0.340
40.0732 10.958 0.338
40.0937 10.625 0.333
40.1142 10.969 0.338
40.1346 10.208 0.326
40.1551 10.625 0.333
40.1756 11.542 0.347
40.1960 11.125 0.340
40.2165 11.063 0.339
40.2369 11.781 0.350
40.2574 11.365 0.344
40.2779 11.625 0.348
40.2983 13.125 0.370
40.3188 14.594 0.390
40.3393 14.354 0.387
40.3597 16.260 0.412
40.3802 14.104 0.383
40.4006 13.177 0.370
40.4211 12.885 0.366
40.4416 13.281 0.372
40.4620 13.177 0.370
40.4825 12.917 0.367
40.5030 12.552 0.362
40.5234 11.760 0.350
40.5439 12.260 0.357
40.5643 12.365 0.359
40.5848 12.552 0.362
40.6053 13.438 0.374
40.6257 13.542 0.376
40.6462 14.323 0.386
40.6667 15.354 0.400
40.6871 15.875 0.407
40.7076 18.646 0.441
40.7281 22.438 0.483
40.7485 26.917 0.530
40.7690 32.802 0.585
40.7894 31.740 0.575
40.8099 28.385 0.544
40.8304 24.896 0.509
40.8508 24.250 0.503
40.8713 23.552 0.495
40.8918 23.385 0.494
40.9122 20.688 0.464
40.9327 16.948 0.420
40.9531 14.271 0.386
40.9736 14.302 0.386
40.9941 13.479 0.375
41.0145 12.552 0.362
41.0350 12.188 0.356
41.0555 12.542 0.361
41.0759 12.156 0.356
41.0964 11.292 0.343
41.1168 12.188 0.356
41.1373 12.323 0.358
41.1578 12.500 0.361
41.1782 12.979 0.368
41.1987 14.844 0.393
41.2192 14.417 0.388
41.2396 14.865 0.393
41.2601 14.146 0.384
41.2805 14.208 0.385
41.3010 13.760 0.379
41.3215 13.844 0.380
41.3419 13.188 0.371
41.3624 13.052 0.369
41.3829 12.167 0.356
41.4033 11.781 0.350
41.4238 11.688 0.349
41.4442 11.281 0.343
41.4647 11.938 0.353
41.4852 11.188 0.341
41.5056 11.281 0.343
41.5261 12.510 0.361
41.5466 12.156 0.356
41.5670 12.365 0.359
41.5875 13.146 0.370
41.6080 13.542 0.376
41.6284 13.010 0.368
41.6489 13.354 0.373
41.6693 13.021 0.368
41.6898 13.281 0.372
41.7103 12.406 0.359
41.7307 12.646 0.363
41.7512 13.427 0.374
41.7717 14.615 0.390
41.7921 14.385 0.387
41.8126 17.125 0.422
41.8330 19.188 0.447
41.8535 22.865 0.488
41.8740 22.990 0.489
41.8944 20.417 0.461
41.9149 18.365 0.437
41.9354 17.823 0.431
41.9558 17.104 0.422
41.9763 16.927 0.420
41.9967 15.708 0.405
42.0172 14.833 0.393
42.0377 13.469 0.375
42.0581 11.813 0.351
42.0786 11.844 0.351
42.0991 10.635 0.333
42.1195 10.615 0.333
42.1400 10.948 0.338
42.1604 10.792 0.335
42.1809 11.281 0.343
42.2014 10.198 0.326
42.2218 10.635 0.333
42.2423 10.542 0.331
42.2628 10.990 0.338
42.2832 11.031 0.339
42.3037 11.271 0.343
42.3242 11.542 0.347
42.3446 11.375 0.344
42.3651 11.813 0.351
42.3855 11.573 0.347
42.4060 11.448 0.345
42.4265 11.302 0.343
42.4469 12.260 0.357
42.4674 12.688 0.364
42.4879 13.375 0.373
42.5083 13.406 0.374
42.5288 12.625 0.363
42.5492 12.573 0.362
42.5697 12.021 0.354
42.5902 12.833 0.366
42.6106 12.229 0.357
42.6311 12.354 0.359
42.6516 12.198 0.356
42.6720 11.958 0.353
42.6925 11.865 0.352
42.7129 11.344 0.344
42.7334 11.104 0.340
42.7539 11.885 0.352
42.7743 11.865 0.352
42.7948 12.063 0.354
42.8153 11.479 0.346
42.8357 11.167 0.341
42.8562 10.938 0.338
42.8766 10.563 0.332
42.8971 10.719 0.334
42.9176 9.885 0.321
42.9380 10.302 0.328
42.9585 9.948 0.322
42.9790 9.781 0.319
42.9994 9.719 0.318
43.0199 10.708 0.334
43.0403 10.167 0.325
43.0608 9.917 0.321
43.0813 9.573 0.316
43.1017 9.677 0.317
43.1222 9.781 0.319
43.1427 9.500 0.315
43.1631 10.375 0.329
43.1836 9.792 0.319
43.2041 9.323 0.312
43.2245 9.313 0.311
43.2450 10.146 0.325
43.2654 9.844 0.320
43.2859 9.698 0.318
43.3064 10.135 0.325
43.3268 10.177 0.326
43.3473 10.917 0.337
43.3678 11.229 0.342
43.3882 11.010 0.339
43.4087 10.729 0.334
43.4291 10.604 0.332
43.4496 11.052 0.339
43.4701 10.490 0.331
43.4905 10.448 0.330
43.5110 10.115 0.325
43.5315 10.844 0.336
43.5519 10.656 0.333
43.5724 9.448 0.314
43.5928 10.698 0.334
43.6133 10.021 0.323
43.6338 10.479 0.330
43.6542 11.094 0.340
43.6747 10.615 0.333
43.6952 11.479 0.346
43.7156 11.302 0.343
43.7361 11.021 0.339
43.7565 10.708 0.334
43.7770 11.260 0.342
43.7975 11.990 0.353
43.8179 12.302 0.358
43.8384 12.563 0.362
43.8589 13.375 0.373
43.8793 13.073 0.369
43.8998 11.927 0.352
43.9202 12.260 0.357
43.9407 11.375 0.344
43.9612 11.385 0.344
43.9816 11.781 0.350
44.0021 11.135 0.341
44.0226 10.896 0.337
44.0430 10.427 0.330
44.0635 10.219 0.326
44.0840 10.427 0.330
44.1044 9.521 0.315
44.1249 9.979 0.322
44.1453 9.760 0.319
44.1658 9.802 0.320
44.1863 9.823 0.320
44.2067 9.448 0.314
44.2272 9.344 0.312
44.2477 9.760 0.319
44.2681 9.927 0.322
44.2886 9.063 0.307
44.3090 9.063 0.307
44.3295 9.604 0.316
44.3500 9.510 0.315
44.3704 9.656 0.317
44.3909 9.365 0.312
44.4114 9.365 0.312
44.4318 9.542 0.315
44.4523 8.865 0.304
44.4727 9.615 0.316
44.4932 9.781 0.319
44.5137 9.448 0.314
44.5341 9.396 0.313
44.5546 9.052 0.307
44.5751 9.833 0.320
44.5955 9.469 0.314
44.6160 8.729 0.302
44.6364 9.063 0.307
44.6569 9.792 0.319
44.6774 9.625 0.317
44.6978 9.177 0.309
44.7183 9.760 0.319
44.7388 9.583 0.316
44.7592 9.208 0.310
44.7797 9.802 0.320
44.8001 10.052 0.324
44.8206 9.354 0.312
44.8411 9.635 0.317
44.8615 9.375 0.313
44.8820 9.469 0.314
44.9025 9.083 0.308
44.9229 9.448 0.314
44.9434 8.073 0.290
44.9639 9.167 0.309
44.9843 8.813 0.303
45.0048 9.000 0.306
45.0252 9.563 0.316
45.0457 9.250 0.310
45.0662 8.948 0.305
45.0866 9.531 0.315
45.1071 9.385 0.313
45.1276 9.896 0.321
45.1480 9.750 0.319
45.1685 9.854 0.320
45.1889 9.802 0.320
45.2094 9.719 0.318
45.2299 10.125 0.325
45.2503 9.385 0.313
45.2708 9.208 0.310
45.2913 9.479 0.314
45.3117 9.490 0.314
45.3322 9.083 0.308
45.3526 9.313 0.311
45.3731 8.927 0.305
45.3936 9.958 0.322
45.4140 9.417 0.313
45.4345 9.323 0.312
45.4550 9.323 0.312
45.4754 9.396 0.313
45.4959 9.781 0.319
45.5163 9.094 0.308
45.5368 9.260 0.311
45.5573 8.750 0.302
45.5777 9.875 0.321
45.5982 9.250 0.310
45.6187 9.313 0.311
45.6391 9.740 0.319
45.6596 9.542 0.315
45.6800 9.708 0.318
45.7005 10.354 0.328
45.7210 9.813 0.320
45.7414 9.729 0.318
45.7619 9.938 0.322
45.7824 10.833 0.336
45.8028 9.760 0.319
45.8233 9.760 0.319
45.8438 10.177 0.326
45.8642 10.698 0.334
45.8847 10.896 0.337
45.9051 10.750 0.335
45.9256 10.115 0.325
45.9461 9.823 0.320
45.9665 10.281 0.327
45.9870 9.979 0.322
46.0075 10.427 0.330
46.0279 9.969 0.322
46.0484 10.240 0.327
46.0688 9.688 0.318
46.0893 9.677 0.317
46.1098 9.667 0.317
46.1302 9.292 0.311
46.1507 9.458 0.314
46.1712 9.250 0.310
46.1916 8.969 0.306
46.2121 9.698 0.318
46.2325 9.260 0.311
46.2530 9.563 0.316
46.2735 9.177 0.309
46.2939 9.615 0.316
46.3144 9.490 0.314
46.3349 9.146 0.309
46.3553 9.906 0.321
46.3758 9.708 0.318
46.3962 9.396 0.313
46.4167 10.583 0.332
46.4372 10.188 0.326
46.4576 10.125 0.325
46.4781 10.688 0.334
46.4986 10.771 0.335
46.5190 11.927 0.352
46.5395 13.563 0.376
46.5600 15.042 0.396
46.5804 15.948 0.408
46.6009 16.094 0.409
46.6213 16.354 0.413
46.6418 15.229 0.398
46.6623 14.698 0.391
46.6827 13.844 0.380
46.7032 13.896 0.380
46.7237 14.219 0.385
46.7441 13.656 0.377
46.7646 12.531 0.361
46.7850 11.677 0.349
46.8055 10.875 0.337
46.8260 10.781 0.335
46.8464 10.906 0.337
46.8669 9.792 0.319
46.8874 10.521 0.331
46.9078 10.000 0.323
46.9283 9.646 0.317
46.9487 9.260 0.311
46.9692 9.375 0.313
46.9897 9.396 0.313
47.0101 8.958 0.305
47.0306 9.188 0.309
47.0511 9.396 0.313
47.0715 9.396 0.313
47.0920 9.469 0.314
47.1124 9.302 0.311
47.1329 9.000 0.306
47.1534 9.188 0.309
47.1738 9.073 0.307
47.1943 9.031 0.307
47.2148 9.490 0.314
47.2352 8.740 0.302
47.2557 8.781 0.302
47.2761 8.865 0.304
47.2966 8.771 0.302
47.3171 8.490 0.297
47.3375 9.490 0.314
47.3580 8.896 0.304
47.3785 8.906 0.305
47.3989 8.885 0.304
47.4194 7.917 0.287
47.4399 8.302 0.294
47.4603 8.688 0.301
47.4808 8.833 0.303
47.5012 9.188 0.309
47.5217 8.490 0.297
47.5422 8.583 0.299
47.5626 8.542 0.298
47.5831 8.240 0.293
47.6036 8.917 0.305
47.6240 8.688 0.301
47.6445 9.010 0.306
47.6649 8.417 0.296
47.6854 9.271 0.311
47.7059 8.885 0.304
47.7263 9.031 0.307
47.7468 8.917 0.305
47.7673 9.531 0.315
47.7877 9.104 0.308
47.8082 8.167 0.292
47.8286 8.510 0.298
47.8491 9.198 0.310
47.8696 8.260 0.293
47.8900 8.563 0.299
47.9105 8.198 0.292
47.9310 8.135 0.291
47.9514 8.594 0.299
47.9719 8.979 0.306
47.9923 8.729 0.302
48.0128 8.500 0.298
48.0333 8.177 0.292
48.0537 7.760 0.284
48.0742 8.240 0.293
48.0947 7.760 0.284
48.1151 8.271 0.294
48.1356 8.333 0.295
48.1560 8.271 0.294
48.1765 7.563 0.281
48.1970 8.115 0.291
48.2174 7.948 0.288
48.2379 7.927 0.287
48.2584 7.677 0.283
48.2788 7.906 0.287
48.2993 8.208 0.292
48.3198 7.906 0.287
48.3402 7.938 0.288
48.3607 8.375 0.295
48.3811 7.740 0.284
48.4016 7.896 0.287
48.4221 8.198 0.292
48.4425 8.208 0.292
48.4630 8.073 0.290
48.4835 7.938 0.288
48.5039 7.854 0.286
48.5244 8.917 0.305
48.5448 8.365 0.295
48.5653 8.615 0.300
48.5858 8.042 0.289
48.6062 8.333 0.295
48.6267 7.813 0.285
48.6472 7.979 0.288
48.6676 8.438 0.296
48.6881 7.906 0.287
48.7085 8.344 0.295
48.7290 7.750 0.284
48.7495 7.823 0.285
48.7699 8.031 0.289
48.7904 7.260 0.275
48.8109 7.958 0.288
48.8313 7.771 0.285
48.8518 8.135 0.291
48.8722 8.063 0.290
48.8927 7.854 0.286
48.9132 8.219 0.293
48.9336 8.063 0.290
48.9541 8.604 0.299
48.9746 8.292 0.294
48.9950 9.344 0.312
49.0155 9.458 0.314
49.0359 10.958 0.338
49.0564 11.604 0.348
49.0769 11.844 0.351
49.0973 10.750 0.335
49.1178 9.833 0.320
49.1383 9.615 0.316
49.1587 9.760 0.319
49.1792 10.427 0.330
49.1997 10.354 0.328
49.2201 10.198 0.326
49.2406 10.115 0.325
49.2610 9.635 0.317
49.2815 10.115 0.325
49.3020 10.927 0.337
49.3224 10.677 0.333
49.3429 10.958 0.338
49.3634 11.115 0.340
49.3838 10.302 0.328
49.4043 9.438 0.314
49.4247 10.740 0.334
49.4452 9.990 0.323
49.4657 9.646 0.317
49.4861 9.792 0.319
49.5066 9.719 0.318
49.5271 9.219 0.310
49.5475 8.781 0.302
49.5680 9.042 0.307
49.5884 8.594 0.299
49.6089 8.729 0.302
49.6294 9.240 0.310
49.6498 9.417 0.313
49.6703 8.917 0.305
49.6908 9.792 0.319
49.7112 9.417 0.313
49.7317 9.813 0.320
49.7521 10.063 0.324
49.7726 10.521 0.331
49.7931 9.490 0.314
49.8135 9.927 0.322
49.8340 9.344 0.312
49.8545 9.323 0.312
49.8749 9.156 0.309
49.8954 9.323 0.312
49.9158 9.292 0.311
49.9363 8.354 0.295
49.9568 8.208 0.292
49.9772 8.667 0.300
49.9977 7.729 0.284
50.0182 7.844 0.286
50.0386 7.927 0.287
50.0591 8.104 0.291
50.0796 7.781 0.285
50.1000 8.063 0.290
50.1205 8.125 0.291
50.1409 8.271 0.294
50.1614 8.000 0.289
50.1819 8.313 0.294
50.2023 8.917 0.305
50.2228 9.406 0.313
50.2433 9.563 0.316
50.2637 9.760 0.319
50.2842 9.958 0.322
50.3046 9.240 0.310
50.3251 9.292 0.311
50.3456 8.708 0.301
50.3660 9.135 0.308
50.3865 8.979 0.306
50.4070 8.750 0.302
50.4274 9.177 0.309
50.4479 8.469 0.297
50.4683 7.948 0.288
50.4888 9.052 0.307
50.5093 9.167 0.309
50.5297 9.365 0.312
50.5502 9.094 0.308
50.5707 8.792 0.303
50.5911 9.010 0.306
50.6116 9.219 0.310
50.6320 9.083 0.308
50.6525 8.646 0.300
50.6730 8.188 0.292
50.6934 8.771 0.302
50.7139 8.375 0.295
50.7344 8.240 0.293
50.7548 8.094 0.290
50.7753 8.177 0.292
50.7958 8.667 0.300
50.8162 8.688 0.301
50.8367 8.208 0.292
50.8571 8.458 0.297
50.8776 8.302 0.294
50.8981 8.563 0.299
50.9185 8.813 0.303
50.9390 9.031 0.307
50.9595 8.865 0.304
50.9799 9.063 0.307
51.0004 8.635 0.300
51.0208 8.667 0.300
51.0413 8.448 0.297
51.0618 8.833 0.303
51.0822 8.865 0.304
51.1027 8.490 0.297
51.1232 8.542 0.298
51.1436 8.208 0.292
51.1641 8.104 0.291
51.1845 8.156 0.291
51.2050 8.396 0.296
51.2255 8.104 0.291
51.2459 7.771 0.285
51.2664 7.844 0.286
51.2869 7.813 0.285
51.3073 7.667 0.283
51.3278 7.906 0.287
51.3482 8.313 0.294
51.3687 8.052 0.290
51.3892 7.260 0.275
51.4096 7.844 0.286
51.4301 7.885 0.287
51.4506 7.906 0.287
51.4710 8.104 0.291
51.4915 7.427 0.278
51.5119 8.458 0.297
51.5324 8.125 0.291
51.5529 8.865 0.304
51.5733 8.760 0.302
51.5938 9.656 0.317
51.6143 9.865 0.321
51.6347 9.625 0.317
51.6552 9.417 0.313
51.6757 9.125 0.308
51.6961 9.104 0.308
51.7166 9.083 0.308
51.7370 9.833 0.320
51.7575 9.021 0.307
51.7780 8.729 0.302
51.7984 8.302 0.294
51.8189 8.354 0.295
51.8394 9.188 0.309
51.8598 9.094 0.308
51.8803 9.229 0.310
51.9007 9.677 0.317
51.9212 9.969 0.322
51.9417 8.583 0.299
51.9621 9.010 0.306
51.9826 8.833 0.303
52.0031 8.688 0.301
52.0235 9.083 0.308
52.0440 8.135 0.291
52.0644 8.229 0.293
52.0849 8.104 0.291
52.1054 8.260 0.293
52.1258 8.344 0.295
52.1463 7.990 0.288
52.1668 8.188 0.292
52.1872 8.229 0.293
52.2077 8.177 0.292
52.2281 8.396 0.296
52.2486 8.385 0.296
52.2691 8.917 0.305
52.2895 8.448 0.297
52.3100 8.167 0.292
52.3305 8.188 0.292
52.3509 7.604 0.281
52.3714 7.979 0.288
52.3918 7.865 0.286
52.4123 8.729 0.302
52.4328 7.698 0.283
52.4532 7.865 0.286
52.4737 7.156 0.273
52.4942 8.031 0.289
52.5146 7.698 0.283
52.5351 7.365 0.277
52.5556 7.188 0.274
52.5760 7.521 0.280
52.5965 7.323 0.276
52.6169 7.250 0.275
52.6374 7.188 0.274
52.6579 6.875 0.268
52.6783 6.396 0.258
52.6988 7.188 0.274
52.7193 7.156 0.273
52.7397 7.010 0.270
52.7602 6.802 0.266
52.7806 7.396 0.278
52.8011 7.167 0.273
52.8216 7.177 0.273
52.8420 6.948 0.269
52.8625 7.396 0.278
52.8830 7.156 0.273
52.9034 7.292 0.276
52.9239 7.510 0.280
52.9443 7.833 0.286
52.9648 7.729 0.284
52.9853 7.708 0.283
53.0057 8.865 0.304
53.0262 7.698 0.283
53.0467 7.917 0.287
53.0671 8.073 0.290
53.0876 7.927 0.287
53.1080 7.688 0.283
53.1285 8.000 0.289
53.1490 7.583 0.281
53.1694 8.406 0.296
53.1899 8.104 0.291
53.2104 7.260 0.275
53.2308 7.458 0.279
53.2513 7.083 0.272
53.2717 6.917 0.268
53.2922 7.292 0.276
53.3127 7.792 0.285
53.3331 7.365 0.277
53.3536 7.458 0.279
53.3741 7.198 0.274
53.3945 7.479 0.279
53.4150 7.385 0.277
53.4355 7.615 0.282
53.4559 7.542 0.280
53.4764 7.302 0.276
53.4968 7.979 0.288
53.5173 7.448 0.279
53.5378 7.615 0.282
53.5582 7.813 0.285
53.5787 8.250 0.293
53.5992 8.063 0.290
53.6196 7.531 0.280
53.6401 8.792 0.303
53.6605 9.333 0.312
53.6810 8.490 0.297
53.7015 8.979 0.306
53.7219 8.656 0.300
53.7424 8.104 0.291
53.7629 8.438 0.296
53.7833 8.583 0.299
53.8038 8.740 0.302
53.8242 7.958 0.288
53.8447 8.344 0.295
53.8652 7.979 0.288
53.8856 8.083 0.290
53.9061 7.260 0.275
53.9266 8.167 0.292
53.9470 7.333 0.276
53.9675 7.708 0.283
53.9879 6.823 0.267
54.0084 7.375 0.277
54.0289 7.250 0.275
54.0493 7.313 0.276
54.0698 7.313 0.276
54.0903 7.000 0.270
54.1107 7.156 0.273
54.1312 7.146 0.273
54.1516 6.948 0.269
54.1721 6.667 0.264
54.1926 6.771 0.266
54.2130 6.833 0.267
54.2335 6.823 0.267
54.2540 6.510 0.260
54.2744 6.531 0.261
54.2949 7.010 0.270
54.3154 6.583 0.262
54.3358 7.146 0.273
54.3563 6.990 0.270
54.3767 7.417 0.278
54.3972 7.135 0.273
54.4177 7.094 0.272
54.4381 7.594 0.281
54.4586 7.615 0.282
54.4791 7.719 0.284
54.4995 8.344 0.295
54.5200 8.625 0.300
54.5404 8.917 0.305
54.5609 9.417 0.313
54.5814 9.125 0.308
54.6018 8.781 0.302
54.6223 8.333 0.295
54.6428 8.281 0.294
54.6632 8.427 0.296
54.6837 8.385 0.296
54.7041 8.000 0.289
54.7246 8.531 0.298
54.7451 7.719 0.284
54.7655 7.563 0.281
54.7860 7.448 0.279
54.8065 7.385 0.277
54.8269 7.354 0.277
54.8474 7.323 0.276
54.8678 7.604 0.281
54.8883 7.417 0.278
54.9088 7.760 0.284
54.9292 8.167 0.292
54.9497 8.302 0.294
54.9702 8.490 0.297
54.9906 9.729 0.318
55.0111 9.688 0.318
55.0316 9.885 0.321
55.0520 12.375 0.359
55.0725 12.240 0.357
55.0929 11.552 0.347
55.1134 12.031 0.354
55.1339 11.625 0.348
55.1543 10.375 0.329
55.1748 10.875 0.337
55.1953 11.365 0.344
55.2157 11.323 0.343
55.2362 10.740 0.334
55.2566 10.698 0.334
55.2771 9.958 0.322
55.2976 9.688 0.318
55.3180 8.760 0.302
55.3385 8.406 0.296
55.3590 8.469 0.297
55.3794 9.073 0.307
55.3999 7.729 0.284
55.4203 8.438 0.296
55.4408 8.417 0.296
55.4613 7.563 0.281
55.4817 7.896 0.287
55.5022 7.844 0.286
55.5227 7.552 0.280
55.5431 7.396 0.278
55.5636 7.313 0.276
55.5840 7.198 0.274
55.6045 7.219 0.274
55.6250 7.906 0.287
55.6454 7.240 0.275
55.6659 8.021 0.289
55.6864 7.969 0.288
55.7068 7.063 0.271
55.7273 7.229 0.274
55.7477 7.177 0.273
55.7682 7.583 0.281
55.7887 7.292 0.276
55.8091 7.490 0.279
55.8296 7.240 0.275
55.8501 7.938 0.288
55.8705 7.302 0.276
55.8910 7.156 0.273
55.9115 7.313 0.276
55.9319 7.698 0.283
55.9524 7.302 0.276
55.9728 7.323 0.276
55.9933 7.563 0.281
56.0138 6.688 0.264
56.0342 7.469 0.279
56.0547 7.292 0.276
56.0752 7.292 0.276
56.0956 7.823 0.285
56.1161 7.531 0.280
56.1365 7.771 0.285
56.1570 7.823 0.285
56.1775 7.292 0.276
56.1979 7.354 0.277
56.2184 7.250 0.275
56.2389 7.458 0.279
56.2593 7.479 0.279
56.2798 7.573 0.281
56.3002 7.719 0.284
56.3207 7.021 0.270
56.3412 7.417 0.278
56.3616 7.156 0.273
56.3821 7.406 0.278
56.4026 7.344 0.277
56.4230 7.313 0.276
56.4435 6.844 0.267
56.4639 8.042 0.289
56.4844 7.156 0.273
56.5049 7.813 0.285
56.5253 7.625 0.282
56.5458 8.208 0.292
56.5663 8.698 0.301
56.5867 8.958 0.305
56.6072 9.344 0.312
56.6276 10.365 0.329
56.6481 11.302 0.343
56.6686 12.094 0.355
56.6890 12.167 0.356
56.7095 11.323 0.343
56.7300 10.635 0.333
56.7504 10.323 0.328
56.7709 9.948 0.322
56.7914 9.823 0.320
56.8118 9.125 0.308
56.8323 9.156 0.309
56.8527 9.208 0.310
56.8732 8.885 0.304
56.8937 8.615 0.300
56.9141 7.927 0.287
56.9346 8.458 0.297
56.9551 7.927 0.287
56.9755 7.219 0.274
56.9960 7.448 0.279
57.0164 7.490 0.279
57.0369 6.938 0.269
57.0574 7.010 0.270
57.0778 7.563 0.281
57.0983 7.406 0.278
57.1188 7.260 0.275
57.1392 7.448 0.279
57.1597 7.625 0.282
57.1801 7.677 0.283
57.2006 7.813 0.285
57.2211 7.594 0.281
57.2415 7.802 0.285
57.2620 7.188 0.274
57.2825 7.604 0.281
57.3029 7.833 0.286
57.3234 7.708 0.283
57.3438 7.813 0.285
57.3643 8.135 0.291
57.3848 7.760 0.284
57.4052 7.958 0.288
57.4257 7.781 0.285
57.4462 8.177 0.292
57.4666 7.531 0.280
57.4871 7.979 0.288
57.5075 7.552 0.280
57.5280 7.906 0.287
57.5485 8.167 0.292
57.5689 7.917 0.287
57.5894 8.063 0.290
57.6099 7.208 0.274
57.6303 7.781 0.285
57.6508 7.563 0.281
57.6713 7.885 0.287
57.6917 7.510 0.280
57.7122 7.292 0.276
57.7326 7.458 0.279
57.7531 7.323 0.276
57.7736 7.177 0.273
57.7940 6.885 0.268
57.8145 7.479 0.279
57.8350 7.292 0.276
57.8554 6.792 0.266
57.8759 7.417 0.278
57.8963 7.333 0.276
57.9168 6.969 0.269
57.9373 6.740 0.265
57.9577 6.281 0.256
57.9782 6.948 0.269
57.9987 6.833 0.267
58.0191 7.219 0.274
58.0396 7.271 0.275
58.0600 6.854 0.267
58.0805 6.719 0.265
58.1010 6.990 0.270
58.1214 6.354 0.257
58.1419 7.198 0.274
58.1624 7.469 0.279
58.1828 7.365 0.277
58.2033 7.823 0.285
58.2237 8.125 0.291
58.2442 7.979 0.288
58.2647 7.792 0.285
58.2851 7.156 0.273
58.3056 7.281 0.275
58.3261 7.938 0.288
58.3465 7.521 0.280
58.3670 7.875 0.286
58.3874 7.969 0.288
58.4079 8.104 0.291
58.4284 7.813 0.285
58.4488 8.177 0.292
58.4693 9.063 0.307
58.4898 9.052 0.307
58.5102 9.698 0.318
58.5307 8.990 0.306
58.5512 8.500 0.298
58.5716 8.063 0.290
58.5921 7.938 0.288
58.6125 7.656 0.282
58.6330 7.771 0.285
58.6535 7.646 0.282
58.6739 8.292 0.294
58.6944 7.490 0.279
58.7149 7.010 0.270
58.7353 7.583 0.281
58.7558 6.521 0.261
58.7762 6.448 0.259
58.7967 6.802 0.266
58.8172 6.458 0.259
58.8376 7.167 0.273
58.8581 7.010 0.270
58.8786 7.063 0.271
58.8990 7.010 0.270
58.9195 6.802 0.266
58.9399 7.083 0.272
58.9604 6.427 0.259
58.9809 6.500 0.260
59.0013 6.615 0.262
59.0218 6.750 0.265
59.0423 6.813 0.266
59.0627 6.438 0.259
59.0832 6.604 0.262
59.1036 6.594 0.262
59.1241 6.583 0.262
59.1446 6.531 0.261
59.1650 6.323 0.257
59.1855 6.396 0.258
59.2060 7.010 0.270
59.2264 6.844 0.267
59.2469 6.313 0.256
59.2674 5.844 0.247
59.2878 6.552 0.261
59.3083 6.802 0.266
59.3287 6.677 0.264
59.3492 6.583 0.262
59.3697 6.354 0.257
59.3901 6.365 0.257
59.4106 6.094 0.252
59.4311 6.573 0.262
59.4515 6.688 0.264
59.4720 5.750 0.245
59.4924 6.292 0.256
59.5129 6.323 0.257
59.5334 6.469 0.260
59.5538 6.240 0.255
59.5743 6.281 0.256
59.5948 6.188 0.254
59.6152 6.417 0.259
59.6357 6.083 0.252
59.6561 6.656 0.263
59.6766 6.365 0.257
59.6971 6.698 0.264
59.7175 6.010 0.250
59.7380 5.833 0.247
59.7585 6.510 0.260
59.7789 6.167 0.253
59.7994 6.219 0.255
59.8198 6.719 0.265
59.8403 6.281 0.256
59.8608 6.802 0.266
59.8812 6.375 0.258
59.9017 6.469 0.260
59.9222 5.979 0.250
59.9426 6.302 0.256
59.9631 6.302 0.256
59.9835 6.156 0.253
60.0040 6.177 0.254
60.0245 6.177 0.254
60.0449 6.198 0.254
60.0654 6.146 0.253
60.0859 6.417 0.259
60.1063 6.323 0.257
60.1268 5.979 0.250
60.1473 5.833 0.247
60.1677 5.990 0.250
60.1882 6.333 0.257
60.2086 6.073 0.252
60.2291 6.365 0.257
60.2496 6.115 0.252
60.2700 6.594 0.262
60.2905 6.365 0.257
60.3110 6.135 0.253
60.3314 6.354 0.257
60.3519 6.771 0.266
60.3723 6.104 0.252
60.3928 6.219 0.255
60.4133 5.729 0.244
60.4337 5.958 0.249
60.4542 6.385 0.258
60.4747 6.313 0.256
60.4951 6.490 0.260
60.5156 6.125 0.253
60.5360 6.271 0.256
60.5565 5.865 0.247
60.5770 6.083 0.252
60.5974 6.448 0.259
60.6179 6.073 0.252
60.6384 5.760 0.245
60.6588 6.250 0.255
60.6793 5.594 0.241
60.6997 6.010 0.250
60.7202 5.719 0.244
60.7407 6.458 0.259
60.7611 6.448 0.259
60.7816 6.042 0.251
60.8021 6.406 0.258
60.8225 6.188 0.254
60.8430 6.208 0.254
60.8634 6.115 0.252
60.8839 6.042 0.251
60.9044 6.333 0.257
60.9248 6.250 0.255
60.9453 6.313 0.256
60.9658 6.313 0.256
60.9862 6.240 0.255
61.0067 6.875 0.268
61.0272 7.125 0.272
61.0476 6.604 0.262
61.0681 6.104 0.252
61.0885 5.813 0.246
61.1090 6.490 0.260
61.1295 6.385 0.258
61.1499 6.667 0.264
61.1704 6.708 0.264
61.1909 6.573 0.262
61.2113 6.156 0.253
61.2318 6.448 0.259
61.2522 6.448 0.259
61.2727 7.042 0.271
61.2932 7.177 0.273
61.3136 7.438 0.278
61.3341 7.635 0.282
61.3546 7.552 0.280
61.3750 7.188 0.274
61.3955 7.479 0.279
61.4159 6.823 0.267
61.4364 6.927 0.269
61.4569 6.625 0.263
61.4773 6.771 0.266
61.4978 6.656 0.263
61.5183 6.844 0.267
61.5387 6.510 0.260
61.5592 6.625 0.263
61.5796 6.417 0.259
61.6001 5.979 0.250
61.6206 6.396 0.258
61.6410 6.229 0.255
61.6615 6.094 0.252
61.6820 5.458 0.238
61.7024 5.625 0.242
61.7229 6.344 0.257
61.7433 5.552 0.240
61.7638 5.969 0.249
61.7843 5.750 0.245
61.8047 5.635 0.242
61.8252 6.052 0.251
61.8457 6.260 0.255
61.8661 5.781 0.245
61.8866 6.458 0.259
61.9071 6.385 0.258
61.9275 6.552 0.261
61.9480 6.531 0.261
61.9684 6.021 0.250
61.9889 6.021 0.250
62.0094 6.760 0.265
62.0298 6.052 0.251
62.0503 6.583 0.262
62.0708 6.292 0.256
62.0912 6.906 0.268
62.1117 6.688 0.264
62.1321 6.927 0.269
62.1526 6.479 0.260
62.1731 6.792 0.266
62.1935 6.302 0.256
62.2140 5.833 0.247
62.2345 6.521 0.261
62.2549 6.042 0.251
62.2754 6.135 0.253
62.2958 6.177 0.254
62.3163 6.344 0.257
62.3368 6.042 0.251
62.3572 6.177 0.254
62.3777 6.073 0.252
62.3982 6.177 0.254
62.4186 5.958 0.249
62.4391 6.292 0.256
62.4595 5.854 0.247
62.4800 5.719 0.244
62.5005 5.833 0.247
62.5209 6.688 0.264
62.5414 6.000 0.250
62.5619 5.688 0.243
62.5823 5.729 0.244
62.6028 5.688 0.243
62.6232 6.260 0.255
62.6437 6.083 0.252
62.6642 5.854 0.247
62.6846 5.854 0.247
62.7051 6.000 0.250
62.7256 6.083 0.252
62.7460 6.063 0.251
62.7665 5.646 0.243
62.7870 5.948 0.249
62.8074 5.406 0.237
62.8279 6.115 0.252
62.8483 5.427 0.238
62.8688 5.948 0.249
62.8893 5.521 0.240
62.9097 5.875 0.247
62.9302 5.688 0.243
62.9507 5.823 0.246
62.9711 5.823 0.246
62.9916 6.198 0.254
63.0120 5.927 0.248
63.0325 6.115 0.252
63.0530 5.677 0.243
63.0734 5.615 0.242
63.0939 5.750 0.245
63.1144 6.406 0.258
63.1348 5.969 0.249
63.1553 5.677 0.243
63.1757 5.677 0.243
63.1962 5.948 0.249
63.2167 5.927 0.248
63.2371 5.896 0.248
63.2576 6.198 0.254
63.2781 6.458 0.259
63.2985 5.948 0.249
63.3190 5.781 0.245
63.3394 6.385 0.258
63.3599 6.438 0.259
63.3804 6.500 0.260
63.4008 6.135 0.253
63.4213 6.406 0.258
63.4418 6.813 0.266
63.4622 6.938 0.269
63.4827 6.469 0.260
63.5032 6.875 0.268
63.5236 6.344 0.257
63.5441 6.177 0.254
63.5645 6.542 0.261
63.5850 6.333 0.257
63.6055 6.885 0.268
63.6259 6.229 0.255
63.6464 6.594 0.262
63.6669 6.177 0.254
63.6873 6.323 0.257
63.7078 6.313 0.256
63.7282 6.333 0.257
63.7487 6.021 0.250
63.7692 6.833 0.267
63.7896 6.479 0.260
63.8101 6.469 0.260
63.8306 6.229 0.255
63.8510 6.281 0.256
63.8715 6.198 0.254
63.8919 5.917 0.248
63.9124 6.094 0.252
63.9329 5.781 0.245
63.9533 6.292 0.256
63.9738 5.521 0.240
63.9943 5.635 0.242
64.0147 5.875 0.247
64.0352 5.260 0.234
64.0556 5.979 0.250
64.0761 5.865 0.247
64.0966 5.417 0.238
64.1170 5.813 0.246
64.1375 6.125 0.253
64.1580 5.917 0.248
64.1784 5.771 0.245
64.1989 6.479 0.260
64.2193 5.938 0.249
64.2398 6.000 0.250
64.2603 6.063 0.251
64.2807 5.896 0.248
64.3012 6.063 0.251
64.3217 5.740 0.245
64.3421 5.615 0.242
64.3626 5.719 0.244
64.3831 5.854 0.247
64.4035 5.583 0.241
64.4240 5.625 0.242
64.4444 5.854 0.247
64.4649 6.260 0.255
64.4854 5.344 0.236
64.5058 5.563 0.241
64.5263 5.958 0.249
64.5468 5.833 0.247
64.5672 5.177 0.232
64.5877 5.448 0.238
64.6081 5.698 0.244
64.6286 5.594 0.241
64.6491 5.802 0.246
64.6695 5.563 0.241
64.6900 5.750 0.245
64.7105 6.042 0.251
64.7309 5.802 0.246
64.7514 5.854 0.247
64.7718 6.323 0.257
64.7923 5.583 0.241
64.8128 5.635 0.242
64.8332 5.281 0.235
64.8537 5.698 0.244
64.8742 5.646 0.243
64.8946 5.688 0.243
64.9151 5.792 0.246
64.9355 5.417 0.238
64.9560 5.729 0.244
64.9765 5.417 0.238
64.9969 5.604 0.242
65.0174 5.583 0.241
65.0379 5.625 0.242
65.0583 5.344 0.236
65.0788 5.292 0.235
65.0992 5.792 0.246
65.1197 5.104 0.231
65.1402 5.813 0.246
65.1606 5.677 0.243
65.1811 5.854 0.247
65.2016 6.010 0.250
65.2220 5.604 0.242
65.2425 5.656 0.243
65.2630 5.646 0.243
65.2834 5.635 0.242
65.3039 5.656 0.243
65.3243 5.813 0.246
65.3448 5.646 0.243
65.3653 5.760 0.245
65.3857 5.917 0.248
65.4062 5.781 0.245
65.4267 5.625 0.242
65.4471 5.406 0.237
65.4676 5.625 0.242
65.4880 5.375 0.237
65.5085 5.656 0.243
65.5290 5.698 0.244
65.5494 5.365 0.236
65.5699 5.510 0.240
65.5904 5.302 0.235
65.6108 5.938 0.249
65.6313 5.500 0.239
65.6517 5.313 0.235
65.6722 5.365 0.236
65.6927 5.656 0.243
65.7131 5.604 0.242
65.7336 5.510 0.240
65.7541 5.281 0.235
65.7745 5.229 0.233
65.7950 5.344 0.236
65.8154 5.625 0.242
65.8359 5.792 0.246
65.8564 5.510 0.240
65.8768 5.896 0.248
65.8973 5.552 0.240
65.9178 5.510 0.240
65.9382 5.740 0.245
65.9587 5.885 0.248
65.9791 5.865 0.247
65.9996 6.042 0.251
66.0201 5.760 0.245
66.0405 5.396 0.237
66.0610 5.979 0.250
66.0815 6.042 0.251
66.1019 5.854 0.247
66.1224 5.719 0.244
66.1429 5.885 0.248
66.1633 5.469 0.239
66.1838 5.771 0.245
66.2042 5.677 0.243
66.2247 5.417 0.238
66.2452 5.552 0.240
66.2656 5.552 0.240
66.2861 5.938 0.249
66.3066 5.719 0.244
66.3270 5.698 0.244
66.3475 5.938 0.249
66.3679 5.604 0.242
66.3884 5.813 0.246
66.4089 5.229 0.233
66.4293 5.781 0.245
66.4498 5.427 0.238
66.4703 5.604 0.242
66.4907 5.760 0.245
66.5112 5.823 0.246
66.5316 6.010 0.250
66.5521 5.438 0.238
66.5726 6.219 0.255
66.5930 5.188 0.232
66.6135 5.510 0.240
66.6340 5.427 0.238
66.6544 5.365 0.236
66.6749 5.521 0.240
66.6953 5.615 0.242
66.7158 5.385 0.237
66.7363 5.729 0.244
66.7567 5.427 0.238
66.7772 5.719 0.244
66.7977 5.563 0.241
66.8181 5.469 0.239
66.8386 5.635 0.242
66.8590 5.823 0.246
66.8795 5.688 0.243
66.9000 5.958 0.249
66.9204 6.104 0.252
66.9409 5.896 0.248
66.9614 5.510 0.240
66.9818 5.677 0.243
67.0023 5.833 0.247
67.0228 5.885 0.248
67.0432 5.583 0.241
67.0637 5.500 0.239
67.0841 5.542 0.240
67.1046 5.979 0.250
67.1251 5.896 0.248
67.1455 5.823 0.246
67.1660 6.281 0.256
67.1865 6.104 0.252
67.2069 6.021 0.250
67.2274 6.229 0.255
67.2478 6.010 0.250
67.2683 6.740 0.265
67.2888 6.500 0.260
67.3092 5.802 0.246
67.3297 6.344 0.257
67.3502 6.250 0.255
67.3706 6.396 0.258
67.3911 6.240 0.255
67.4115 6.333 0.257
67.4320 6.406 0.258
67.4525 6.271 0.256
67.4729 6.271 0.256
67.4934 5.844 0.247
67.5139 5.906 0.248
67.5343 5.438 0.238
67.5548 5.698 0.244
67.5752 5.927 0.248
67.5957 5.458 0.238
67.6162 5.823 0.246
67.6366 5.635 0.242
67.6571 5.583 0.241
67.6776 5.917 0.248
67.6980 5.719 0.244
67.7185 5.500 0.239
67.7389 5.448 0.238
67.7594 5.406 0.237
67.7799 5.552 0.240
67.8003 5.313 0.235
67.8208 5.563 0.241
67.8413 5.167 0.232
67.8617 5.375 0.237
67.8822 5.073 0.230
67.9027 5.240 0.234
67.9231 5.448 0.238
67.9436 4.875 0.225
67.9640 5.010 0.228
67.9845 5.260 0.234
68.0050 5.323 0.235
68.0254 5.125 0.231
68.0459 5.479 0.239
68.0664 5.490 0.239
68.0868 5.073 0.230
68.1073 5.344 0.236
68.1277 4.938 0.227
68.1482 5.542 0.240
68.1687 4.938 0.227
68.1891 5.333 0.236
68.2096 5.604 0.242
68.2301 4.948 0.227
68.2505 5.021 0.229
68.2710 4.990 0.228
68.2914 5.177 0.232
68.3119 4.885 0.226
68.3324 5.552 0.240
68.3528 5.344 0.236
68.3733 5.594 0.241
68.3938 5.052 0.229
68.4142 5.177 0.232
68.4347 5.083 0.230
68.4551 4.958 0.227
68.4756 5.500 0.239
68.4961 5.000 0.228
68.5165 5.365 0.236
68.5370 5.010 0.228
68.5575 5.094 0.230
68.5779 5.188 0.232
68.5984 5.469 0.239
68.6189 5.792 0.246
68.6393 4.990 0.228
68.6598 5.115 0.231
68.6802 5.302 0.235
68.7007 5.208 0.233
68.7212 4.969 0.228
68.7416 5.219 0.233
68.7621 5.281 0.235
68.7826 4.833 0.224
68.8030 5.219 0.233
68.8235 4.979 0.228
68.8439 5.208 0.233
68.8644 5.354 0.236
68.8849 4.802 0.224
68.9053 5.260 0.234
68.9258 5.198 0.233
68.9463 5.281 0.235
68.9667 5.594 0.241
68.9872 5.396 0.237
69.0076 5.594 0.241
69.0281 6.021 0.250
69.0486 5.896 0.248
69.0690 5.865 0.247
69.0895 5.542 0.240
69.1100 5.542 0.240
69.1304 5.260 0.234
69.1509 5.448 0.238
69.1713 5.667 0.243
69.1918 5.656 0.243
69.2123 5.292 0.235
69.2327 5.333 0.236
69.2532 5.594 0.241
69.2737 5.573 0.241
69.2941 5.250 0.234
69.3146 4.927 0.227
69.3350 4.781 0.223
69.3555 5.177 0.232
69.3760 4.583 0.219
69.3964 4.604 0.219
69.4169 5.198 0.233
69.4374 5.083 0.230
69.4578 4.802 0.224
69.4783 4.865 0.225
69.4988 4.708 0.221
69.5192 5.177 0.232
69.5397 4.875 0.225
69.5601 4.844 0.225
69.5806 4.844 0.225
69.6011 5.156 0.232
69.6215 4.677 0.221
69.6420 5.219 0.233
69.6625 5.396 0.237
69.6829 5.583 0.241
69.7034 5.115 0.231
69.7238 5.479 0.239
69.7443 4.708 0.221
69.7648 5.063 0.230
69.7852 5.063 0.230
69.8057 4.719 0.222
69.8262 4.604 0.219
69.8466 5.500 0.239
69.8671 5.104 0.231
69.8875 5.219 0.233
69.9080 5.167 0.232
69.9285 5.063 0.230
69.9489 5.375 0.237
69.9694 5.146 0.232
69.9899 5.125 0.231
70.0103 5.417 0.238
70.0308 5.646 0.243
70.0512 6.042 0.251
70.0717 5.260 0.234
70.0922 5.417 0.238
70.1126 5.635 0.242
70.1331 5.542 0.240
70.1536 5.583 0.241
70.1740 5.510 0.240
70.1945 5.552 0.240
70.2149 5.354 0.236
70.2354 5.688 0.243
70.2559 5.625 0.242
70.2763 5.396 0.237
70.2968 5.250 0.234
70.3173 5.354 0.236
70.3377 5.156 0.232
70.3582 5.063 0.230
70.3787 5.271 0.234
70.3991 5.229 0.233
70.4196 5.281 0.235
70.4400 5.615 0.242
70.4605 5.156 0.232
70.4810 5.042 0.229
70.5014 4.875 0.225
70.5219 4.896 0.226
70.5424 4.583 0.219
70.5628 4.771 0.223
70.5833 5.000 0.228
70.6037 5.125 0.231
70.6242 5.073 0.230
70.6447 4.833 0.224
70.6651 4.917 0.226
70.6856 5.365 0.236
70.7061 4.906 0.226
70.7265 5.000 0.228
70.7470 4.573 0.218
70.7674 5.281 0.235
70.7879 5.125 0.231
70.8084 4.865 0.225
70.8288 4.938 0.227
70.8493 5.073 0.230
70.8698 4.854 0.225
70.8902 4.719 0.222
70.9107 5.271 0.234
70.9311 5.000 0.228
70.9516 5.115 0.231
70.9721 5.125 0.231
70.9925 4.750 0.222
71.0130 4.458 0.216
71.0335 5.177 0.232
71.0539 5.219 0.233
71.0744 4.938 0.227
71.0948 4.510 0.217
71.1153 4.969 0.228
71.1358 5.146 0.232
71.1562 4.573 0.218
71.1767 4.604 0.219
71.1972 4.406 0.214
71.2176 4.448 0.215
71.2381 4.594 0.219
71.2586 5.073 0.230
71.2790 4.677 0.221
71.2995 5.063 0.230
71.3199 4.688 0.221
71.3404 4.333 0.212
71.3609 4.729 0.222
71.3813 4.698 0.221
71.4018 5.073 0.230
71.4223 4.896 0.226
71.4427 4.188 0.209
71.4632 4.448 0.215
71.4836 5.302 0.235
71.5041 4.708 0.221
71.5246 4.948 0.227
71.5450 5.146 0.232
71.5655 5.094 0.230
71.5860 5.240 0.234
71.6064 5.115 0.231
71.6269 5.219 0.233
71.6473 4.677 0.221
71.6678 5.135 0.231
71.6883 4.802 0.224
71.7087 5.021 0.229
71.7292 4.823 0.224
71.7497 4.698 0.221
71.7701 4.563 0.218
71.7906 4.927 0.227
71.8110 4.865 0.225
71.8315 4.969 0.228
71.8520 4.677 0.221
71.8724 4.615 0.219
71.8929 4.927 0.227
71.9134 4.833 0.224
71.9338 4.458 0.216
71.9543 4.833 0.224
71.9747 4.656 0.220
71.9952 4.677 0.221
72.0157 4.938 0.227
72.0361 5.073 0.230
72.0566 4.990 0.228
72.0771 4.969 0.228
72.0975 5.458 0.238
72.1180 5.396 0.237
72.1385 5.427 0.238
72.1589 5.365 0.236
72.1794 5.990 0.250
72.1998 5.510 0.240
72.2203 4.885 0.226
72.2408 5.000 0.228
72.2612 5.792 0.246
72.2817 5.552 0.240
72.3022 5.292 0.235
72.3226 5.156 0.232
72.3431 5.115 0.231
72.3635 5.250 0.234
72.3840 5.229 0.233
72.4045 5.583 0.241
72.4249 5.042 0.229
72.4454 4.823 0.224
72.4659 4.313 0.212
72.4863 4.865 0.225
72.5068 4.583 0.219
72.5272 4.802 0.224
72.5477 4.448 0.215
72.5682 4.594 0.219
72.5886 4.260 0.211
72.6091 4.615 0.219
72.6296 4.469 0.216
72.6500 4.635 0.220
72.6705 4.667 0.220
72.6909 4.323 0.212
72.7114 4.281 0.211
72.7319 4.333 0.212
72.7523 4.844 0.225
72.7728 4.771 0.223
72.7933 4.729 0.222
72.8137 4.615 0.219
72.8342 4.458 0.216
72.8547 5.188 0.232
72.8751 4.271 0.211
72.8956 4.656 0.220
72.9160 4.750 0.222
72.9365 4.479 0.216
72.9570 4.750 0.222
72.9774 4.729 0.222
72.9979 4.438 0.215
73.0184 4.854 0.225
73.0388 4.865 0.225
73.0593 4.583 0.219
73.0797 4.604 0.219
73.1002 4.615 0.219
73.1207 4.948 0.227
73.1411 4.625 0.219
73.1616 4.615 0.219
73.1821 4.458 0.216
73.2025 4.458 0.216
73.2230 4.854 0.225
73.2434 4.625 0.219
73.2639 4.385 0.214
73.2844 4.969 0.228
73.3048 4.990 0.228
73.3253 4.969 0.228
73.3458 4.604 0.219
73.3662 4.604 0.219
73.3867 4.417 0.214
73.4071 5.396 0.237
73.4276 4.625 0.219
73.4481 4.427 0.215
73.4685 4.719 0.222
73.4890 4.729 0.222
73.5095 4.521 0.217
73.5299 4.510 0.217
73.5504 4.552 0.218
73.5708 4.698 0.221
73.5913 4.969 0.228
73.6118 4.667 0.220
73.6322 4.323 0.212
73.6527 4.906 0.226
73.6732 4.990 0.228
73.6936 4.625 0.219
73.7141 4.688 0.221
73.7346 4.354 0.213
73.7550 4.729 0.222
73.7755 4.656 0.220
73.7959 4.708 0.221
73.8164 4.521 0.217
73.8369 4.479 0.216
73.8573 4.688 0.221
73.8778 4.469 0.216
73.8983 4.677 0.221
73.9187 4.729 0.222
73.9392 5.052 0.229
73.9596 5.260 0.234
73.9801 5.156 0.232
74.0006 5.146 0.232
74.0210 5.594 0.241
74.0415 4.958 0.227
74.0620 4.667 0.220
74.0824 4.771 0.223
74.1029 4.938 0.227
74.1233 4.688 0.221
74.1438 5.104 0.231
74.1643 5.115 0.231
74.1847 5.042 0.229
74.2052 4.677 0.221
74.2257 4.719 0.222
74.2461 4.573 0.218
74.2666 4.375 0.213
74.2870 4.635 0.220
74.3075 4.188 0.209
74.3280 3.990 0.204
74.3484 4.104 0.207
74.3689 4.427 0.215
74.3894 4.125 0.207
74.4098 4.479 0.216
74.4303 4.750 0.222
74.4507 4.615 0.219
74.4712 4.135 0.208
74.4917 4.448 0.215
74.5121 3.969 0.203
74.5326 4.115 0.207
74.5531 4.708 0.221
74.5735 3.927 0.202
74.5940 4.094 0.207
74.6145 4.813 0.224
74.6349 4.104 0.207
74.6554 4.292 0.211
74.6758 4.229 0.210
74.6963 4.042 0.205
74.7168 4.510 0.217
74.7372 4.031 0.205
74.7577 3.781 0.198
74.7782 4.115 0.207
74.7986 4.083 0.206
74.8191 4.750 0.222
74.8395 4.927 0.227
74.8600 4.104 0.207
74.8805 4.448 0.215
74.9009 4.896 0.226
74.9214 4.094 0.207
74.9419 4.490 0.216
74.9623 4.490 0.216
74.9828 4.573 0.218
75.0032 4.521 0.217
75.0237 4.094 0.207
75.0442 4.990 0.228
75.0646 4.677 0.221
75.0851 4.771 0.223
75.1056 4.385 0.214
75.1260 4.552 0.218
75.1465 3.990 0.204
75.1669 4.625 0.219
75.1874 4.813 0.224
75.2079 4.521 0.217
75.2283 4.573 0.218
75.2488 4.521 0.217
75.2693 5.000 0.228
75.2897 4.542 0.218
75.3102 4.771 0.223
75.3306 4.979 0.228
75.3511 4.406 0.214
75.3716 4.396 0.214
75.3920 4.063 0.206
75.4125 4.302 0.212
75.4330 4.125 0.207
75.4534 4.563 0.218
75.4739 4.448 0.215
75.4944 4.177 0.209
75.5148 5.010 0.228
75.5353 4.604 0.219
75.5557 4.750 0.222
75.5762 4.583 0.219
75.5967 4.354 0.213
75.6171 4.323 0.212
75.6376 4.365 0.213
75.6581 4.625 0.219
75.6785 4.313 0.212
75.6990 4.479 0.216
75.7194 4.740 0.222
75.7399 5.115 0.231
75.7604 4.677 0.221
75.7808 4.708 0.221
75.8013 5.406 0.237
75.8218 5.000 0.228
75.8422 5.292 0.235
75.8627 5.073 0.230
75.8831 5.094 0.230
75.9036 4.865 0.225
75.9241 5.375 0.237
75.9445 4.552 0.218
75.9650 4.875 0.225
75.9855 4.969 0.228
76.0059 4.844 0.225
76.0264 4.854 0.225
76.0468 4.990 0.228
76.0673 5.156 0.232
76.0878 5.229 0.233
76.1082 4.521 0.217
76.1287 4.563 0.218
76.1492 4.490 0.216
76.1696 4.708 0.221
76.1901 4.531 0.217
76.2105 4.677 0.221
76.2310 4.729 0.222
76.2515 4.583 0.219
76.2719 5.323 0.235
76.2924 4.740 0.222
76.3129 4.479 0.216
76.3333 4.573 0.218
76.3538 4.771 0.223
76.3743 3.958 0.203
76.3947 4.406 0.214
76.4152 4.375 0.213
76.4356 4.198 0.209
76.4561 4.344 0.213
76.4766 4.208 0.209
76.4970 4.073 0.206
76.5175 4.427 0.215
76.5380 4.583 0.219
76.5584 4.458 0.216
76.5789 4.323 0.212
76.5993 4.125 0.207
76.6198 4.427 0.215
76.6403 4.333 0.212
76.6607 4.625 0.219
76.6812 4.198 0.209
76.7017 4.354 0.213
76.7221 4.365 0.213
76.7426 4.385 0.214
76.7630 4.229 0.210
76.7835 4.271 0.211
76.8040 4.177 0.209
76.8244 3.906 0.202
76.8449 4.490 0.216
76.8654 4.063 0.206
76.8858 4.469 0.216
76.9063 4.208 0.209
76.9267 4.490 0.216
76.9472 4.104 0.207
76.9677 3.958 0.203
76.9881 4.500 0.217
77.0086 4.229 0.210
77.0291 4.313 0.212
77.0495 4.385 0.214
77.0700 4.333 0.212
77.0905 4.427 0.215
77.1109 4.573 0.218
77.1314 4.292 0.211
77.1518 4.052 0.205
77.1723 4.354 0.213
77.1928 4.208 0.209
77.2132 4.094 0.207
77.2337 4.448 0.215
77.2542 3.927 0.202
77.2746 4.448 0.215
77.2951 4.490 0.216
77.3155 4.531 0.217
77.3360 4.010 0.204
77.3565 4.292 0.211
77.3769 4.271 0.211
77.3974 4.260 0.211
77.4179 4.260 0.211
77.4383 4.760 0.223
77.4588 4.229 0.210
77.4792 4.042 0.205
77.4997 4.344 0.213
77.5202 3.938 0.203
77.5406 3.948 0.203
77.5611 4.646 0.220
77.5816 4.365 0.213
77.6020 4.823 0.224
77.6225 4.573 0.218
77.6429 4.333 0.212
77.6634 4.740 0.222
77.6839 4.594 0.219
77.7043 4.521 0.217
77.7248 4.729 0.222
77.7453 4.615 0.219
77.7657 4.490 0.216
77.7862 4.698 0.221
77.8066 5.260 0.234
77.8271 4.979 0.228
77.8476 4.625 0.219
77.8680 4.260 0.211
77.8885 4.865 0.225
77.9090 4.438 0.215
77.9294 4.646 0.220
77.9499 4.802 0.224
77.9704 4.969 0.228
77.9908 4.792 0.223
78.0113 4.688 0.221
78.0317 4.771 0.223
78.0522 4.531 0.217
78.0727 4.313 0.212
78.0931 4.729 0.222
78.1136 4.208 0.209
78.1341 4.625 0.219
78.1545 4.323 0.212
78.1750 4.542 0.218
78.1954 4.302 0.212
78.2159 3.906 0.202
78.2364 4.729 0.222
78.2568 4.531 0.217
78.2773 4.469 0.216
78.2978 4.833 0.224
78.3182 4.417 0.214
78.3387 4.875 0.225
78.3591 4.990 0.228
78.3796 4.458 0.216
78.4001 4.604 0.219
78.4205 4.302 0.212
78.4410 4.802 0.224
78.4615 5.094 0.230
78.4819 4.490 0.216
78.5024 4.865 0.225
78.5228 4.375 0.213
78.5433 4.479 0.216
78.5638 4.510 0.217
78.5842 4.677 0.221
78.6047 4.635 0.220
78.6252 4.354 0.213
78.6456 4.125 0.207
78.6661 4.490 0.216
78.6865 4.583 0.219
78.7070 4.438 0.215
78.7275 4.531 0.217
78.7479 4.208 0.209
78.7684 4.104 0.207
78.7889 4.271 0.211
78.8093 4.344 0.213
78.8298 4.563 0.218
78.8503 4.354 0.213
78.8707 4.365 0.213
78.8912 4.406 0.214
78.9116 4.208 0.209
78.9321 4.271 0.211
78.9526 4.135 0.208
78.9730 4.417 0.214
78.9935 4.406 0.214
79.0140 4.167 0.208
79.0344 4.688 0.221
79.0549 4.198 0.209
79.0753 4.063 0.206
79.0958 4.604 0.219
79.1163 4.563 0.218
79.1367 4.552 0.218
79.1572 4.115 0.207
79.1777 4.063 0.206
79.1981 4.229 0.210
79.2186 4.250 0.210
79.2390 4.177 0.209
79.2595 4.292 0.211
79.2800 4.656 0.220
79.3004 4.698 0.221
79.3209 4.396 0.214
79.3414 4.625 0.219
79.3618 4.469 0.216
79.3823 4.885 0.226
79.4027 4.438 0.215
79.4232 4.750 0.222
79.4437 5.052 0.229
79.4641 4.635 0.220
79.4846 5.021 0.229
79.5051 4.573 0.218
79.5255 4.375 0.213
79.5460 4.219 0.210
79.5664 4.490 0.216
79.5869 4.292 0.211
79.6074 4.333 0.212
79.6278 4.365 0.213
79.6483 4.875 0.225
79.6688 4.656 0.220
79.6892 4.438 0.215
79.7097 4.406 0.214
79.7302 4.615 0.219
79.7506 4.760 0.223
79.7711 4.740 0.222
79.7915 4.760 0.223
79.8120 4.094 0.207
79.8325 3.990 0.204
79.8529 4.260 0.211
79.8734 4.344 0.213
79.8939 4.750 0.222
79.9143 4.563 0.218
79.9348 3.917 0.202
79.9552 4.302 0.212
79.9757 4.323 0.212
79.9962 4.635 0.220
