'Id: "" Comment: "" Operator: "Lab Manager" Anode: "Cu" Scantype: "Locked Coupled" TimePerStep: "96" X: "0" Y: "0" Z: "0" 
5.0000 12.313 0.358
5.0205 12.781 0.365
5.0409 11.563 0.347
5.0614 12.260 0.357
5.0819 11.500 0.346
5.1023 11.958 0.353
5.1228 12.469 0.360
5.1432 11.615 0.348
5.1637 11.979 0.353
5.1842 11.938 0.353
5.2046 12.083 0.355
5.2251 11.771 0.350
5.2456 11.656 0.348
5.2660 11.385 0.344
5.2865 11.323 0.343
5.3069 11.771 0.350
5.3274 11.958 0.353
5.3479 11.729 0.350
5.3683 11.750 0.350
5.3888 11.677 0.349
5.4093 11.677 0.349
5.4297 11.688 0.349
5.4502 10.750 0.335
5.4706 11.708 0.349
5.4911 11.031 0.339
5.5116 11.490 0.346
5.5320 11.833 0.351
5.5525 11.042 0.339
5.5730 11.229 0.342
5.5934 11.156 0.341
5.6139 11.156 0.341
5.6343 11.302 0.343
5.6548 10.813 0.336
5.6753 10.510 0.331
5.6957 11.052 0.339
5.7162 10.958 0.338
5.7367 10.760 0.335
5.7571 11.406 0.345
5.7776 10.042 0.323
5.7980 10.563 0.332
5.8185 11.000 0.339
5.8390 11.135 0.341
5.8594 10.250 0.327
5.8799 10.573 0.332
5.9004 10.177 0.326
5.9208 10.073 0.324
5.9413 10.813 0.336
5.9618 10.104 0.324
5.9822 10.146 0.325
6.0027 10.542 0.331
6.0231 10.365 0.329
6.0436 10.771 0.335
6.0641 10.365 0.329
6.0845 10.229 0.326
6.1050 10.427 0.330
6.1255 11.125 0.340
6.1459 10.365 0.329
6.1664 10.448 0.330
6.1868 10.813 0.336
6.2073 10.542 0.331
6.2278 10.188 0.326
6.2482 9.969 0.322
6.2687 10.000 0.323
6.2892 10.469 0.330
6.3096 10.198 0.326
6.3301 9.563 0.316
6.3505 10.531 0.331
6.3710 10.010 0.323
6.3915 10.646 0.333
6.4119 10.854 0.336
6.4324 10.760 0.335
6.4529 10.771 0.335
6.4733 10.354 0.328
6.4938 10.177 0.326
6.5142 10.198 0.326
6.5347 10.917 0.337
6.5552 9.781 0.319
6.5756 10.573 0.332
6.5961 10.188 0.326
6.6166 10.125 0.325
6.6370 10.167 0.325
6.6575 10.906 0.337
6.6779 10.250 0.327
6.6984 10.500 0.331
6.7189 10.438 0.330
6.7393 10.771 0.335
6.7598 10.604 0.332
6.7803 10.583 0.332
6.8007 10.740 0.334
6.8212 10.698 0.334
6.8417 10.521 0.331
6.8621 10.719 0.334
6.8826 10.417 0.329
6.9030 10.781 0.335
6.9235 10.333 0.328
6.9440 9.740 0.319
6.9644 10.708 0.334
6.9849 10.740 0.334
7.0054 10.656 0.333
7.0258 10.490 0.331
7.0463 10.063 0.324
7.0667 10.490 0.331
7.0872 10.042 0.323
7.1077 9.844 0.320
7.1281 10.094 0.324
7.1486 10.792 0.335
7.1691 10.063 0.324
7.1895 9.646 0.317
7.2100 10.094 0.324
7.2304 10.000 0.323
7.2509 10.563 0.332
7.2714 10.010 0.323
7.2918 10.302 0.328
7.3123 9.813 0.320
7.3328 10.094 0.324
7.3532 10.531 0.331
7.3737 10.167 0.325
7.3941 9.656 0.317
7.4146 10.188 0.326
7.4351 9.990 0.323
7.4555 10.198 0.326
7.4760 10.354 0.328
7.4965 10.073 0.324
7.5169 10.260 0.327
7.5374 9.542 0.315
7.5579 9.615 0.316
7.5783 10.052 0.324
7.5988 10.208 0.326
7.6192 10.375 0.329
7.6397 9.396 0.313
7.6602 10.083 0.324
7.6806 9.490 0.314
7.7011 9.771 0.319
7.7216 9.573 0.316
7.7420 9.760 0.319
7.7625 9.729 0.318
7.7829 9.542 0.315
7.8034 9.823 0.320
7.8239 9.760 0.319
7.8443 9.438 0.314
7.8648 9.563 0.316
7.8853 10.292 0.327
7.9057 10.219 0.326
7.9262 9.938 0.322
7.9466 10.021 0.323
7.9671 10.052 0.324
7.9876 9.625 0.317
8.0080 9.604 0.316
8.0285 9.615 0.316
8.0490 9.396 0.313
8.0694 9.406 0.313
8.0899 9.823 0.320
8.1103 10.219 0.326
8.1308 10.500 0.331
8.1513 9.948 0.322
8.1717 9.594 0.316
8.1922 9.740 0.319
8.2127 9.906 0.321
8.2331 9.906 0.321
8.2536 10.406 0.329
8.2740 10.698 0.334
8.2945 9.865 0.321
8.3150 10.115 0.325
8.3354 9.375 0.313
8.3559 9.604 0.316
8.3764 9.563 0.316
8.3968 9.792 0.319
8.4173 9.594 0.316
8.4378 9.813 0.320
8.4582 9.115 0.308
8.4787 10.083 0.324
8.4991 9.531 0.315
8.5196 9.646 0.317
8.5401 9.396 0.313
8.5605 9.969 0.322
8.5810 9.177 0.309
8.6015 9.354 0.312
8.6219 9.948 0.322
8.6424 9.333 0.312
8.6628 8.740 0.302
8.6833 9.906 0.321
8.7038 9.375 0.313
8.7242 9.500 0.315
8.7447 9.531 0.315
8.7652 9.344 0.312
8.7856 9.625 0.317
8.8061 10.208 0.326
8.8265 10.323 0.328
8.8470 9.406 0.313
8.8675 10.292 0.327
8.8879 10.010 0.323
8.9084 10.146 0.325
8.9289 9.979 0.322
8.9493 10.667 0.333
8.9698 10.396 0.329
8.9902 10.979 0.338
9.0107 11.885 0.352
9.0312 12.771 0.365
9.0516 14.208 0.385
9.0721 16.417 0.414
9.0926 20.927 0.467
9.1130 28.656 0.546
9.1335 37.969 0.629
9.1539 50.990 0.729
9.1744 54.104 0.751
9.1949 35.396 0.607
9.2153 18.323 0.437
9.2358 11.865 0.352
9.2563 10.781 0.335
9.2767 10.083 0.324
9.2972 10.000 0.323
9.3177 9.969 0.322
9.3381 9.979 0.322
9.3586 9.969 0.322
9.3790 10.552 0.332
9.3995 9.729 0.318
9.4200 10.104 0.324
9.4404 9.604 0.316
9.4609 9.219 0.310
9.4814 8.958 0.305
9.5018 9.417 0.313
9.5223 9.469 0.314
9.5427 9.698 0.318
9.5632 9.146 0.309
9.5837 9.302 0.311
9.6041 8.938 0.305
9.6246 9.854 0.320
9.6451 9.479 0.314
9.6655 9.677 0.317
9.6860 9.708 0.318
9.7064 9.927 0.322
9.7269 9.344 0.312
9.7474 9.292 0.311
9.7678 9.594 0.316
9.7883 9.698 0.318
9.8088 9.417 0.313
9.8292 9.385 0.313
9.8497 9.354 0.312
9.8701 8.979 0.306
9.8906 9.323 0.312
9.9111 9.729 0.318
9.9315 9.438 0.314
9.9520 9.115 0.308
9.9725 9.406 0.313
9.9929 10.042 0.323
10.0134 9.417 0.313
10.0338 9.500 0.315
10.0543 9.844 0.320
10.0748 9.521 0.315
10.0952 9.281 0.311
10.1157 8.844 0.304
10.1362 9.458 0.314
10.1566 9.042 0.307
10.1771 9.292 0.311
10.1976 9.417 0.313
10.2180 9.354 0.312
10.2385 9.302 0.311
10.2589 8.719 0.301
10.2794 9.031 0.307
10.2999 9.646 0.317
10.3203 9.188 0.309
10.3408 9.281 0.311
10.3613 9.250 0.310
10.3817 9.021 0.307
10.4022 9.094 0.308
10.4226 9.042 0.307
10.4431 8.990 0.306
10.4636 8.500 0.298
10.4840 9.229 0.310
10.5045 9.833 0.320
10.5250 8.979 0.306
10.5454 8.625 0.300
10.5659 8.844 0.304
10.5863 9.521 0.315
10.6068 8.833 0.303
10.6273 8.500 0.298
10.6477 9.354 0.312
10.6682 9.354 0.312
10.6887 9.073 0.307
10.7091 9.240 0.310
10.7296 9.000 0.306
10.7500 8.969 0.306
10.7705 8.563 0.299
10.7910 8.927 0.305
10.8114 9.031 0.307
10.8319 8.521 0.298
10.8524 9.313 0.311
10.8728 8.479 0.297
10.8933 8.469 0.297
10.9137 9.063 0.307
10.9342 9.010 0.306
10.9547 8.750 0.302
10.9751 8.865 0.304
10.9956 8.615 0.300
11.0161 8.979 0.306
11.0365 8.406 0.296
11.0570 8.854 0.304
11.0775 8.823 0.303
11.0979 8.031 0.289
11.1184 8.292 0.294
11.1388 8.458 0.297
11.1593 8.323 0.294
11.1798 8.896 0.304
11.2002 8.406 0.296
11.2207 8.458 0.297
11.2412 8.594 0.299
11.2616 8.729 0.302
11.2821 8.448 0.297
11.3025 8.594 0.299
11.3230 8.604 0.299
11.3435 8.844 0.304
11.3639 8.292 0.294
11.3844 8.677 0.301
11.4049 7.938 0.288
11.4253 8.698 0.301
11.4458 8.156 0.291
11.4662 8.490 0.297
11.4867 8.729 0.302
11.5072 8.177 0.292
11.5276 8.344 0.295
11.5481 8.260 0.293
11.5686 7.906 0.287
11.5890 8.083 0.290
11.6095 8.646 0.300
11.6299 8.490 0.297
11.6504 7.865 0.286
11.6709 7.813 0.285
11.6913 7.740 0.284
11.7118 8.573 0.299
11.7323 8.448 0.297
11.7527 8.167 0.292
11.7732 8.219 0.293
11.7937 8.521 0.298
11.8141 8.677 0.301
11.8346 7.948 0.288
11.8550 8.333 0.295
11.8755 8.240 0.293
11.8960 7.927 0.287
11.9164 7.990 0.288
11.9369 8.615 0.300
11.9574 8.448 0.297
11.9778 8.281 0.294
11.9983 7.406 0.278
12.0187 8.219 0.293
12.0392 7.990 0.288
12.0597 8.531 0.298
12.0801 8.260 0.293
12.1006 8.510 0.298
12.1211 7.729 0.284
12.1415 7.990 0.288
12.1620 8.313 0.294
12.1824 8.292 0.294
12.2029 7.719 0.284
12.2234 7.865 0.286
12.2438 7.354 0.277
12.2643 7.833 0.286
12.2848 8.094 0.290
12.3052 8.552 0.298
12.3257 7.635 0.282
12.3461 8.313 0.294
12.3666 8.167 0.292
12.3871 7.760 0.284
12.4075 7.927 0.287
12.4280 7.854 0.286
12.4485 8.469 0.297
12.4689 7.490 0.279
12.4894 8.094 0.290
12.5098 7.573 0.281
12.5303 7.917 0.287
12.5508 7.750 0.284
12.5712 7.594 0.281
12.5917 7.396 0.278
12.6122 7.281 0.275
12.6326 7.458 0.279
12.6531 7.490 0.279
12.6736 7.292 0.276
12.6940 7.875 0.286
12.7145 7.302 0.276
12.7349 7.615 0.282
12.7554 7.563 0.281
12.7759 7.188 0.274
12.7963 7.750 0.284
12.8168 7.115 0.272
12.8373 7.646 0.282
12.8577 7.781 0.285
12.8782 7.844 0.286
12.8986 7.292 0.276
12.9191 7.188 0.274
12.9396 7.521 0.280
12.9600 7.708 0.283
12.9805 7.729 0.284
13.0010 7.229 0.274
13.0214 7.552 0.280
13.0419 6.917 0.268
13.0623 7.219 0.274
13.0828 7.198 0.274
13.1033 7.365 0.277
13.1237 7.271 0.275
13.1442 6.760 0.265
13.1647 7.156 0.273
13.1851 7.073 0.271
13.2056 7.188 0.274
13.2260 7.667 0.283
13.2465 7.615 0.282
13.2670 7.323 0.276
13.2874 7.490 0.279
13.3079 7.417 0.278
13.3284 7.438 0.278
13.3488 7.021 0.270
13.3693 7.635 0.282
13.3897 7.885 0.287
13.4102 7.781 0.285
13.4307 7.500 0.280
13.4511 7.073 0.271
13.4716 7.031 0.271
13.4921 7.427 0.278
13.5125 7.438 0.278
13.5330 7.146 0.273
13.5535 7.094 0.272
13.5739 7.542 0.280
13.5944 7.677 0.283
13.6148 7.979 0.288
13.6353 9.833 0.320
13.6558 11.594 0.348
13.6762 12.760 0.365
13.6967 11.719 0.349
13.7172 10.250 0.327
13.7376 8.771 0.302
13.7581 7.292 0.276
13.7785 6.667 0.264
13.7990 7.146 0.273
13.8195 7.146 0.273
13.8399 7.135 0.273
13.8604 7.302 0.276
13.8809 6.729 0.265
13.9013 7.177 0.273
13.9218 7.031 0.271
13.9422 6.604 0.262
13.9627 6.510 0.260
13.9832 7.385 0.277
14.0036 7.292 0.276
14.0241 6.938 0.269
14.0446 6.542 0.261
14.0650 6.542 0.261
14.0855 6.656 0.263
14.1059 6.719 0.265
14.1264 7.094 0.272
14.1469 6.781 0.266
14.1673 7.281 0.275
14.1878 7.104 0.272
14.2083 6.719 0.265
14.2287 6.469 0.260
14.2492 6.604 0.262
14.2696 6.031 0.251
14.2901 6.927 0.269
14.3106 7.094 0.272
14.3310 6.542 0.261
14.3515 6.573 0.262
14.3720 6.260 0.255
14.3924 6.833 0.267
14.4129 7.167 0.273
14.4334 7.021 0.270
14.4538 6.813 0.266
14.4743 6.948 0.269
14.4947 6.844 0.267
14.5152 6.583 0.262
14.5357 7.021 0.270
14.5561 6.844 0.267
14.5766 6.583 0.262
14.5971 6.854 0.267
14.6175 6.875 0.268
14.6380 6.729 0.265
14.6584 6.583 0.262
14.6789 6.750 0.265
14.6994 6.833 0.267
14.7198 7.010 0.270
14.7403 6.469 0.260
14.7608 6.313 0.256
14.7812 6.323 0.257
14.8017 6.854 0.267
14.8221 6.427 0.259
14.8426 6.615 0.262
14.8631 6.688 0.264
14.8835 6.135 0.253
14.9040 6.260 0.255
14.9245 5.823 0.246
14.9449 6.573 0.262
14.9654 6.406 0.258
14.9858 7.188 0.274
15.0063 5.813 0.246
15.0268 6.552 0.261
15.0472 6.479 0.260
15.0677 7.323 0.276
15.0882 6.302 0.256
15.1086 6.740 0.265
15.1291 6.521 0.261
15.1495 6.750 0.265
15.1700 6.615 0.262
15.1905 6.188 0.254
15.2109 6.646 0.263
15.2314 6.708 0.264
15.2519 6.427 0.259
15.2723 6.823 0.267
15.2928 6.646 0.263
15.3133 5.875 0.247
15.3337 6.188 0.254
15.3542 6.719 0.265
15.3746 6.302 0.256
15.3951 6.406 0.258
15.4156 6.438 0.259
15.4360 6.385 0.258
15.4565 6.938 0.269
15.4770 6.563 0.261
15.4974 6.573 0.262
15.5179 6.302 0.256
15.5383 6.385 0.258
15.5588 6.448 0.259
15.5793 7.271 0.275
15.5997 6.458 0.259
15.6202 6.729 0.265
15.6407 6.698 0.264
15.6611 6.656 0.263
15.6816 6.646 0.263
15.7020 7.354 0.277
15.7225 6.938 0.269
15.7430 7.438 0.278
15.7634 8.354 0.295
15.7839 10.250 0.327
15.8044 13.271 0.372
15.8248 19.479 0.450
15.8453 21.854 0.477
15.8657 17.479 0.427
15.8862 13.573 0.376
15.9067 9.167 0.309
15.9271 6.740 0.265
15.9476 7.365 0.277
15.9681 6.292 0.256
15.9885 6.531 0.261
16.0090 6.448 0.259
16.0295 6.135 0.253
16.0499 6.219 0.255
16.0704 6.083 0.252
16.0908 6.438 0.259
16.1113 6.573 0.262
16.1318 6.094 0.252
16.1522 6.063 0.251
16.1727 5.667 0.243
16.1932 6.073 0.252
16.2136 5.594 0.241
16.2341 6.229 0.255
16.2545 6.177 0.254
16.2750 6.000 0.250
16.2955 6.083 0.252
16.3159 5.979 0.250
16.3364 6.125 0.253
16.3569 5.833 0.247
16.3773 6.219 0.255
16.3978 6.167 0.253
16.4182 6.010 0.250
16.4387 5.719 0.244
16.4592 5.875 0.247
16.4796 5.656 0.243
16.5001 6.510 0.260
16.5206 6.198 0.254
16.5410 6.177 0.254
16.5615 6.042 0.251
16.5819 5.521 0.240
16.6024 6.156 0.253
16.6229 5.635 0.242
16.6433 6.104 0.252
16.6638 5.479 0.239
16.6843 6.229 0.255
16.7047 5.521 0.240
16.7252 5.885 0.248
16.7456 6.021 0.250
16.7661 6.208 0.254
16.7866 5.948 0.249
16.8070 6.073 0.252
16.8275 5.906 0.248
16.8480 5.844 0.247
16.8684 6.000 0.250
16.8889 5.948 0.249
16.9094 5.906 0.248
16.9298 6.302 0.256
16.9503 5.969 0.249
16.9707 5.656 0.243
16.9912 5.896 0.248
17.0117 5.698 0.244
17.0321 5.854 0.247
17.0526 5.740 0.245
17.0731 6.365 0.257
17.0935 5.896 0.248
17.1140 5.823 0.246
17.1344 6.010 0.250
17.1549 6.115 0.252
17.1754 5.729 0.244
17.1958 5.844 0.247
17.2163 5.750 0.245
17.2368 5.865 0.247
17.2572 5.854 0.247
17.2777 6.313 0.256
17.2981 6.615 0.262
17.3186 5.677 0.243
17.3391 5.906 0.248
17.3595 6.542 0.261
17.3800 5.604 0.242
17.4005 6.490 0.260
17.4209 5.875 0.247
17.4414 6.073 0.252
17.4618 6.146 0.253
17.4823 5.781 0.245
17.5028 6.344 0.257
17.5232 6.177 0.254
17.5437 5.917 0.248
17.5642 6.667 0.264
17.5846 6.656 0.263
17.6051 6.198 0.254
17.6255 6.125 0.253
17.6460 6.573 0.262
17.6665 6.760 0.265
17.6869 6.198 0.254
17.7074 6.104 0.252
17.7279 6.385 0.258
17.7483 6.531 0.261
17.7688 6.417 0.259
17.7893 6.646 0.263
17.8097 7.271 0.275
17.8302 7.073 0.271
17.8506 7.385 0.277
17.8711 8.510 0.298
17.8916 8.208 0.292
17.9120 7.833 0.286
17.9325 7.531 0.280
17.9530 6.948 0.269
17.9734 7.760 0.284
17.9939 6.813 0.266
18.0143 6.635 0.263
18.0348 7.229 0.274
18.0553 6.604 0.262
18.0757 7.354 0.277
18.0962 6.833 0.267
18.1167 7.365 0.277
18.1371 7.208 0.274
18.1576 7.792 0.285
18.1780 6.833 0.267
18.1985 7.417 0.278
18.2190 7.458 0.279
18.2394 6.760 0.265
18.2599 7.063 0.271
18.2804 7.292 0.276
18.3008 8.323 0.294
18.3213 7.760 0.284
18.3417 7.365 0.277
18.3622 7.031 0.271
18.3827 6.458 0.259
18.4031 6.385 0.258
18.4236 6.510 0.260
18.4441 6.823 0.267
18.4645 6.688 0.264
18.4850 6.594 0.262
18.5054 6.604 0.262
18.5259 6.156 0.253
18.5464 6.240 0.255
18.5668 6.510 0.260
18.5873 6.229 0.255
18.6078 5.958 0.249
18.6282 6.323 0.257
18.6487 6.146 0.253
18.6692 6.156 0.253
18.6896 6.219 0.255
18.7101 6.365 0.257
18.7305 6.281 0.256
18.7510 6.042 0.251
18.7715 5.927 0.248
18.7919 6.115 0.252
18.8124 5.802 0.246
18.8329 6.563 0.261
18.8533 5.698 0.244
18.8738 6.458 0.259
18.8942 6.469 0.260
18.9147 7.313 0.276
18.9352 8.198 0.292
18.9556 8.813 0.303
18.9761 6.896 0.268
18.9966 7.167 0.273
19.0170 6.240 0.255
19.0375 5.792 0.246
19.0579 5.781 0.245
19.0784 6.177 0.254
19.0989 6.313 0.256
19.1193 5.406 0.237
19.1398 5.958 0.249
19.1603 5.552 0.240
19.1807 6.000 0.250
19.2012 5.625 0.242
19.2216 5.781 0.245
19.2421 5.896 0.248
19.2626 5.625 0.242
19.2830 5.750 0.245
19.3035 5.573 0.241
19.3240 6.135 0.253
19.3444 6.615 0.262
19.3649 6.365 0.257
19.3853 6.740 0.265
19.4058 6.760 0.265
19.4263 5.958 0.249
19.4467 5.948 0.249
19.4672 5.792 0.246
19.4877 5.896 0.248
19.5081 5.417 0.238
19.5286 5.740 0.245
19.5491 5.458 0.238
19.5695 5.969 0.249
19.5900 5.375 0.237
19.6104 5.063 0.230
19.6309 5.208 0.233
19.6514 5.656 0.243
19.6718 5.438 0.238
19.6923 5.583 0.241
19.7128 5.771 0.245
19.7332 5.823 0.246
19.7537 5.333 0.236
19.7741 4.896 0.226
19.7946 5.188 0.232
19.8151 5.260 0.234
19.8355 5.375 0.237
19.8560 4.792 0.223
19.8765 5.750 0.245
19.8969 5.604 0.242
19.9174 5.521 0.240
19.9378 5.177 0.232
19.9583 5.906 0.248
19.9788 5.000 0.228
19.9992 5.385 0.237
20.0197 5.469 0.239
20.0402 5.563 0.241
20.0606 5.344 0.236
20.0811 5.354 0.236
20.1015 5.427 0.238
20.1220 5.490 0.239
20.1425 5.250 0.234
20.1629 5.396 0.237
20.1834 5.104 0.231
20.2039 5.760 0.245
20.2243 5.396 0.237
20.2448 5.406 0.237
20.2653 5.708 0.244
20.2857 5.969 0.249
20.3062 5.281 0.235
20.3266 5.573 0.241
20.3471 5.750 0.245
20.3676 6.115 0.252
20.3880 5.771 0.245
20.4085 6.031 0.251
20.4290 5.635 0.242
20.4494 5.719 0.244
20.4699 5.698 0.244
20.4903 5.771 0.245
20.5108 5.771 0.245
20.5313 5.719 0.244
20.5517 6.615 0.262
20.5722 6.344 0.257
20.5927 5.740 0.245
20.6131 6.052 0.251
20.6336 5.948 0.249
20.6540 5.958 0.249
20.6745 5.906 0.248
20.6950 6.063 0.251
20.7154 5.719 0.244
20.7359 5.917 0.248
20.7564 5.490 0.239
20.7768 5.635 0.242
20.7973 5.510 0.240
20.8177 5.708 0.244
20.8382 5.604 0.242
20.8587 5.385 0.237
20.8791 5.885 0.248
20.8996 5.344 0.236
20.9201 5.552 0.240
20.9405 5.813 0.246
20.9610 5.500 0.239
20.9814 5.385 0.237
21.0019 5.885 0.248
21.0224 5.375 0.237
21.0428 5.094 0.230
21.0633 5.292 0.235
21.0838 4.854 0.225
21.1042 5.198 0.233
21.1247 5.177 0.232
21.1452 5.083 0.230
21.1656 5.010 0.228
21.1861 5.094 0.230
21.2065 5.167 0.232
21.2270 5.302 0.235
21.2475 5.271 0.234
21.2679 5.604 0.242
21.2884 5.063 0.230
21.3089 5.427 0.238
21.3293 5.135 0.231
21.3498 5.583 0.241
21.3702 5.156 0.232
21.3907 5.583 0.241
21.4112 5.521 0.240
21.4316 5.802 0.246
21.4521 5.531 0.240
21.4726 5.229 0.233
21.4930 5.177 0.232
21.5135 5.167 0.232
21.5339 5.052 0.229
21.5544 5.063 0.230
21.5749 4.865 0.225
21.5953 5.000 0.228
21.6158 4.844 0.225
21.6363 4.823 0.224
21.6567 5.469 0.239
21.6772 4.823 0.224
21.6976 4.646 0.220
21.7181 5.406 0.237
21.7386 5.156 0.232
21.7590 5.135 0.231
21.7795 5.073 0.230
21.8000 5.146 0.232
21.8204 5.177 0.232
21.8409 4.854 0.225
21.8613 4.354 0.213
21.8818 4.646 0.220
21.9023 5.229 0.233
21.9227 5.354 0.236
21.9432 5.021 0.229
21.9637 5.115 0.231
21.9841 5.156 0.232
22.0046 5.302 0.235
22.0251 5.365 0.236
22.0455 5.031 0.229
22.0660 5.292 0.235
22.0864 5.490 0.239
22.1069 5.188 0.232
22.1274 5.281 0.235
22.1478 5.385 0.237
22.1683 5.563 0.241
22.1888 5.365 0.236
22.2092 5.604 0.242
22.2297 5.406 0.237
22.2501 5.042 0.229
22.2706 4.885 0.226
22.2911 4.865 0.225
22.3115 4.490 0.216
22.3320 4.813 0.224
22.3525 5.010 0.228
22.3729 5.042 0.229
22.3934 4.688 0.221
22.4138 5.177 0.232
22.4343 4.688 0.221
22.4548 4.719 0.222
22.4752 5.198 0.233
22.4957 4.865 0.225
22.5162 5.167 0.232
22.5366 5.490 0.239
22.5571 5.396 0.237
22.5775 4.885 0.226
22.5980 5.375 0.237
22.6185 4.823 0.224
22.6389 4.656 0.220
22.6594 4.521 0.217
22.6799 5.052 0.229
22.7003 4.427 0.215
22.7208 5.010 0.228
22.7412 4.760 0.223
22.7617 5.448 0.238
22.7822 4.948 0.227
22.8026 4.927 0.227
22.8231 5.104 0.231
22.8436 5.135 0.231
22.8640 5.021 0.229
22.8845 5.156 0.232
22.9050 6.156 0.253
22.9254 6.906 0.268
22.9459 8.313 0.294
22.9663 10.188 0.326
22.9868 9.656 0.317
23.0073 8.250 0.293
23.0277 7.802 0.285
23.0482 8.208 0.292
23.0687 6.448 0.259
23.0891 6.094 0.252
23.1096 6.302 0.256
23.1300 6.438 0.259
23.1505 6.510 0.260
23.1710 6.833 0.267
23.1914 6.094 0.252
23.2119 6.240 0.255
23.2324 6.198 0.254
23.2528 6.563 0.261
23.2733 6.813 0.266
23.2937 6.542 0.261
23.3142 6.344 0.257
23.3347 6.542 0.261
23.3551 6.219 0.255
23.3756 6.302 0.256
23.3961 6.792 0.266
23.4165 7.823 0.285
23.4370 7.615 0.282
23.4574 8.948 0.305
23.4779 10.302 0.328
23.4984 10.771 0.335
23.5188 11.990 0.353
23.5393 12.521 0.361
23.5598 13.323 0.373
23.5802 13.813 0.379
23.6007 15.656 0.404
23.6211 18.458 0.438
23.6416 23.771 0.498
23.6621 35.375 0.607
23.6825 59.802 0.789
23.7030 123.542 1.134
23.7235 247.979 1.607
23.7439 394.885 2.028
23.7644 313.719 1.808
23.7849 208.750 1.475
23.8053 217.094 1.504
23.8258 139.063 1.204
23.8462 54.781 0.755
23.8667 28.208 0.542
23.8872 19.552 0.451
23.9076 16.010 0.408
23.9281 15.479 0.402
23.9486 14.135 0.384
23.9690 13.146 0.370
23.9895 11.833 0.351
24.0099 10.927 0.337
24.0304 9.573 0.316
24.0509 8.260 0.293
24.0713 7.542 0.280
24.0918 6.688 0.264
24.1123 6.198 0.254
24.1327 6.688 0.264
24.1532 6.708 0.264
24.1736 6.083 0.252
24.1941 6.375 0.258
24.2146 6.354 0.257
24.2350 6.458 0.259
24.2555 6.646 0.263
24.2760 6.510 0.260
24.2964 6.125 0.253
24.3169 6.552 0.261
24.3373 6.490 0.260
24.3578 6.250 0.255
24.3783 6.427 0.259
24.3987 6.396 0.258
24.4192 5.688 0.243
24.4397 5.479 0.239
24.4601 5.115 0.231
24.4806 5.052 0.229
24.5011 6.115 0.252
24.5215 6.000 0.250
24.5420 5.438 0.238
24.5624 5.354 0.236
24.5829 5.594 0.241
24.6034 5.344 0.236
24.6238 5.948 0.249
24.6443 5.521 0.240
24.6648 5.115 0.231
24.6852 5.552 0.240
24.7057 5.885 0.248
24.7261 5.688 0.243
24.7466 6.281 0.256
24.7671 5.885 0.248
24.7875 5.823 0.246
24.8080 6.302 0.256
24.8285 5.865 0.247
24.8489 5.260 0.234
24.8694 5.250 0.234
24.8898 5.354 0.236
24.9103 5.771 0.245
24.9308 5.844 0.247
24.9512 5.719 0.244
24.9717 5.042 0.229
24.9922 5.563 0.241
25.0126 5.510 0.240
25.0331 5.052 0.229
25.0535 5.583 0.241
25.0740 5.083 0.230
25.0945 4.677 0.221
25.1149 5.052 0.229
25.1354 5.240 0.234
25.1559 4.979 0.228
25.1763 5.229 0.233
25.1968 5.125 0.231
25.2172 5.021 0.229
25.2377 5.219 0.233
25.2582 5.469 0.239
25.2786 5.135 0.231
25.2991 4.719 0.222
25.3196 5.500 0.239
25.3400 5.073 0.230
25.3605 4.563 0.218
25.3810 5.271 0.234
25.4014 5.042 0.229
25.4219 5.260 0.234
25.4423 5.010 0.228
25.4628 5.010 0.228
25.4833 5.083 0.230
25.5037 5.292 0.235
25.5242 5.427 0.238
25.5447 5.115 0.231
25.5651 5.521 0.240
25.5856 5.010 0.228
25.6060 5.698 0.244
25.6265 6.135 0.253
25.6470 7.500 0.280
25.6674 7.917 0.287
25.6879 6.646 0.263
25.7084 6.396 0.258
25.7288 5.969 0.249
25.7493 6.240 0.255
25.7697 5.417 0.238
25.7902 5.240 0.234
25.8107 4.896 0.226
25.8311 5.125 0.231
25.8516 4.885 0.226
25.8721 4.781 0.223
25.8925 5.021 0.229
25.9130 5.354 0.236
25.9334 4.875 0.225
25.9539 5.375 0.237
25.9744 5.063 0.230
25.9948 4.604 0.219
26.0153 4.802 0.224
26.0358 4.875 0.225
26.0562 5.156 0.232
26.0767 5.583 0.241
26.0971 5.365 0.236
26.1176 5.073 0.230
26.1381 4.594 0.219
26.1585 4.823 0.224
26.1790 4.927 0.227
26.1995 5.177 0.232
26.2199 5.115 0.231
26.2404 4.854 0.225
26.2609 4.917 0.226
26.2813 4.740 0.222
26.3018 4.802 0.224
26.3222 4.938 0.227
26.3427 4.927 0.227
26.3632 4.823 0.224
26.3836 4.885 0.226
26.4041 4.948 0.227
26.4246 4.990 0.228
26.4450 5.031 0.229
26.4655 5.156 0.232
26.4859 5.135 0.231
26.5064 5.177 0.232
26.5269 4.740 0.222
26.5473 5.021 0.229
26.5678 4.729 0.222
26.5883 5.104 0.231
26.6087 4.844 0.225
26.6292 4.906 0.226
26.6496 5.323 0.235
26.6701 5.229 0.233
26.6906 5.156 0.232
26.7110 4.792 0.223
26.7315 5.083 0.230
26.7520 5.156 0.232
26.7724 4.688 0.221
26.7929 5.188 0.232
26.8133 4.990 0.228
26.8338 4.719 0.222
26.8543 4.396 0.214
26.8747 5.021 0.229
26.8952 5.115 0.231
26.9157 4.958 0.227
26.9361 4.844 0.225
26.9566 4.750 0.222
26.9770 5.073 0.230
26.9975 5.104 0.231
27.0180 4.698 0.221
27.0384 4.979 0.228
27.0589 5.240 0.234
27.0794 4.833 0.224
27.0998 4.677 0.221
27.1203 5.385 0.237
27.1408 5.208 0.233
27.1612 5.104 0.231
27.1817 5.594 0.241
27.2021 5.458 0.238
27.2226 5.333 0.236
27.2431 5.563 0.241
27.2635 5.563 0.241
27.2840 5.781 0.245
27.3045 5.802 0.246
27.3249 5.427 0.238
27.3454 5.229 0.233
27.3658 6.135 0.253
27.3863 7.146 0.273
27.4068 8.000 0.289
27.4272 11.198 0.342
27.4477 18.031 0.433
27.4682 28.594 0.546
27.4886 26.688 0.527
27.5091 17.802 0.431
27.5295 18.281 0.436
27.5500 21.573 0.474
27.5705 14.458 0.388
27.5909 8.365 0.295
27.6114 8.135 0.291
27.6319 7.875 0.286
27.6523 6.615 0.262
27.6728 5.563 0.241
27.6932 5.896 0.248
27.7137 5.260 0.234
27.7342 5.479 0.239
27.7546 5.375 0.237
27.7751 5.396 0.237
27.7956 5.281 0.235
27.8160 5.156 0.232
27.8365 5.427 0.238
27.8569 5.083 0.230
27.8774 5.094 0.230
27.8979 5.417 0.238
27.9183 5.042 0.229
27.9388 5.385 0.237
27.9593 5.042 0.229
27.9797 4.823 0.224
28.0002 5.146 0.232
28.0207 4.885 0.226
28.0411 4.844 0.225
28.0616 5.240 0.234
28.0820 5.313 0.235
28.1025 5.313 0.235
28.1230 5.083 0.230
28.1434 5.094 0.230
28.1639 5.406 0.237
28.1844 5.313 0.235
28.2048 4.875 0.225
28.2253 5.521 0.240
28.2457 5.563 0.241
28.2662 4.865 0.225
28.2867 5.115 0.231
28.3071 5.604 0.242
28.3276 5.313 0.235
28.3481 5.396 0.237
28.3685 5.458 0.238
28.3890 5.396 0.237
28.4094 5.344 0.236
28.4299 4.802 0.224
28.4504 5.490 0.239
28.4708 5.302 0.235
28.4913 5.083 0.230
28.5118 4.969 0.228
28.5322 5.260 0.234
28.5527 4.979 0.228
28.5731 5.406 0.237
28.5936 5.208 0.233
28.6141 4.760 0.223
28.6345 5.104 0.231
28.6550 4.823 0.224
28.6755 5.219 0.233
28.6959 4.677 0.221
28.7164 4.635 0.220
28.7368 4.792 0.223
28.7573 4.927 0.227
28.7778 4.958 0.227
28.7982 4.823 0.224
28.8187 5.021 0.229
28.8392 4.844 0.225
28.8596 4.531 0.217
28.8801 4.875 0.225
28.9006 4.823 0.224
28.9210 4.760 0.223
28.9415 4.760 0.223
28.9619 4.792 0.223
28.9824 4.552 0.218
29.0029 4.292 0.211
29.0233 4.604 0.219
29.0438 4.563 0.218
29.0643 4.302 0.212
29.0847 4.719 0.222
29.1052 5.021 0.229
29.1256 4.906 0.226
29.1461 4.792 0.223
29.1666 4.677 0.221
29.1870 4.875 0.225
29.2075 4.604 0.219
29.2280 4.667 0.220
29.2484 4.760 0.223
29.2689 5.250 0.234
29.2893 5.063 0.230
29.3098 4.885 0.226
29.3303 4.594 0.219
29.3507 4.792 0.223
29.3712 4.500 0.217
29.3917 4.917 0.226
29.4121 4.854 0.225
29.4326 5.229 0.233
29.4530 4.948 0.227
29.4735 4.063 0.206
29.4940 4.552 0.218
29.5144 5.104 0.231
29.5349 4.729 0.222
29.5554 4.917 0.226
29.5758 5.063 0.230
29.5963 5.094 0.230
29.6168 4.906 0.226
29.6372 4.948 0.227
29.6577 5.542 0.240
29.6781 4.792 0.223
29.6986 5.396 0.237
29.7191 5.031 0.229
29.7395 4.833 0.224
29.7600 5.010 0.228
29.7805 4.302 0.212
29.8009 4.313 0.212
29.8214 4.948 0.227
29.8418 5.021 0.229
29.8623 5.156 0.232
29.8828 5.031 0.229
29.9032 5.021 0.229
29.9237 5.333 0.236
29.9442 5.406 0.237
29.9646 4.906 0.226
29.9851 5.042 0.229
30.0055 5.406 0.237
30.0260 5.615 0.242
30.0465 5.000 0.228
30.0669 6.229 0.255
30.0874 5.990 0.250
30.1079 6.354 0.257
30.1283 5.865 0.247
30.1488 6.021 0.250
30.1692 6.417 0.259
30.1897 5.563 0.241
30.2102 5.406 0.237
30.2306 5.052 0.229
30.2511 5.438 0.238
30.2716 5.115 0.231
30.2920 4.771 0.223
30.3125 5.125 0.231
30.3329 4.531 0.217
30.3534 4.969 0.228
30.3739 4.479 0.216
30.3943 4.771 0.223
30.4148 5.177 0.232
30.4353 4.740 0.222
30.4557 4.990 0.228
30.4762 4.938 0.227
30.4967 4.823 0.224
30.5171 4.708 0.221
30.5376 4.677 0.221
30.5580 4.750 0.222
30.5785 5.042 0.229
30.5990 5.635 0.242
30.6194 5.594 0.241
30.6399 5.760 0.245
30.6604 5.771 0.245
30.6808 5.969 0.249
30.7013 6.844 0.267
30.7217 8.917 0.305
30.7422 14.917 0.394
30.7627 23.188 0.491
30.7831 28.521 0.545
30.8036 22.000 0.479
30.8241 15.854 0.406
30.8445 17.229 0.424
30.8650 17.635 0.429
30.8854 12.240 0.357
30.9059 8.125 0.291
30.9264 7.083 0.272
30.9468 5.458 0.238
30.9673 5.604 0.242
30.9878 5.677 0.243
31.0082 5.292 0.235
31.0287 5.219 0.233
31.0491 4.573 0.218
31.0696 4.740 0.222
31.0901 5.042 0.229
31.1105 5.563 0.241
31.1310 5.167 0.232
31.1515 5.083 0.230
31.1719 5.240 0.234
31.1924 4.750 0.222
31.2128 5.021 0.229
31.2333 4.958 0.227
31.2538 5.365 0.236
31.2742 4.802 0.224
31.2947 4.729 0.222
31.3152 4.615 0.219
31.3356 4.510 0.217
31.3561 5.396 0.237
31.3766 5.458 0.238
31.3970 5.750 0.245
31.4175 5.719 0.244
31.4379 5.771 0.245
31.4584 5.250 0.234
31.4789 5.729 0.244
31.4993 5.146 0.232
31.5198 4.833 0.224
31.5403 4.688 0.221
31.5607 4.417 0.214
31.5812 4.708 0.221
31.6016 5.177 0.232
31.6221 5.219 0.233
31.6426 4.635 0.220
31.6630 4.729 0.222
31.6835 4.740 0.222
31.7040 5.000 0.228
31.7244 4.948 0.227
31.7449 5.156 0.232
31.7653 4.938 0.227
31.7858 4.917 0.226
31.8063 4.625 0.219
31.8267 4.688 0.221
31.8472 4.906 0.226
31.8677 4.844 0.225
31.8881 5.427 0.238
31.9086 5.406 0.237
31.9290 5.573 0.241
31.9495 4.875 0.225
31.9700 5.938 0.249
31.9904 5.104 0.231
32.0109 5.385 0.237
32.0314 5.146 0.232
32.0518 5.448 0.238
32.0723 5.542 0.240
32.0927 6.167 0.253
32.1132 6.115 0.252
32.1337 5.813 0.246
32.1541 6.188 0.254
32.1746 5.750 0.245
32.1951 6.760 0.265
32.2155 6.052 0.251
32.2360 6.260 0.255
32.2565 6.844 0.267
32.2769 7.781 0.285
32.2974 8.146 0.291
32.3178 6.729 0.265
32.3383 5.656 0.243
32.3588 6.271 0.256
32.3792 6.625 0.263
32.3997 5.771 0.245
32.4202 5.292 0.235
32.4406 4.969 0.228
32.4611 4.760 0.223
32.4815 4.729 0.222
32.5020 5.063 0.230
32.5225 4.510 0.217
32.5429 4.573 0.218
32.5634 4.698 0.221
32.5839 5.208 0.233
32.6043 5.490 0.239
32.6248 5.844 0.247
32.6452 5.698 0.244
32.6657 5.698 0.244
32.6862 5.208 0.233
32.7066 5.417 0.238
32.7271 5.708 0.244
32.7476 5.313 0.235
32.7680 5.365 0.236
32.7885 4.802 0.224
32.8089 5.208 0.233
32.8294 5.167 0.232
32.8499 5.375 0.237
32.8703 5.385 0.237
32.8908 4.635 0.220
32.9113 5.542 0.240
32.9317 5.344 0.236
32.9522 5.031 0.229
32.9726 4.896 0.226
32.9931 4.729 0.222
33.0136 5.094 0.230
33.0340 5.271 0.234
33.0545 4.750 0.222
33.0750 4.906 0.226
33.0954 5.063 0.230
33.1159 4.813 0.224
33.1364 5.073 0.230
33.1568 4.865 0.225
33.1773 4.875 0.225
33.1977 4.938 0.227
33.2182 5.302 0.235
33.2387 5.427 0.238
33.2591 5.229 0.233
33.2796 5.313 0.235
33.3001 5.625 0.242
33.3205 4.969 0.228
33.3410 5.240 0.234
33.3614 5.125 0.231
33.3819 4.531 0.217
33.4024 4.708 0.221
33.4228 4.833 0.224
33.4433 5.646 0.243
33.4638 5.240 0.234
33.4842 4.979 0.228
33.5047 5.365 0.236
33.5251 5.865 0.247
33.5456 6.260 0.255
33.5661 6.573 0.262
33.5865 6.698 0.264
33.6070 6.490 0.260
33.6275 7.365 0.277
33.6479 7.500 0.280
33.6684 7.750 0.284
33.6888 8.396 0.296
33.7093 9.802 0.320
33.7298 15.740 0.405
33.7502 29.104 0.551
33.7707 57.708 0.775
33.7912 96.500 1.003
33.8116 82.292 0.926
33.8321 40.938 0.653
33.8526 35.583 0.609
33.8730 50.646 0.726
33.8935 49.260 0.716
33.9139 24.823 0.508
33.9344 13.000 0.368
33.9549 9.365 0.312
33.9753 8.031 0.289
33.9958 7.635 0.282
34.0163 6.583 0.262
34.0367 6.625 0.263
34.0572 5.990 0.250
34.0776 5.833 0.247
34.0981 5.740 0.245
34.1186 5.083 0.230
34.1390 5.188 0.232
34.1595 4.885 0.226
34.1800 4.854 0.225
34.2004 4.646 0.220
34.2209 5.250 0.234
34.2413 4.990 0.228
34.2618 5.510 0.240
34.2823 6.104 0.252
34.3027 6.635 0.263
34.3232 5.958 0.249
34.3437 5.583 0.241
34.3641 5.740 0.245
34.3846 5.979 0.250
34.4050 5.198 0.233
34.4255 5.531 0.240
34.4460 5.458 0.238
34.4664 5.469 0.239
34.4869 5.208 0.233
34.5074 4.781 0.223
34.5278 4.823 0.224
34.5483 4.885 0.226
34.5687 4.927 0.227
34.5892 4.698 0.221
34.6097 4.729 0.222
34.6301 4.646 0.220
34.6506 4.823 0.224
34.6711 4.583 0.219
34.6915 4.281 0.211
34.7120 4.323 0.212
34.7325 4.823 0.224
34.7529 4.458 0.216
34.7734 4.438 0.215
34.7938 4.656 0.220
34.8143 4.375 0.213
34.8348 4.563 0.218
34.8552 4.417 0.214
34.8757 4.531 0.217
34.8962 4.781 0.223
34.9166 4.771 0.223
34.9371 4.781 0.223
34.9575 4.688 0.221
34.9780 5.250 0.234
34.9985 5.573 0.241
35.0189 7.000 0.270
35.0394 7.510 0.280
35.0599 6.031 0.251
35.0803 5.271 0.234
35.1008 5.573 0.241
35.1212 6.000 0.250
35.1417 5.906 0.248
35.1622 5.031 0.229
35.1826 4.677 0.221
35.2031 4.750 0.222
35.2236 4.729 0.222
35.2440 4.865 0.225
35.2645 4.677 0.221
35.2849 4.656 0.220
35.3054 4.792 0.223
35.3259 4.667 0.220
35.3463 4.865 0.225
35.3668 4.781 0.223
35.3873 4.927 0.227
35.4077 5.010 0.228
35.4282 4.365 0.213
35.4486 5.000 0.228
35.4691 4.896 0.226
35.4896 4.948 0.227
35.5100 4.375 0.213
35.5305 4.990 0.228
35.5510 4.833 0.224
35.5714 4.979 0.228
35.5919 5.302 0.235
35.6124 4.917 0.226
35.6328 4.698 0.221
35.6533 4.865 0.225
35.6737 5.104 0.231
35.6942 4.875 0.225
35.7147 4.927 0.227
35.7351 5.135 0.231
35.7556 4.646 0.220
35.7761 4.771 0.223
35.7965 4.677 0.221
35.8170 4.844 0.225
35.8374 4.656 0.220
35.8579 4.573 0.218
35.8784 4.479 0.216
35.8988 4.542 0.218
35.9193 4.385 0.214
35.9398 4.656 0.220
35.9602 4.490 0.216
35.9807 4.583 0.219
36.0011 4.760 0.223
36.0216 4.490 0.216
36.0421 4.313 0.212
36.0625 4.771 0.223
36.0830 5.000 0.228
36.1035 4.521 0.217
36.1239 4.771 0.223
36.1444 5.302 0.235
36.1648 4.771 0.223
36.1853 5.073 0.230
36.2058 4.354 0.213
36.2262 5.073 0.230
36.2467 5.281 0.235
36.2672 5.000 0.228
36.2876 4.667 0.220
36.3081 4.875 0.225
36.3285 4.938 0.227
36.3490 4.938 0.227
36.3695 4.813 0.224
36.3899 5.365 0.236
36.4104 5.240 0.234
36.4309 5.552 0.240
36.4513 5.521 0.240
36.4718 5.646 0.243
36.4923 6.031 0.251
36.5127 7.146 0.273
36.5332 9.740 0.319
36.5536 16.208 0.411
36.5741 28.240 0.542
36.5946 31.573 0.573
36.6150 20.646 0.464
36.6355 14.417 0.388
36.6560 15.198 0.398
36.6764 18.865 0.443
36.6969 17.458 0.426
36.7173 10.427 0.330
36.7378 7.521 0.280
36.7583 6.302 0.256
36.7787 5.802 0.246
36.7992 5.583 0.241
36.8197 5.354 0.236
36.8401 5.135 0.231
36.8606 4.698 0.221
36.8810 5.156 0.232
36.9015 5.104 0.231
36.9220 4.875 0.225
36.9424 4.958 0.227
36.9629 5.010 0.228
36.9834 4.927 0.227
37.0038 4.656 0.220
37.0243 4.688 0.221
37.0447 5.052 0.229
37.0652 4.469 0.216
37.0857 4.542 0.218
37.1061 5.198 0.233
37.1266 5.010 0.228
37.1471 4.229 0.210
37.1675 5.260 0.234
37.1880 4.990 0.228
37.2084 4.844 0.225
37.2289 4.448 0.215
37.2494 4.708 0.221
37.2698 4.427 0.215
37.2903 5.396 0.237
37.3108 5.417 0.238
37.3312 5.667 0.243
37.3517 5.344 0.236
37.3722 5.271 0.234
37.3926 4.823 0.224
37.4131 5.396 0.237
37.4335 5.490 0.239
37.4540 5.198 0.233
37.4745 4.729 0.222
37.4949 5.177 0.232
37.5154 5.198 0.233
37.5359 4.906 0.226
37.5563 4.802 0.224
37.5768 4.646 0.220
37.5972 4.354 0.213
37.6177 4.708 0.221
37.6382 4.667 0.220
37.6586 4.500 0.217
37.6791 4.698 0.221
37.6996 4.740 0.222
37.7200 4.208 0.209
37.7405 4.500 0.217
37.7609 4.219 0.210
37.7814 4.469 0.216
37.8019 4.083 0.206
37.8223 4.521 0.217
37.8428 4.677 0.221
37.8633 4.500 0.217
37.8837 4.438 0.215
37.9042 4.854 0.225
37.9246 4.667 0.220
37.9451 4.833 0.224
37.9656 4.594 0.219
37.9860 4.406 0.214
38.0065 4.094 0.207
38.0270 3.927 0.202
38.0474 4.521 0.217
38.0679 4.885 0.226
38.0884 4.313 0.212
38.1088 4.344 0.213
38.1293 4.563 0.218
38.1497 4.031 0.205
38.1702 4.333 0.212
38.1907 4.719 0.222
38.2111 4.250 0.210
38.2316 4.094 0.207
38.2521 4.083 0.206
38.2725 5.000 0.228
38.2930 4.271 0.211
38.3134 4.302 0.212
38.3339 4.417 0.214
38.3544 4.719 0.222
38.3748 4.031 0.205
38.3953 4.740 0.222
38.4158 4.125 0.207
38.4362 4.427 0.215
38.4567 4.344 0.213
38.4771 4.469 0.216
38.4976 4.333 0.212
38.5181 4.198 0.209
38.5385 4.229 0.210
38.5590 4.323 0.212
38.5795 4.521 0.217
38.5999 4.125 0.207
38.6204 4.219 0.210
38.6408 3.906 0.202
38.6613 4.667 0.220
38.6818 4.010 0.204
38.7022 4.417 0.214
38.7227 4.250 0.210
38.7432 4.323 0.212
38.7636 4.365 0.213
38.7841 4.448 0.215
38.8045 4.385 0.214
38.8250 4.208 0.209
38.8455 4.677 0.221
38.8659 3.938 0.203
38.8864 4.104 0.207
38.9069 4.250 0.210
38.9273 4.542 0.218
38.9478 4.885 0.226
38.9683 4.302 0.212
38.9887 4.771 0.223
39.0092 5.000 0.228
39.0296 4.750 0.222
39.0501 4.896 0.226
39.0706 4.990 0.228
39.0910 5.365 0.236
39.1115 6.271 0.256
39.1320 6.552 0.261
39.1524 8.385 0.296
39.1729 12.281 0.358
39.1933 16.740 0.418
39.2138 18.781 0.442
39.2343 13.385 0.373
39.2547 10.667 0.333
39.2752 10.427 0.330
39.2957 12.042 0.354
39.3161 12.500 0.361
39.3366 9.313 0.311
39.3570 6.865 0.267
39.3775 5.938 0.249
39.3980 5.854 0.247
39.4184 5.406 0.237
39.4389 5.750 0.245
39.4594 5.375 0.237
39.4798 4.969 0.228
39.5003 5.281 0.235
39.5207 4.990 0.228
39.5412 5.052 0.229
39.5617 5.188 0.232
39.5821 4.844 0.225
39.6026 4.688 0.221
39.6231 5.052 0.229
39.6435 5.031 0.229
39.6640 4.740 0.222
39.6844 4.740 0.222
39.7049 4.771 0.223
39.7254 4.813 0.224
39.7458 5.104 0.231
39.7663 5.188 0.232
39.7868 4.688 0.221
39.8072 4.969 0.228
39.8277 5.000 0.228
39.8482 4.833 0.224
39.8686 5.417 0.238
39.8891 5.156 0.232
39.9095 5.042 0.229
39.9300 4.927 0.227
39.9505 4.958 0.227
39.9709 4.875 0.225
39.9914 4.969 0.228
40.0119 5.417 0.238
40.0323 5.219 0.233
40.0528 4.875 0.225
40.0732 4.969 0.228
40.0937 4.969 0.228
40.1142 5.083 0.230
40.1346 4.615 0.219
40.1551 5.188 0.232
40.1756 4.646 0.220
40.1960 4.469 0.216
40.2165 4.948 0.227
40.2369 4.833 0.224
40.2574 5.219 0.233
40.2779 5.177 0.232
40.2983 4.885 0.226
40.3188 4.667 0.220
40.3393 4.750 0.222
40.3597 4.865 0.225
40.3802 4.823 0.224
40.4006 4.563 0.218
40.4211 4.927 0.227
40.4416 5.656 0.243
40.4620 4.875 0.225
40.4825 4.938 0.227
40.5030 4.521 0.217
40.5234 5.156 0.232
40.5439 4.875 0.225
40.5643 4.615 0.219
40.5848 4.854 0.225
40.6053 4.844 0.225
40.6257 5.021 0.229
40.6462 4.813 0.224
40.6667 4.500 0.217
40.6871 4.063 0.206
40.7076 4.510 0.217
40.7281 4.646 0.220
40.7485 4.427 0.215
40.7690 4.438 0.215
40.7894 4.698 0.221
40.8099 4.938 0.227
40.8304 5.229 0.233
40.8508 6.042 0.251
40.8713 7.344 0.277
40.8918 6.500 0.260
40.9122 5.604 0.242
40.9327 5.635 0.242
40.9531 5.448 0.238
40.9736 5.833 0.247
40.9941 6.063 0.251
41.0145 5.500 0.239
41.0350 4.792 0.223
41.0555 4.688 0.221
41.0759 5.031 0.229
41.0964 5.448 0.238
41.1168 5.177 0.232
41.1373 4.958 0.227
41.1578 5.146 0.232
41.1782 4.969 0.228
41.1987 5.490 0.239
41.2192 5.490 0.239
41.2396 5.521 0.240
41.2601 5.688 0.243
41.2805 5.896 0.248
41.3010 4.729 0.222
41.3215 5.333 0.236
41.3419 5.958 0.249
41.3624 5.531 0.240
41.3829 6.042 0.251
41.4033 6.073 0.252
41.4238 6.094 0.252
41.4442 6.781 0.266
41.4647 6.885 0.268
41.4852 7.250 0.275
41.5056 8.073 0.290
41.5261 7.563 0.281
41.5466 8.406 0.296
41.5670 9.219 0.310
41.5875 10.698 0.334
41.6080 14.573 0.390
41.6284 23.979 0.500
41.6489 41.469 0.657
41.6693 71.813 0.865
41.6898 91.167 0.975
41.7103 63.990 0.816
41.7307 38.302 0.632
41.7512 32.313 0.580
41.7717 40.271 0.648
41.7921 49.708 0.720
41.8126 41.500 0.657
41.8330 24.302 0.503
41.8535 15.344 0.400
41.8740 11.448 0.345
41.8944 9.646 0.317
41.9149 8.802 0.303
41.9354 8.094 0.290
41.9558 8.063 0.290
41.9763 7.990 0.288
41.9967 6.698 0.264
42.0172 6.042 0.251
42.0377 6.021 0.250
42.0581 5.594 0.241
42.0786 5.833 0.247
42.0991 5.760 0.245
42.1195 5.448 0.238
42.1400 5.083 0.230
42.1604 5.427 0.238
42.1809 4.708 0.221
42.2014 5.292 0.235
42.2218 4.833 0.224
42.2423 4.729 0.222
42.2628 4.656 0.220
42.2832 4.563 0.218
42.3037 4.552 0.218
42.3242 5.094 0.230
42.3446 4.865 0.225
42.3651 5.313 0.235
42.3855 4.531 0.217
42.4060 5.042 0.229
42.4265 5.000 0.228
42.4469 4.792 0.223
42.4674 5.229 0.233
42.4879 5.354 0.236
42.5083 4.927 0.227
42.5288 5.135 0.231
42.5492 4.990 0.228
42.5697 5.125 0.231
42.5902 5.510 0.240
42.6106 5.656 0.243
42.6311 5.365 0.236
42.6516 4.844 0.225
42.6720 5.500 0.239
42.6925 5.104 0.231
42.7129 5.469 0.239
42.7334 5.052 0.229
42.7539 5.406 0.237
42.7743 4.583 0.219
42.7948 4.760 0.223
42.8153 4.594 0.219
42.8357 4.833 0.224
42.8562 4.875 0.225
42.8766 4.635 0.220
42.8971 4.260 0.211
42.9176 4.542 0.218
42.9380 4.583 0.219
42.9585 4.219 0.210
42.9790 4.177 0.209
42.9994 4.542 0.218
43.0199 4.740 0.222
43.0403 4.177 0.209
43.0608 4.448 0.215
43.0813 4.260 0.211
43.1017 4.490 0.216
43.1222 4.281 0.211
43.1427 4.406 0.214
43.1631 4.031 0.205
43.1836 4.344 0.213
43.2041 4.063 0.206
43.2245 4.260 0.211
43.2450 4.021 0.205
43.2654 4.500 0.217
43.2859 4.552 0.218
43.3064 4.042 0.205
43.3268 4.313 0.212
43.3473 4.469 0.216
43.3678 4.344 0.213
43.3882 4.729 0.222
43.4087 4.135 0.208
43.4291 4.521 0.217
43.4496 4.260 0.211
43.4701 4.427 0.215
43.4905 4.375 0.213
43.5110 4.479 0.216
43.5315 4.198 0.209
43.5519 4.406 0.214
43.5724 4.479 0.216
43.5928 4.698 0.221
43.6133 4.146 0.208
43.6338 4.490 0.216
43.6542 5.167 0.232
43.6747 4.906 0.226
43.6952 4.927 0.227
43.7156 4.625 0.219
43.7361 5.115 0.231
43.7565 4.760 0.223
43.7770 5.219 0.233
43.7975 4.594 0.219
43.8179 4.698 0.221
43.8384 4.531 0.217
43.8589 4.865 0.225
43.8793 4.281 0.211
43.8998 4.250 0.210
43.9202 4.385 0.214
43.9407 5.083 0.230
43.9612 4.583 0.219
43.9816 4.906 0.226
44.0021 4.635 0.220
44.0226 4.990 0.228
44.0430 4.969 0.228
44.0635 5.177 0.232
44.0840 4.313 0.212
44.1044 4.479 0.216
44.1249 4.396 0.214
44.1453 4.417 0.214
44.1658 4.844 0.225
44.1863 4.844 0.225
44.2067 4.323 0.212
44.2272 4.333 0.212
44.2477 4.302 0.212
44.2681 4.271 0.211
44.2886 4.781 0.223
44.3090 4.385 0.214
44.3295 4.760 0.223
44.3500 4.677 0.221
44.3704 4.260 0.211
44.3909 4.740 0.222
44.4114 4.427 0.215
44.4318 4.604 0.219
44.4523 4.625 0.219
44.4727 4.302 0.212
44.4932 4.563 0.218
44.5137 4.188 0.209
44.5341 4.573 0.218
44.5546 4.563 0.218
44.5751 4.573 0.218
44.5955 4.677 0.221
44.6160 4.208 0.209
44.6364 4.469 0.216
44.6569 5.042 0.229
44.6774 4.490 0.216
44.6978 4.344 0.213
44.7183 5.260 0.234
44.7388 4.792 0.223
44.7592 4.417 0.214
44.7797 4.542 0.218
44.8001 4.438 0.215
44.8206 4.792 0.223
44.8411 4.938 0.227
44.8615 4.656 0.220
44.8820 4.781 0.223
44.9025 4.729 0.222
44.9229 4.375 0.213
44.9434 4.448 0.215
44.9639 5.240 0.234
44.9843 4.354 0.213
45.0048 4.406 0.214
45.0252 3.896 0.201
45.0457 4.406 0.214
45.0662 4.083 0.206
45.0866 4.240 0.210
45.1071 4.656 0.220
45.1276 4.313 0.212
45.1480 4.292 0.211
45.1685 4.219 0.210
45.1889 4.219 0.210
45.2094 4.760 0.223
45.2299 4.292 0.211
45.2503 4.375 0.213
45.2708 4.573 0.218
45.2913 4.365 0.213
45.3117 4.427 0.215
45.3322 4.844 0.225
45.3526 4.094 0.207
45.3731 4.354 0.213
45.3936 4.323 0.212
45.4140 4.344 0.213
45.4345 4.521 0.217
45.4550 4.073 0.206
45.4754 4.115 0.207
45.4959 4.500 0.217
45.5163 4.354 0.213
45.5368 4.531 0.217
45.5573 4.438 0.215
45.5777 4.771 0.223
45.5982 4.427 0.215
45.6187 4.458 0.216
45.6391 4.656 0.220
45.6596 4.260 0.211
45.6800 4.417 0.214
45.7005 4.479 0.216
45.7210 4.646 0.220
45.7414 4.198 0.209
45.7619 4.646 0.220
45.7824 4.375 0.213
45.8028 4.771 0.223
45.8233 4.500 0.217
45.8438 4.250 0.210
45.8642 4.625 0.219
45.8847 4.083 0.206
45.9051 4.479 0.216
45.9256 4.313 0.212
45.9461 4.677 0.221
45.9665 4.948 0.227
45.9870 4.083 0.206
46.0075 4.490 0.216
46.0279 4.250 0.210
46.0484 4.031 0.205
46.0688 4.135 0.208
46.0893 4.563 0.218
46.1098 4.313 0.212
46.1302 4.354 0.213
46.1507 4.052 0.205
46.1712 4.229 0.210
46.1916 4.458 0.216
46.2121 4.333 0.212
46.2325 4.479 0.216
46.2530 4.719 0.222
46.2735 5.646 0.243
46.2939 7.573 0.281
46.3144 8.156 0.291
46.3349 7.990 0.288
46.3553 5.719 0.244
46.3758 5.552 0.240
46.3962 5.250 0.234
46.4167 5.979 0.250
46.4372 5.771 0.245
46.4576 6.198 0.254
46.4781 4.844 0.225
46.4986 4.521 0.217
46.5190 4.469 0.216
46.5395 4.583 0.219
46.5600 4.313 0.212
46.5804 3.979 0.204
46.6009 4.292 0.211
46.6213 4.104 0.207
46.6418 4.229 0.210
46.6623 4.781 0.223
46.6827 5.396 0.237
46.7032 5.229 0.233
46.7237 5.188 0.232
46.7441 4.979 0.228
46.7646 4.479 0.216
46.7850 4.625 0.219
46.8055 4.875 0.225
46.8260 4.896 0.226
46.8464 4.708 0.221
46.8669 4.052 0.205
46.8874 4.396 0.214
46.9078 4.156 0.208
46.9283 4.313 0.212
46.9487 4.552 0.218
46.9692 4.438 0.215
46.9897 4.010 0.204
47.0101 4.063 0.206
47.0306 4.010 0.204
47.0511 3.656 0.195
47.0715 3.979 0.204
47.0920 4.063 0.206
47.1124 4.146 0.208
47.1329 3.958 0.203
47.1534 4.146 0.208
47.1738 3.906 0.202
47.1943 4.781 0.223
47.2148 4.198 0.209
47.2352 4.188 0.209
47.2557 4.125 0.207
47.2761 4.156 0.208
47.2966 4.365 0.213
47.3171 3.792 0.199
47.3375 3.927 0.202
47.3580 4.344 0.213
47.3785 4.094 0.207
47.3989 4.448 0.215
47.4194 4.052 0.205
47.4399 3.844 0.200
47.4603 3.563 0.193
47.4808 4.135 0.208
47.5012 4.104 0.207
47.5217 3.740 0.197
47.5422 3.823 0.200
47.5626 4.427 0.215
47.5831 4.010 0.204
47.6036 3.531 0.192
47.6240 4.188 0.209
47.6445 3.813 0.199
47.6649 4.000 0.204
47.6854 3.573 0.193
47.7059 4.115 0.207
47.7263 3.958 0.203
47.7468 3.896 0.201
47.7673 3.729 0.197
47.7877 3.927 0.202
47.8082 4.156 0.208
47.8286 3.958 0.203
47.8491 4.135 0.208
47.8696 4.031 0.205
47.8900 4.052 0.205
47.9105 4.073 0.206
47.9310 3.760 0.198
47.9514 4.219 0.210
47.9719 3.906 0.202
47.9923 4.083 0.206
48.0128 3.927 0.202
48.0333 4.406 0.214
48.0537 4.135 0.208
48.0742 4.000 0.204
48.0947 4.104 0.207
48.1151 4.000 0.204
48.1356 4.135 0.208
48.1560 4.125 0.207
48.1765 4.135 0.208
48.1970 4.010 0.204
48.2174 4.031 0.205
48.2379 4.156 0.208
48.2584 4.208 0.209
48.2788 3.990 0.204
48.2993 4.167 0.208
48.3198 3.990 0.204
48.3402 3.917 0.202
48.3607 4.156 0.208
48.3811 4.083 0.206
48.4016 4.021 0.205
48.4221 4.844 0.225
48.4425 5.000 0.228
48.4630 6.552 0.261
48.4835 8.740 0.302
48.5039 9.813 0.320
48.5244 8.375 0.295
48.5448 6.010 0.250
48.5653 5.500 0.239
48.5858 5.688 0.243
48.6062 6.594 0.262
48.6267 6.875 0.268
48.6472 6.750 0.265
48.6676 5.677 0.243
48.6881 5.333 0.236
48.7085 4.677 0.221
48.7290 4.292 0.211
48.7495 4.427 0.215
48.7699 4.052 0.205
48.7904 4.448 0.215
48.8109 4.104 0.207
48.8313 4.531 0.217
48.8518 3.979 0.204
48.8722 4.031 0.205
48.8927 4.229 0.210
48.9132 4.292 0.211
48.9336 4.021 0.205
48.9541 3.771 0.198
48.9746 4.333 0.212
48.9950 3.542 0.192
49.0155 4.083 0.206
49.0359 4.021 0.205
49.0564 4.063 0.206
49.0769 4.052 0.205
49.0973 4.188 0.209
49.1178 4.344 0.213
49.1383 4.271 0.211
49.1587 4.573 0.218
49.1792 4.323 0.212
49.1997 4.458 0.216
49.2201 4.188 0.209
49.2406 4.292 0.211
49.2610 4.240 0.210
49.2815 4.115 0.207
49.3020 4.021 0.205
49.3224 4.104 0.207
49.3429 4.406 0.214
49.3634 4.167 0.208
49.3838 4.542 0.218
49.4043 4.385 0.214
49.4247 4.729 0.222
49.4452 4.667 0.220
49.4657 4.667 0.220
49.4861 4.042 0.205
49.5066 4.313 0.212
49.5271 4.115 0.207
49.5475 4.208 0.209
49.5680 4.240 0.210
49.5884 4.344 0.213
49.6089 4.198 0.209
49.6294 4.177 0.209
49.6498 3.948 0.203
49.6703 4.156 0.208
49.6908 3.750 0.198
49.7112 4.281 0.211
49.7317 3.969 0.203
49.7521 3.594 0.193
49.7726 4.313 0.212
49.7931 3.885 0.201
49.8135 4.177 0.209
49.8340 4.240 0.210
49.8545 4.313 0.212
49.8749 4.198 0.209
49.8954 3.927 0.202
49.9158 3.917 0.202
49.9363 4.198 0.209
49.9568 3.719 0.197
49.9772 4.229 0.210
49.9977 3.844 0.200
50.0182 3.948 0.203
50.0386 3.510 0.191
50.0591 3.750 0.198
50.0796 3.344 0.187
50.1000 3.948 0.203
50.1205 4.000 0.204
50.1409 3.563 0.193
50.1614 3.917 0.202
50.1819 3.958 0.203
50.2023 3.802 0.199
50.2228 4.052 0.205
50.2433 3.854 0.200
50.2637 3.792 0.199
50.2842 4.073 0.206
50.3046 4.188 0.209
50.3251 4.260 0.211
50.3456 4.458 0.216
50.3660 4.271 0.211
50.3865 4.104 0.207
50.4070 4.115 0.207
50.4274 4.688 0.221
50.4479 4.177 0.209
50.4683 4.198 0.209
50.4888 4.521 0.217
50.5093 5.094 0.230
50.5297 5.250 0.234
50.5502 6.219 0.255
50.5707 7.385 0.277
50.5911 11.729 0.350
50.6116 15.271 0.399
50.6320 13.625 0.377
50.6525 9.031 0.307
50.6730 7.417 0.278
50.6934 6.563 0.261
50.7139 6.865 0.267
50.7344 8.979 0.306
50.7548 9.875 0.321
50.7753 7.542 0.280
50.7958 5.698 0.244
50.8162 5.094 0.230
50.8367 4.719 0.222
50.8571 4.198 0.209
50.8776 4.448 0.215
50.8981 4.135 0.208
50.9185 4.281 0.211
50.9390 4.042 0.205
50.9595 3.833 0.200
50.9799 3.896 0.201
51.0004 4.188 0.209
51.0208 3.844 0.200
51.0413 4.292 0.211
51.0618 4.333 0.212
51.0822 3.906 0.202
51.1027 3.469 0.190
51.1232 3.781 0.198
51.1436 3.719 0.197
51.1641 3.698 0.196
51.1845 4.010 0.204
51.2050 4.135 0.208
51.2255 3.865 0.201
51.2459 3.417 0.189
51.2664 3.740 0.197
51.2869 3.708 0.197
51.3073 3.885 0.201
51.3278 3.500 0.191
51.3482 3.458 0.190
51.3687 3.625 0.194
51.3892 3.719 0.197
51.4096 4.073 0.206
51.4301 3.365 0.187
51.4506 3.698 0.196
51.4710 3.833 0.200
51.4915 3.771 0.198
51.5119 3.250 0.184
51.5324 3.510 0.191
51.5529 3.896 0.201
51.5733 3.219 0.183
51.5938 3.552 0.192
51.6143 3.823 0.200
51.6347 4.031 0.205
51.6552 3.917 0.202
51.6757 3.927 0.202
51.6961 3.969 0.203
51.7166 3.823 0.200
51.7370 3.771 0.198
51.7575 4.021 0.205
51.7780 3.802 0.199
51.7984 3.677 0.196
51.8189 3.813 0.199
51.8394 3.698 0.196
51.8598 3.990 0.204
51.8803 3.656 0.195
51.9007 3.583 0.193
51.9212 3.604 0.194
51.9417 3.885 0.201
51.9621 4.281 0.211
51.9826 4.135 0.208
52.0031 3.698 0.196
52.0235 3.625 0.194
52.0440 3.594 0.193
52.0644 4.156 0.208
52.0849 3.833 0.200
52.1054 4.031 0.205
52.1258 3.604 0.194
52.1463 4.250 0.210
52.1668 3.813 0.199
52.1872 3.896 0.201
52.2077 3.698 0.196
52.2281 3.729 0.197
52.2486 3.979 0.204
52.2691 3.615 0.194
52.2895 3.698 0.196
52.3100 4.042 0.205
52.3305 3.250 0.184
52.3509 4.000 0.204
52.3714 4.000 0.204
52.3918 3.948 0.203
52.4123 4.260 0.211
52.4328 3.938 0.203
52.4532 3.667 0.195
52.4737 3.729 0.197
52.4942 3.604 0.194
52.5146 3.573 0.193
52.5351 4.198 0.209
52.5556 3.594 0.193
52.5760 3.854 0.200
52.5965 3.792 0.199
52.6169 3.396 0.188
52.6374 3.417 0.189
52.6579 3.573 0.193
52.6783 3.125 0.180
52.6988 3.719 0.197
52.7193 3.250 0.184
52.7397 3.188 0.182
52.7602 3.646 0.195
52.7806 3.271 0.185
52.8011 3.531 0.192
52.8216 3.625 0.194
52.8420 3.604 0.194
52.8625 3.656 0.195
52.8830 3.708 0.197
52.9034 3.385 0.188
52.9239 3.396 0.188
52.9443 3.583 0.193
52.9648 3.385 0.188
52.9853 3.510 0.191
53.0057 3.677 0.196
53.0262 3.375 0.188
53.0467 3.563 0.193
53.0671 3.844 0.200
53.0876 3.906 0.202
53.1080 3.490 0.191
53.1285 4.000 0.204
53.1490 3.854 0.200
53.1694 3.719 0.197
53.1899 3.708 0.197
53.2104 3.531 0.192
53.2308 3.344 0.187
53.2513 3.667 0.195
53.2717 3.365 0.187
53.2922 3.427 0.189
53.3127 3.521 0.192
53.3331 3.510 0.191
53.3536 3.365 0.187
53.3741 3.427 0.189
53.3945 3.271 0.185
53.4150 3.781 0.198
53.4355 3.635 0.195
53.4559 3.521 0.192
53.4764 3.594 0.193
53.4968 3.115 0.180
53.5173 3.771 0.198
53.5378 3.740 0.197
53.5582 3.656 0.195
53.5787 3.708 0.197
53.5992 3.302 0.185
53.6196 3.781 0.198
53.6401 3.771 0.198
53.6605 3.552 0.192
53.6810 3.396 0.188
53.7015 3.500 0.191
53.7219 3.656 0.195
53.7424 3.458 0.190
53.7629 4.229 0.210
53.7833 3.500 0.191
53.8038 3.427 0.189
53.8242 3.500 0.191
53.8447 3.396 0.188
53.8652 3.542 0.192
53.8856 3.719 0.197
53.9061 4.094 0.207
53.9266 3.510 0.191
53.9470 3.688 0.196
53.9675 3.656 0.195
53.9879 3.750 0.198
54.0084 3.031 0.178
54.0289 3.469 0.190
54.0493 3.500 0.191
54.0698 3.479 0.190
54.0903 3.458 0.190
54.1107 3.292 0.185
54.1312 3.771 0.198
54.1516 3.521 0.192
54.1721 3.292 0.185
54.1926 3.365 0.187
54.2130 3.458 0.190
54.2335 3.406 0.188
54.2540 3.563 0.193
54.2744 3.458 0.190
54.2949 3.438 0.189
54.3154 3.604 0.194
54.3358 3.021 0.177
54.3563 3.438 0.189
54.3767 3.813 0.199
54.3972 3.479 0.190
54.4177 3.552 0.192
54.4381 3.406 0.188
54.4586 3.583 0.193
54.4791 3.594 0.193
54.4995 3.781 0.198
54.5200 3.844 0.200
54.5404 3.990 0.204
54.5609 4.323 0.212
54.5814 4.135 0.208
54.6018 5.208 0.233
54.6223 5.448 0.238
54.6428 7.844 0.286
54.6632 8.406 0.296
54.6837 7.229 0.274
54.7041 5.635 0.242
54.7246 4.792 0.223
54.7451 5.021 0.229
54.7655 5.219 0.233
54.7860 5.552 0.240
54.8065 6.323 0.257
54.8269 5.771 0.245
54.8474 4.656 0.220
54.8678 4.458 0.216
54.8883 3.802 0.199
54.9088 4.302 0.212
54.9292 3.573 0.193
54.9497 4.198 0.209
54.9702 3.917 0.202
54.9906 4.188 0.209
55.0111 4.000 0.204
55.0316 4.104 0.207
55.0520 3.604 0.194
55.0725 3.948 0.203
55.0929 4.229 0.210
55.1134 4.031 0.205
55.1339 4.115 0.207
55.1543 4.406 0.214
55.1748 4.594 0.219
55.1953 4.344 0.213
55.2157 3.833 0.200
55.2362 4.271 0.211
55.2566 4.188 0.209
55.2771 4.000 0.204
55.2976 4.281 0.211
55.3180 4.104 0.207
55.3385 4.302 0.212
55.3590 4.021 0.205
55.3794 3.948 0.203
55.3999 4.000 0.204
55.4203 3.938 0.203
55.4408 3.885 0.201
55.4613 3.708 0.197
55.4817 4.365 0.213
55.5022 3.542 0.192
55.5227 3.844 0.200
55.5431 3.313 0.186
55.5636 3.896 0.201
55.5840 3.500 0.191
55.6045 3.906 0.202
55.6250 3.510 0.191
55.6454 3.719 0.197
55.6659 3.510 0.191
55.6864 3.573 0.193
55.7068 3.781 0.198
55.7273 3.260 0.184
55.7477 3.979 0.204
55.7682 3.573 0.193
55.7887 3.625 0.194
55.8091 3.406 0.188
55.8296 3.354 0.187
55.8501 3.563 0.193
55.8705 3.385 0.188
55.8910 3.958 0.203
55.9115 3.490 0.191
55.9319 3.604 0.194
55.9524 3.406 0.188
55.9728 3.771 0.198
55.9933 3.542 0.192
56.0138 3.438 0.189
56.0342 3.729 0.197
56.0547 3.625 0.194
56.0752 3.458 0.190
56.0956 3.760 0.198
56.1161 3.490 0.191
56.1365 3.646 0.195
56.1570 4.000 0.204
56.1775 3.760 0.198
56.1979 3.760 0.198
56.2184 3.667 0.195
56.2389 3.615 0.194
56.2593 3.885 0.201
56.2798 4.292 0.211
56.3002 4.198 0.209
56.3207 4.063 0.206
56.3412 4.177 0.209
56.3616 4.208 0.209
56.3821 4.354 0.213
56.4026 4.396 0.214
56.4230 4.302 0.212
56.4435 4.271 0.211
56.4639 4.750 0.222
56.4844 4.844 0.225
56.5049 5.229 0.233
56.5253 6.781 0.266
56.5458 8.958 0.305
56.5663 12.427 0.360
56.5867 18.281 0.436
56.6072 26.271 0.523
56.6276 21.969 0.478
56.6481 15.698 0.404
56.6686 10.250 0.327
56.6890 9.219 0.310
56.7095 9.146 0.309
56.7300 10.938 0.338
56.7504 13.708 0.378
56.7709 15.750 0.405
56.7914 12.969 0.368
56.8118 9.031 0.307
56.8323 6.750 0.265
56.8527 5.573 0.241
56.8732 4.875 0.225
56.8937 4.531 0.217
56.9141 4.531 0.217
56.9346 3.958 0.203
56.9551 4.031 0.205
56.9755 4.042 0.205
56.9960 3.917 0.202
57.0164 3.865 0.201
57.0369 3.688 0.196
57.0574 3.427 0.189
57.0778 3.677 0.196
57.0983 3.802 0.199
57.1188 3.208 0.183
57.1392 3.510 0.191
57.1597 3.583 0.193
57.1801 3.385 0.188
57.2006 3.354 0.187
57.2211 3.740 0.197
57.2415 3.458 0.190
57.2620 3.313 0.186
57.2825 3.292 0.185
57.3029 3.250 0.184
57.3234 3.604 0.194
57.3438 3.323 0.186
57.3643 3.198 0.183
57.3848 3.313 0.186
57.4052 3.448 0.190
57.4257 3.365 0.187
57.4462 3.219 0.183
57.4666 3.094 0.180
57.4871 3.385 0.188
57.5075 3.260 0.184
57.5280 3.281 0.185
57.5485 3.323 0.186
57.5689 3.146 0.181
57.5894 3.781 0.198
57.6099 3.531 0.192
57.6303 3.656 0.195
57.6508 3.521 0.192
57.6713 3.135 0.181
57.6917 3.813 0.199
57.7122 3.135 0.181
57.7326 3.396 0.188
57.7531 3.500 0.191
57.7736 3.448 0.190
57.7940 3.490 0.191
57.8145 3.500 0.191
57.8350 3.240 0.184
57.8554 3.167 0.182
57.8759 3.604 0.194
57.8963 3.083 0.179
57.9168 3.240 0.184
57.9373 3.354 0.187
57.9577 3.281 0.185
57.9782 3.323 0.186
57.9987 3.313 0.186
58.0191 3.792 0.199
58.0396 3.531 0.192
58.0600 3.281 0.185
58.0805 2.969 0.176
58.1010 3.646 0.195
58.1214 3.167 0.182
58.1419 3.313 0.186
58.1624 3.615 0.194
58.1828 3.219 0.183
58.2033 3.771 0.198
58.2237 3.896 0.201
58.2442 3.552 0.192
58.2647 4.042 0.205
58.2851 3.802 0.199
58.3056 3.990 0.204
58.3261 4.021 0.205
58.3465 4.125 0.207
58.3670 4.427 0.215
58.3874 4.604 0.219
58.4079 4.479 0.216
58.4284 5.229 0.233
58.4488 6.688 0.264
58.4693 8.552 0.298
58.4898 12.302 0.358
58.5102 15.313 0.399
58.5307 14.427 0.388
58.5512 10.010 0.323
58.5716 7.500 0.280
58.5921 6.656 0.263
58.6125 6.375 0.258
58.6330 7.500 0.280
58.6535 8.333 0.295
58.6739 9.969 0.322
58.6944 8.500 0.298
58.7149 6.688 0.264
58.7353 5.354 0.236
58.7558 4.344 0.213
58.7762 4.313 0.212
58.7967 3.958 0.203
58.8172 3.740 0.197
58.8376 3.677 0.196
58.8581 3.365 0.187
58.8786 3.469 0.190
58.8990 3.146 0.181
58.9195 3.219 0.183
58.9399 3.292 0.185
58.9604 3.313 0.186
58.9809 3.104 0.180
59.0013 3.292 0.185
59.0218 3.229 0.183
59.0423 3.375 0.188
59.0627 3.115 0.180
59.0832 3.313 0.186
59.1036 3.344 0.187
59.1241 3.219 0.183
59.1446 3.083 0.179
59.1650 3.104 0.180
59.1855 3.531 0.192
59.2060 3.271 0.185
59.2264 3.583 0.193
59.2469 3.125 0.180
59.2674 3.219 0.183
59.2878 3.198 0.183
59.3083 3.531 0.192
59.3287 3.208 0.183
59.3492 3.156 0.181
59.3697 3.250 0.184
59.3901 3.021 0.177
59.4106 3.354 0.187
59.4311 3.135 0.181
59.4515 2.990 0.176
59.4720 3.344 0.187
59.4924 3.365 0.187
59.5129 3.729 0.197
59.5334 3.323 0.186
59.5538 3.552 0.192
59.5743 3.354 0.187
59.5948 3.146 0.181
59.6152 3.135 0.181
59.6357 3.250 0.184
59.6561 3.354 0.187
59.6766 3.010 0.177
59.6971 2.813 0.171
59.7175 3.104 0.180
59.7380 3.115 0.180
59.7585 3.469 0.190
59.7789 3.125 0.180
59.7994 3.167 0.182
59.8198 3.167 0.182
59.8403 2.969 0.176
59.8608 3.292 0.185
59.8812 3.135 0.181
59.9017 3.302 0.185
59.9222 3.021 0.177
59.9426 3.167 0.182
59.9631 3.240 0.184
59.9835 3.281 0.185
60.0040 3.385 0.188
60.0245 3.406 0.188
60.0449 3.167 0.182
60.0654 3.323 0.186
60.0859 3.552 0.192
60.1063 3.198 0.183
60.1268 3.594 0.193
60.1473 3.677 0.196
60.1677 3.490 0.191
60.1882 4.188 0.209
60.2086 3.656 0.195
60.2291 4.000 0.204
60.2496 3.844 0.200
60.2700 4.000 0.204
60.2905 5.073 0.230
60.3110 5.656 0.243
60.3314 6.365 0.257
60.3519 9.042 0.307
60.3723 11.344 0.344
60.3928 11.448 0.345
60.4133 8.927 0.305
60.4337 6.677 0.264
60.4542 6.156 0.253
60.4747 5.167 0.232
60.4951 5.667 0.243
60.5156 6.583 0.262
60.5360 7.729 0.284
60.5565 7.667 0.283
60.5770 6.656 0.263
60.5974 5.208 0.233
60.6179 4.396 0.214
60.6384 4.177 0.209
60.6588 4.094 0.207
60.6793 3.688 0.196
60.6997 4.083 0.206
60.7202 3.521 0.192
60.7407 3.802 0.199
60.7611 3.635 0.195
60.7816 3.281 0.185
60.8021 3.635 0.195
60.8225 3.646 0.195
60.8430 3.333 0.186
60.8634 3.427 0.189
60.8839 3.729 0.197
60.9044 3.073 0.179
60.9248 3.375 0.188
60.9453 3.438 0.189
60.9658 3.427 0.189
60.9862 3.510 0.191
61.0067 3.750 0.198
61.0272 3.677 0.196
61.0476 3.333 0.186
61.0681 3.177 0.182
61.0885 3.219 0.183
61.1090 3.594 0.193
61.1295 3.417 0.189
61.1499 3.156 0.181
61.1704 2.938 0.175
61.1909 3.344 0.187
61.2113 3.208 0.183
61.2318 3.281 0.185
61.2522 3.229 0.183
61.2727 3.385 0.188
61.2932 3.469 0.190
61.3136 3.042 0.178
61.3341 3.458 0.190
61.3546 3.042 0.178
61.3750 3.344 0.187
61.3955 3.365 0.187
61.4159 3.125 0.180
61.4364 3.146 0.181
61.4569 3.365 0.187
61.4773 3.198 0.183
61.4978 3.125 0.180
61.5183 2.969 0.176
61.5387 3.094 0.180
61.5592 2.938 0.175
61.5796 3.229 0.183
61.6001 2.938 0.175
61.6206 3.479 0.190
61.6410 3.219 0.183
61.6615 3.198 0.183
61.6820 2.990 0.176
61.7024 3.583 0.193
61.7229 3.177 0.182
61.7433 3.125 0.180
61.7638 2.865 0.173
61.7843 3.104 0.180
61.8047 3.260 0.184
61.8252 3.125 0.180
61.8457 3.042 0.178
61.8661 3.250 0.184
61.8866 3.438 0.189
61.9071 3.458 0.190
61.9275 3.750 0.198
61.9480 3.271 0.185
61.9684 3.625 0.194
61.9889 3.469 0.190
62.0094 3.406 0.188
62.0298 4.146 0.208
62.0503 3.844 0.200
62.0708 3.729 0.197
62.0912 4.677 0.221
62.1117 5.063 0.230
62.1321 6.229 0.255
62.1526 7.219 0.274
62.1731 10.708 0.334
62.1935 16.271 0.412
62.2140 19.594 0.452
62.2345 15.875 0.407
62.2549 11.083 0.340
62.2754 7.760 0.284
62.2958 6.750 0.265
62.3163 6.229 0.255
62.3368 7.802 0.285
62.3572 9.125 0.308
62.3777 10.260 0.327
62.3982 10.865 0.336
62.4186 8.271 0.294
62.4391 6.417 0.259
62.4595 4.594 0.219
62.4800 4.719 0.222
62.5005 3.979 0.204
62.5209 3.927 0.202
62.5414 3.635 0.195
62.5619 3.656 0.195
62.5823 3.667 0.195
62.6028 3.198 0.183
62.6232 3.667 0.195
62.6437 3.396 0.188
62.6642 3.458 0.190
62.6846 3.198 0.183
62.7051 3.333 0.186
62.7256 3.063 0.179
62.7460 3.271 0.185
62.7665 3.396 0.188
62.7870 3.292 0.185
62.8074 3.052 0.178
62.8279 3.125 0.180
62.8483 2.948 0.175
62.8688 3.073 0.179
62.8893 3.104 0.180
62.9097 3.385 0.188
62.9302 2.969 0.176
62.9507 3.229 0.183
62.9711 3.021 0.177
62.9916 3.010 0.177
63.0120 3.010 0.177
63.0325 3.281 0.185
63.0530 2.927 0.175
63.0734 3.010 0.177
63.0939 3.083 0.179
63.1144 3.354 0.187
63.1348 2.927 0.175
63.1553 3.052 0.178
63.1757 3.229 0.183
63.1962 3.094 0.180
63.2167 3.073 0.179
63.2371 3.250 0.184
63.2576 2.854 0.172
63.2781 2.823 0.171
63.2985 3.188 0.182
63.3190 2.885 0.173
63.3394 3.313 0.186
63.3599 2.958 0.176
63.3804 2.938 0.175
63.4008 2.875 0.173
63.4213 2.927 0.175
63.4418 3.063 0.179
63.4622 3.177 0.182
63.4827 3.490 0.191
63.5032 3.229 0.183
63.5236 3.188 0.182
63.5441 2.854 0.172
63.5645 3.333 0.186
63.5850 3.615 0.194
63.6055 2.802 0.171
63.6259 3.010 0.177
63.6464 3.292 0.185
63.6669 3.281 0.185
63.6873 3.240 0.184
63.7078 3.219 0.183
63.7282 3.198 0.183
63.7487 2.844 0.172
63.7692 3.083 0.179
63.7896 3.229 0.183
63.8101 3.219 0.183
63.8306 3.156 0.181
63.8510 3.240 0.184
63.8715 2.698 0.168
63.8919 3.104 0.180
63.9124 3.281 0.185
63.9329 3.198 0.183
63.9533 3.146 0.181
63.9738 3.000 0.177
63.9943 3.042 0.178
64.0147 3.000 0.177
64.0352 2.969 0.176
64.0556 3.396 0.188
64.0761 2.802 0.171
64.0966 3.417 0.189
64.1170 3.146 0.181
64.1375 3.135 0.181
64.1580 3.135 0.181
64.1784 2.885 0.173
64.1989 2.958 0.176
64.2193 3.167 0.182
64.2398 3.219 0.183
64.2603 3.500 0.191
64.2807 2.875 0.173
64.3012 2.813 0.171
64.3217 3.146 0.181
64.3421 2.896 0.174
64.3626 3.208 0.183
64.3831 2.833 0.172
64.4035 2.802 0.171
64.4240 2.990 0.176
64.4444 2.938 0.175
64.4649 3.354 0.187
64.4854 3.271 0.185
64.5058 3.229 0.183
64.5263 2.708 0.168
64.5468 2.813 0.171
64.5672 3.271 0.185
64.5877 3.000 0.177
64.6081 2.854 0.172
64.6286 3.260 0.184
64.6491 3.083 0.179
64.6695 2.771 0.170
64.6900 3.063 0.179
64.7105 2.833 0.172
64.7309 3.021 0.177
64.7514 3.052 0.178
64.7718 3.104 0.180
64.7923 3.146 0.181
64.8128 2.948 0.175
64.8332 3.010 0.177
64.8537 3.115 0.180
64.8742 3.104 0.180
64.8946 2.750 0.169
64.9151 2.625 0.165
64.9355 3.052 0.178
64.9560 3.042 0.178
64.9765 3.021 0.177
64.9969 2.948 0.175
65.0174 2.677 0.167
65.0379 3.010 0.177
65.0583 2.833 0.172
65.0788 3.042 0.178
65.0992 3.052 0.178
65.1197 2.885 0.173
65.1402 2.792 0.171
65.1606 2.948 0.175
65.1811 2.969 0.176
65.2016 2.948 0.175
65.2220 2.865 0.173
65.2425 2.688 0.167
65.2630 2.854 0.172
65.2834 3.094 0.180
65.3039 2.865 0.173
65.3243 2.927 0.175
65.3448 2.958 0.176
65.3653 3.135 0.181
65.3857 2.917 0.174
65.4062 2.979 0.176
65.4267 3.021 0.177
65.4471 2.875 0.173
65.4676 2.875 0.173
65.4880 3.083 0.179
65.5085 3.083 0.179
65.5290 3.052 0.178
65.5494 2.865 0.173
65.5699 3.104 0.180
65.5904 3.031 0.178
65.6108 3.031 0.178
65.6313 2.740 0.169
65.6517 2.813 0.171
65.6722 2.990 0.176
65.6927 2.896 0.174
65.7131 3.260 0.184
65.7336 3.208 0.183
65.7541 3.688 0.196
65.7745 3.938 0.203
65.7950 4.510 0.217
65.8154 4.083 0.206
65.8359 3.563 0.193
65.8564 3.563 0.193
65.8768 3.281 0.185
65.8973 3.344 0.187
65.9178 3.531 0.192
65.9382 3.281 0.185
65.9587 3.542 0.192
65.9791 3.604 0.194
65.9996 3.615 0.194
66.0201 3.344 0.187
66.0405 3.219 0.183
66.0610 3.229 0.183
66.0815 3.375 0.188
66.1019 3.427 0.189
66.1224 3.010 0.177
66.1429 2.938 0.175
66.1633 3.063 0.179
66.1838 3.260 0.184
66.2042 2.917 0.174
66.2247 2.958 0.176
66.2452 2.844 0.172
66.2656 3.313 0.186
66.2861 2.896 0.174
66.3066 3.135 0.181
66.3270 3.198 0.183
66.3475 3.271 0.185
66.3679 3.240 0.184
66.3884 3.406 0.188
66.4089 2.854 0.172
66.4293 2.844 0.172
66.4498 3.125 0.180
66.4703 3.125 0.180
66.4907 3.094 0.180
66.5112 3.031 0.178
66.5316 2.792 0.171
66.5521 2.646 0.166
66.5726 2.604 0.165
66.5930 3.156 0.181
66.6135 3.021 0.177
66.6340 2.990 0.176
66.6544 2.865 0.173
66.6749 2.813 0.171
66.6953 3.031 0.178
66.7158 2.594 0.164
66.7363 2.917 0.174
66.7567 2.979 0.176
66.7772 2.875 0.173
66.7977 2.792 0.171
66.8181 3.271 0.185
66.8386 2.875 0.173
66.8590 2.990 0.176
66.8795 2.740 0.169
66.9000 2.979 0.176
66.9204 2.896 0.174
66.9409 3.031 0.178
66.9614 2.594 0.164
66.9818 3.125 0.180
67.0023 2.854 0.172
67.0228 3.052 0.178
67.0432 2.531 0.162
67.0637 2.990 0.176
67.0841 3.146 0.181
67.1046 3.094 0.180
67.1251 3.063 0.179
67.1455 3.156 0.181
67.1660 2.927 0.175
67.1865 3.198 0.183
67.2069 3.042 0.178
67.2274 3.260 0.184
67.2478 3.240 0.184
67.2683 3.365 0.187
67.2888 3.250 0.184
67.3092 3.438 0.189
67.3297 3.229 0.183
67.3502 3.760 0.198
67.3706 3.396 0.188
67.3911 3.844 0.200
67.4115 3.854 0.200
67.4320 4.063 0.206
67.4525 5.115 0.231
67.4729 5.500 0.239
67.4934 8.396 0.296
67.5139 10.208 0.326
67.5343 11.729 0.350
67.5548 11.115 0.340
67.5752 8.708 0.301
67.5957 6.656 0.263
67.6162 5.219 0.233
67.6366 4.760 0.223
67.6571 4.990 0.228
67.6776 6.260 0.255
67.6980 6.833 0.267
67.7185 7.552 0.280
67.7389 7.385 0.277
67.7594 5.917 0.248
67.7799 5.458 0.238
67.8003 4.427 0.215
67.8208 3.542 0.192
67.8413 3.948 0.203
67.8617 3.500 0.191
67.8822 3.479 0.190
67.9027 3.323 0.186
67.9231 3.406 0.188
67.9436 3.115 0.180
67.9640 3.313 0.186
67.9845 3.375 0.188
68.0050 2.969 0.176
68.0254 3.375 0.188
68.0459 3.427 0.189
68.0664 3.156 0.181
68.0868 2.938 0.175
68.1073 2.990 0.176
68.1277 3.063 0.179
68.1482 3.417 0.189
68.1687 2.958 0.176
68.1891 3.021 0.177
68.2096 3.031 0.178
68.2301 2.906 0.174
68.2505 3.167 0.182
68.2710 3.031 0.178
68.2914 2.885 0.173
68.3119 3.083 0.179
68.3324 3.010 0.177
68.3528 3.125 0.180
68.3733 3.031 0.178
68.3938 3.031 0.178
68.4142 2.865 0.173
68.4347 3.063 0.179
68.4551 2.885 0.173
68.4756 2.875 0.173
68.4961 3.083 0.179
68.5165 2.823 0.171
68.5370 3.250 0.184
68.5575 2.917 0.174
68.5779 3.156 0.181
68.5984 3.010 0.177
68.6189 3.052 0.178
68.6393 2.958 0.176
68.6598 2.865 0.173
68.6802 2.938 0.175
68.7007 3.094 0.180
68.7212 2.938 0.175
68.7416 2.729 0.169
68.7621 2.938 0.175
68.7826 2.823 0.171
68.8030 2.927 0.175
68.8235 3.063 0.179
68.8439 2.844 0.172
68.8644 3.094 0.180
68.8849 2.750 0.169
68.9053 2.635 0.166
68.9258 3.083 0.179
68.9463 2.833 0.172
68.9667 2.969 0.176
68.9872 3.156 0.181
69.0076 3.031 0.178
69.0281 3.281 0.185
69.0486 2.938 0.175
69.0690 2.844 0.172
69.0895 3.052 0.178
69.1100 3.344 0.187
69.1304 3.396 0.188
69.1509 3.969 0.203
69.1713 4.052 0.205
69.1918 4.458 0.216
69.2123 5.365 0.236
69.2327 6.740 0.265
69.2532 8.260 0.293
69.2737 9.021 0.307
69.2941 7.729 0.284
69.3146 5.708 0.244
69.3350 4.708 0.221
69.3555 4.448 0.215
69.3760 4.729 0.222
69.3964 4.250 0.210
69.4169 5.198 0.233
69.4374 5.542 0.240
69.4578 5.469 0.239
69.4783 5.708 0.244
69.4988 5.000 0.228
69.5192 4.042 0.205
69.5397 3.521 0.192
69.5601 3.719 0.197
69.5806 3.469 0.190
69.6011 3.281 0.185
69.6215 3.479 0.190
69.6420 2.948 0.175
69.6625 2.667 0.167
69.6829 3.052 0.178
69.7034 3.031 0.178
69.7238 2.656 0.166
69.7443 3.240 0.184
69.7648 3.021 0.177
69.7852 2.906 0.174
69.8057 2.667 0.167
69.8262 2.813 0.171
69.8466 2.813 0.171
69.8671 2.875 0.173
69.8875 2.729 0.169
69.9080 2.896 0.174
69.9285 2.781 0.170
69.9489 2.542 0.163
69.9694 2.906 0.174
69.9899 2.958 0.176
70.0103 2.635 0.166
70.0308 2.802 0.171
70.0512 3.125 0.180
70.0717 2.875 0.173
70.0922 2.427 0.159
70.1126 2.781 0.170
70.1331 2.833 0.172
70.1536 2.510 0.162
70.1740 2.667 0.167
70.1945 2.813 0.171
70.2149 2.854 0.172
70.2354 2.823 0.171
70.2559 2.656 0.166
70.2763 2.854 0.172
70.2968 2.885 0.173
70.3173 2.677 0.167
70.3377 2.771 0.170
70.3582 2.865 0.173
70.3787 3.156 0.181
70.3991 3.000 0.177
70.4196 2.875 0.173
70.4400 3.115 0.180
70.4605 2.927 0.175
70.4810 3.104 0.180
70.5014 2.698 0.168
70.5219 2.833 0.172
70.5424 2.688 0.167
70.5628 2.927 0.175
70.5833 2.885 0.173
70.6037 2.813 0.171
70.6242 2.740 0.169
70.6447 2.594 0.164
70.6651 2.781 0.170
70.6856 3.083 0.179
70.7061 2.719 0.168
70.7265 3.104 0.180
70.7470 2.917 0.174
70.7674 3.031 0.178
70.7879 3.438 0.189
70.8084 2.906 0.174
70.8288 3.240 0.184
70.8493 3.177 0.182
70.8698 3.479 0.190
70.8902 3.990 0.204
70.9107 4.177 0.209
70.9311 5.167 0.232
70.9516 6.740 0.265
70.9721 8.406 0.296
70.9925 7.760 0.284
71.0130 5.625 0.242
71.0335 4.875 0.225
71.0539 4.219 0.210
71.0744 4.000 0.204
71.0948 3.917 0.202
71.1153 4.271 0.211
71.1358 4.469 0.216
71.1562 4.885 0.226
71.1767 5.594 0.241
71.1972 5.677 0.243
71.2176 4.323 0.212
71.2381 3.667 0.195
71.2586 3.188 0.182
71.2790 3.427 0.189
71.2995 3.010 0.177
71.3199 3.104 0.180
71.3404 3.198 0.183
71.3609 2.854 0.172
71.3813 2.990 0.176
71.4018 2.948 0.175
71.4223 2.677 0.167
71.4427 3.115 0.180
71.4632 2.844 0.172
71.4836 2.927 0.175
71.5041 2.885 0.173
71.5246 2.708 0.168
71.5450 2.854 0.172
71.5655 2.688 0.167
71.5860 2.802 0.171
71.6064 2.833 0.172
71.6269 2.865 0.173
71.6473 2.833 0.172
71.6678 2.833 0.172
71.6883 2.677 0.167
71.7087 2.594 0.164
71.7292 2.875 0.173
71.7497 2.917 0.174
71.7701 2.427 0.159
71.7906 2.365 0.157
71.8110 2.667 0.167
71.8315 2.896 0.174
71.8520 2.604 0.165
71.8724 2.469 0.160
71.8929 2.760 0.170
71.9134 2.698 0.168
71.9338 2.938 0.175
71.9543 2.750 0.169
71.9747 2.625 0.165
71.9952 2.729 0.169
72.0157 2.792 0.171
72.0361 2.510 0.162
72.0566 2.792 0.171
72.0771 2.667 0.167
72.0975 2.479 0.161
72.1180 2.875 0.173
72.1385 2.844 0.172
72.1589 2.635 0.166
72.1794 2.896 0.174
72.1998 2.625 0.165
72.2203 2.708 0.168
72.2408 2.906 0.174
72.2612 2.469 0.160
72.2817 2.865 0.173
72.3022 2.729 0.169
72.3226 2.771 0.170
72.3431 2.604 0.165
72.3635 2.958 0.176
72.3840 2.719 0.168
72.4045 2.750 0.169
72.4249 2.875 0.173
72.4454 2.615 0.165
72.4659 2.719 0.168
72.4863 2.813 0.171
72.5068 2.938 0.175
72.5272 2.750 0.169
72.5477 2.792 0.171
72.5682 2.813 0.171
72.5886 3.396 0.188
72.6091 3.573 0.193
72.6296 3.729 0.197
72.6500 4.521 0.217
72.6705 4.458 0.216
72.6909 4.000 0.204
72.7114 3.594 0.193
72.7319 3.323 0.186
72.7523 2.917 0.174
72.7728 2.938 0.175
72.7933 3.073 0.179
72.8137 2.979 0.176
72.8342 3.260 0.184
72.8547 3.667 0.195
72.8751 3.750 0.198
72.8956 3.323 0.186
72.9160 3.375 0.188
72.9365 2.885 0.173
72.9570 2.958 0.176
72.9774 2.604 0.165
72.9979 2.781 0.170
73.0184 2.698 0.168
73.0388 3.198 0.183
73.0593 2.625 0.165
73.0797 2.771 0.170
73.1002 2.760 0.170
73.1207 2.542 0.163
73.1411 2.719 0.168
73.1616 2.792 0.171
73.1821 2.719 0.168
73.2025 2.771 0.170
73.2230 2.760 0.170
73.2434 2.542 0.163
73.2639 2.760 0.170
73.2844 2.865 0.173
73.3048 2.427 0.159
73.3253 2.583 0.164
73.3458 2.865 0.173
73.3662 2.406 0.158
73.3867 2.510 0.162
73.4071 2.583 0.164
73.4276 2.604 0.165
73.4481 2.490 0.161
73.4685 2.802 0.171
73.4890 2.510 0.162
73.5095 2.458 0.160
73.5299 2.635 0.166
73.5504 2.719 0.168
73.5708 2.604 0.165
73.5913 2.302 0.155
73.6118 2.635 0.166
73.6322 2.396 0.158
73.6527 2.438 0.159
73.6732 2.406 0.158
73.6936 2.750 0.169
73.7141 2.656 0.166
73.7346 2.688 0.167
73.7550 2.875 0.173
73.7755 2.667 0.167
73.7959 2.365 0.157
73.8164 2.344 0.156
73.8369 2.677 0.167
73.8573 2.500 0.161
73.8778 2.708 0.168
73.8983 2.625 0.165
73.9187 2.385 0.158
73.9392 2.542 0.163
73.9596 2.729 0.169
73.9801 2.802 0.171
74.0006 2.510 0.162
74.0210 2.604 0.165
74.0415 2.729 0.169
74.0620 2.490 0.161
74.0824 2.844 0.172
74.1029 2.542 0.163
74.1233 2.479 0.161
74.1438 2.542 0.163
74.1643 2.667 0.167
74.1847 2.688 0.167
74.2052 2.427 0.159
74.2257 2.719 0.168
74.2461 2.333 0.156
74.2666 2.656 0.166
74.2870 2.583 0.164
74.3075 2.906 0.174
74.3280 2.948 0.175
74.3484 2.510 0.162
74.3689 2.781 0.170
74.3894 2.583 0.164
74.4098 2.500 0.161
74.4303 2.583 0.164
74.4507 2.542 0.163
74.4712 2.667 0.167
74.4917 2.448 0.160
74.5121 2.594 0.164
74.5326 2.521 0.162
74.5531 2.854 0.172
74.5735 2.729 0.169
74.5940 2.417 0.159
74.6145 2.844 0.172
74.6349 2.688 0.167
74.6554 2.646 0.166
74.6758 2.302 0.155
74.6963 2.510 0.162
74.7168 2.646 0.166
74.7372 2.344 0.156
74.7577 2.208 0.152
74.7782 2.583 0.164
74.7986 2.500 0.161
74.8191 2.115 0.148
74.8395 2.594 0.164
74.8600 2.354 0.157
74.8805 2.594 0.164
74.9009 2.792 0.171
74.9214 2.552 0.163
74.9419 2.344 0.156
74.9623 2.427 0.159
74.9828 2.604 0.165
75.0032 2.188 0.151
75.0237 2.552 0.163
75.0442 2.583 0.164
75.0646 2.375 0.157
75.0851 2.854 0.172
75.1056 2.542 0.163
75.1260 2.260 0.153
75.1465 2.365 0.157
75.1669 2.802 0.171
75.1874 2.531 0.162
75.2079 2.542 0.163
75.2283 2.396 0.158
75.2488 2.021 0.145
75.2693 2.542 0.163
75.2897 2.469 0.160
75.3102 2.625 0.165
75.3306 2.552 0.163
75.3511 2.385 0.158
75.3716 2.760 0.170
75.3920 2.396 0.158
75.4125 2.292 0.155
75.4330 2.438 0.159
75.4534 2.167 0.150
75.4739 2.365 0.157
75.4944 2.542 0.163
75.5148 2.531 0.162
75.5353 2.760 0.170
75.5557 2.604 0.165
75.5762 2.333 0.156
75.5967 2.417 0.159
75.6171 2.375 0.157
75.6376 2.677 0.167
75.6581 2.760 0.170
75.6785 2.844 0.172
75.6990 2.667 0.167
75.7194 2.625 0.165
75.7399 2.469 0.160
75.7604 2.906 0.174
75.7808 2.979 0.176
75.8013 2.719 0.168
75.8218 2.813 0.171
75.8422 3.365 0.187
75.8627 3.385 0.188
75.8831 3.344 0.187
75.9036 4.292 0.211
75.9241 5.052 0.229
75.9445 6.083 0.252
75.9650 7.354 0.277
75.9855 9.125 0.308
76.0059 10.646 0.333
76.0264 9.510 0.315
76.0468 6.927 0.269
76.0673 5.583 0.241
76.0878 4.781 0.223
76.1082 4.469 0.216
76.1287 4.563 0.218
76.1492 4.354 0.213
76.1696 5.063 0.230
76.1901 5.479 0.239
76.2105 6.469 0.260
76.2310 6.448 0.259
76.2515 6.000 0.250
76.2719 4.823 0.224
76.2924 3.948 0.203
76.3129 3.688 0.196
76.3333 3.073 0.179
76.3538 2.906 0.174
76.3743 2.823 0.171
76.3947 2.854 0.172
76.4152 2.604 0.165
76.4356 2.990 0.176
76.4561 2.938 0.175
76.4766 2.563 0.163
76.4970 2.646 0.166
76.5175 2.458 0.160
76.5380 2.573 0.164
76.5584 2.302 0.155
76.5789 2.479 0.161
76.5993 2.385 0.158
76.6198 2.177 0.151
76.6403 2.323 0.156
76.6607 2.010 0.145
76.6812 2.365 0.157
76.7017 2.521 0.162
76.7221 2.396 0.158
76.7426 2.385 0.158
76.7630 2.219 0.152
76.7835 2.750 0.169
76.8040 2.385 0.158
76.8244 2.323 0.156
76.8449 2.271 0.154
76.8654 2.271 0.154
76.8858 2.729 0.169
76.9063 2.302 0.155
76.9267 2.854 0.172
76.9472 2.458 0.160
76.9677 2.479 0.161
76.9881 2.240 0.153
77.0086 2.469 0.160
77.0291 2.458 0.160
77.0495 2.396 0.158
77.0700 2.635 0.166
77.0905 2.250 0.153
77.1109 2.167 0.150
77.1314 2.292 0.155
77.1518 2.563 0.163
77.1723 2.240 0.153
77.1928 2.344 0.156
77.2132 2.344 0.156
77.2337 2.250 0.153
77.2542 2.167 0.150
77.2746 2.469 0.160
77.2951 2.625 0.165
77.3155 2.333 0.156
77.3360 2.156 0.150
77.3565 2.427 0.159
77.3769 2.115 0.148
77.3974 2.552 0.163
77.4179 2.635 0.166
77.4383 2.427 0.159
77.4588 2.573 0.164
77.4792 2.438 0.159
77.4997 2.333 0.156
77.5202 2.115 0.148
77.5406 2.500 0.161
77.5611 2.396 0.158
77.5816 2.510 0.162
77.6020 2.313 0.155
77.6225 2.677 0.167
77.6429 2.833 0.172
77.6634 2.406 0.158
77.6839 2.333 0.156
77.7043 2.490 0.161
77.7248 2.365 0.157
77.7453 2.521 0.162
77.7657 2.396 0.158
77.7862 2.323 0.156
77.8066 2.125 0.149
77.8271 2.469 0.160
77.8476 2.281 0.154
77.8680 2.740 0.169
77.8885 2.323 0.156
77.9090 2.458 0.160
77.9294 2.604 0.165
77.9499 2.385 0.158
77.9704 2.333 0.156
77.9908 2.333 0.156
78.0113 2.313 0.155
78.0317 2.396 0.158
78.0522 2.260 0.153
78.0727 2.188 0.151
78.0931 2.427 0.159
78.1136 2.438 0.159
78.1341 2.531 0.162
78.1545 2.281 0.154
78.1750 2.365 0.157
78.1954 2.521 0.162
78.2159 2.385 0.158
78.2364 2.427 0.159
78.2568 2.260 0.153
78.2773 2.208 0.152
78.2978 2.521 0.162
78.3182 2.375 0.157
78.3387 2.365 0.157
78.3591 2.000 0.144
78.3796 2.479 0.161
78.4001 2.104 0.148
78.4205 2.719 0.168
78.4410 2.281 0.154
78.4615 2.281 0.154
78.4819 2.323 0.156
78.5024 2.260 0.153
78.5228 2.438 0.159
78.5433 2.281 0.154
78.5638 2.510 0.162
78.5842 2.198 0.151
78.6047 2.188 0.151
78.6252 2.125 0.149
78.6456 2.125 0.149
78.6661 2.323 0.156
78.6865 2.198 0.151
78.7070 2.229 0.152
78.7275 2.417 0.159
78.7479 2.385 0.158
78.7684 2.146 0.150
78.7889 2.281 0.154
78.8093 2.563 0.163
78.8298 2.219 0.152
78.8503 2.375 0.157
78.8707 2.313 0.155
78.8912 2.323 0.156
78.9116 2.240 0.153
78.9321 2.396 0.158
78.9526 2.396 0.158
78.9730 2.125 0.149
78.9935 2.615 0.165
79.0140 2.521 0.162
79.0344 2.552 0.163
79.0549 2.365 0.157
79.0753 2.115 0.148
79.0958 2.292 0.155
79.1163 2.510 0.162
79.1367 2.250 0.153
79.1572 2.677 0.167
79.1777 2.792 0.171
79.1981 2.708 0.168
79.2186 2.594 0.164
79.2390 2.385 0.158
79.2595 2.771 0.170
79.2800 2.677 0.167
79.3004 2.729 0.169
79.3209 3.010 0.177
79.3414 2.865 0.173
79.3618 2.250 0.153
79.3823 2.500 0.161
79.4027 2.396 0.158
79.4232 2.323 0.156
79.4437 2.385 0.158
79.4641 2.240 0.153
79.4846 2.313 0.155
79.5051 2.615 0.165
79.5255 2.760 0.170
79.5460 2.531 0.162
79.5664 2.396 0.158
79.5869 2.688 0.167
79.6074 2.365 0.157
79.6278 2.500 0.161
79.6483 2.604 0.165
79.6688 2.417 0.159
79.6892 2.260 0.153
79.7097 2.375 0.157
79.7302 2.438 0.159
79.7506 2.552 0.163
79.7711 2.531 0.162
79.7915 2.115 0.148
79.8120 2.219 0.152
79.8325 2.073 0.147
79.8529 2.354 0.157
79.8734 2.167 0.150
79.8939 2.552 0.163
79.9143 2.208 0.152
79.9348 2.510 0.162
79.9552 2.385 0.158
79.9757 2.323 0.156
79.9962 2.583 0.164
