'Id: "" Comment: "" Operator: "Lab Manager" Anode: "Cu" Scantype: "Locked Coupled" TimePerStep: "96" X: "0" Y: "0" Z: "0" 
5.0000 21.198 0.470
5.0205 21.510 0.473
5.0409 20.594 0.463
5.0614 20.865 0.466
5.0819 21.063 0.468
5.1023 19.906 0.455
5.1228 20.573 0.463
5.1432 20.490 0.462
5.1637 19.615 0.452
5.1842 21.427 0.472
5.2046 20.229 0.459
5.2251 20.458 0.462
5.2456 20.969 0.467
5.2660 20.510 0.462
5.2865 20.104 0.458
5.3069 19.990 0.456
5.3274 19.563 0.451
5.3479 19.750 0.454
5.3683 19.646 0.452
5.3888 19.135 0.446
5.4093 19.604 0.452
5.4297 20.083 0.457
5.4502 19.823 0.454
5.4706 19.573 0.452
5.4911 19.552 0.451
5.5116 20.167 0.458
5.5320 19.698 0.453
5.5525 19.844 0.455
5.5730 18.938 0.444
5.5934 19.073 0.446
5.6139 19.125 0.446
5.6343 19.500 0.451
5.6548 19.688 0.453
5.6753 20.000 0.456
5.6957 19.458 0.450
5.7162 18.875 0.443
5.7367 19.479 0.450
5.7571 19.406 0.450
5.7776 19.802 0.454
5.7980 19.438 0.450
5.8185 19.167 0.447
5.8390 18.625 0.440
5.8594 18.833 0.443
5.8799 18.958 0.444
5.9004 18.823 0.443
5.9208 19.125 0.446
5.9413 18.104 0.434
5.9618 19.885 0.455
5.9822 18.635 0.441
6.0027 17.802 0.431
6.0231 18.750 0.442
6.0436 18.896 0.444
6.0641 18.990 0.445
6.0845 18.521 0.439
6.1050 18.313 0.437
6.1255 18.479 0.439
6.1459 18.677 0.441
6.1664 18.563 0.440
6.1868 18.052 0.434
6.2073 18.385 0.438
6.2278 18.531 0.439
6.2482 17.927 0.432
6.2687 17.677 0.429
6.2892 18.417 0.438
6.3096 19.240 0.448
6.3301 19.146 0.447
6.3505 17.698 0.429
6.3710 19.167 0.447
6.3915 18.625 0.440
6.4119 18.260 0.436
6.4324 18.594 0.440
6.4529 18.042 0.434
6.4733 18.385 0.438
6.4938 18.313 0.437
6.5142 18.906 0.444
6.5347 18.688 0.441
6.5552 17.750 0.430
6.5756 17.167 0.423
6.5961 19.563 0.451
6.6166 18.719 0.442
6.6370 18.292 0.437
6.6575 18.490 0.439
6.6779 17.771 0.430
6.6984 17.948 0.432
6.7189 18.385 0.438
6.7393 18.813 0.443
6.7598 18.719 0.442
6.7803 19.510 0.451
6.8007 18.885 0.444
6.8212 18.240 0.436
6.8417 17.875 0.432
6.8621 18.073 0.434
6.8826 18.031 0.433
6.9030 17.615 0.428
6.9235 19.396 0.449
6.9440 17.344 0.425
6.9644 18.271 0.436
6.9849 18.490 0.439
7.0054 17.490 0.427
7.0258 18.469 0.439
7.0463 18.052 0.434
7.0667 18.760 0.442
7.0872 17.938 0.432
7.1077 18.656 0.441
7.1281 17.854 0.431
7.1486 17.708 0.429
7.1691 18.458 0.438
7.1895 18.052 0.434
7.2100 18.396 0.438
7.2304 18.031 0.433
7.2509 18.625 0.440
7.2714 18.125 0.435
7.2918 19.010 0.445
7.3123 18.375 0.438
7.3328 18.260 0.436
7.3532 18.125 0.435
7.3737 18.271 0.436
7.3941 18.719 0.442
7.4146 17.958 0.433
7.4351 18.198 0.435
7.4555 18.240 0.436
7.4760 17.625 0.428
7.4965 17.885 0.432
7.5169 17.625 0.428
7.5374 18.990 0.445
7.5579 17.323 0.425
7.5783 18.594 0.440
7.5988 18.427 0.438
7.6192 18.448 0.438
7.6397 19.146 0.447
7.6602 18.021 0.433
7.6806 18.479 0.439
7.7011 18.323 0.437
7.7216 18.250 0.436
7.7420 18.177 0.435
7.7625 18.344 0.437
7.7829 18.208 0.436
7.8034 18.781 0.442
7.8239 18.281 0.436
7.8443 17.688 0.429
7.8648 19.917 0.455
7.8853 18.979 0.445
7.9057 18.677 0.441
7.9262 19.208 0.447
7.9466 17.854 0.431
7.9671 18.063 0.434
7.9876 18.469 0.439
8.0080 18.125 0.435
8.0285 18.594 0.440
8.0490 17.656 0.429
8.0694 17.656 0.429
8.0899 18.604 0.440
8.1103 18.271 0.436
8.1308 18.115 0.434
8.1513 18.635 0.441
8.1717 18.146 0.435
8.1922 18.875 0.443
8.2127 18.708 0.441
8.2331 18.313 0.437
8.2536 18.229 0.436
8.2740 18.146 0.435
8.2945 18.344 0.437
8.3150 19.021 0.445
8.3354 18.771 0.442
8.3559 18.344 0.437
8.3764 18.385 0.438
8.3968 18.146 0.435
8.4173 17.802 0.431
8.4378 18.479 0.439
8.4582 18.573 0.440
8.4787 17.823 0.431
8.4991 18.760 0.442
8.5196 18.260 0.436
8.5401 17.948 0.432
8.5605 18.635 0.441
8.5810 18.104 0.434
8.6015 18.802 0.443
8.6219 18.656 0.441
8.6424 18.938 0.444
8.6628 18.010 0.433
8.6833 18.573 0.440
8.7038 19.167 0.447
8.7242 19.427 0.450
8.7447 18.573 0.440
8.7652 18.927 0.444
8.7856 18.604 0.440
8.8061 19.448 0.450
8.8265 20.677 0.464
8.8470 19.875 0.455
8.8675 20.656 0.464
8.8879 20.792 0.465
8.9084 21.729 0.476
8.9289 22.188 0.481
8.9493 21.323 0.471
8.9698 21.469 0.473
8.9902 22.177 0.481
9.0107 24.927 0.510
9.0312 27.042 0.531
9.0516 30.031 0.559
9.0721 32.792 0.584
9.0926 31.469 0.573
9.1130 29.094 0.551
9.1335 28.938 0.549
9.1539 29.573 0.555
9.1744 33.302 0.589
9.1949 36.979 0.621
9.2153 45.083 0.685
9.2358 55.354 0.759
9.2563 77.010 0.896
9.2767 102.594 1.034
9.2972 108.594 1.064
9.3177 79.750 0.911
9.3381 53.708 0.748
9.3586 44.208 0.679
9.3790 41.563 0.658
9.3995 40.948 0.653
9.4200 40.875 0.653
9.4404 43.688 0.675
9.4609 45.896 0.691
9.4814 44.510 0.681
9.5018 46.271 0.694
9.5223 48.781 0.713
9.5427 52.667 0.741
9.5632 57.844 0.776
9.5837 61.490 0.800
9.6041 65.604 0.827
9.6246 69.635 0.852
9.6451 75.208 0.885
9.6655 80.271 0.914
9.6860 88.260 0.959
9.7064 99.771 1.019
9.7269 115.354 1.096
9.7474 141.177 1.213
9.7678 183.260 1.382
9.7883 264.115 1.659
9.8088 401.948 2.046
9.8292 615.927 2.533
9.8497 815.740 2.915
9.8701 1053.625 3.313
9.8906 863.688 2.999
9.9111 449.823 2.165
9.9315 159.021 1.287
9.9520 80.094 0.913
9.9725 59.781 0.789
9.9929 52.302 0.738
10.0134 47.271 0.702
10.0338 44.313 0.679
10.0543 42.625 0.666
10.0748 38.948 0.637
10.0952 35.781 0.611
10.1157 32.552 0.582
10.1362 28.896 0.549
10.1566 25.583 0.516
10.1771 24.719 0.507
10.1976 23.656 0.496
10.2180 22.708 0.486
10.2385 21.708 0.476
10.2589 21.792 0.476
10.2794 21.563 0.474
10.2999 20.958 0.467
10.3203 20.865 0.466
10.3408 19.823 0.454
10.3613 19.750 0.454
10.3817 20.208 0.459
10.4022 20.073 0.457
10.4226 19.354 0.449
10.4431 19.156 0.447
10.4636 19.896 0.455
10.4840 19.323 0.449
10.5045 19.125 0.446
10.5250 18.615 0.440
10.5454 19.594 0.452
10.5659 18.448 0.438
10.5863 17.958 0.433
10.6068 18.083 0.434
10.6273 18.531 0.439
10.6477 18.729 0.442
10.6682 18.760 0.442
10.6887 18.208 0.436
10.7091 17.792 0.430
10.7296 18.125 0.435
10.7500 17.635 0.429
10.7705 17.250 0.424
10.7910 17.531 0.427
10.8114 16.719 0.417
10.8319 16.833 0.419
10.8524 16.292 0.412
10.8728 16.594 0.416
10.8933 16.854 0.419
10.9137 16.042 0.409
10.9342 15.750 0.405
10.9547 16.208 0.411
10.9751 15.875 0.407
10.9956 16.000 0.408
11.0161 15.740 0.405
11.0365 16.281 0.412
11.0570 15.552 0.402
11.0775 16.167 0.410
11.0979 15.188 0.398
11.1184 15.500 0.402
11.1388 15.385 0.400
11.1593 16.010 0.408
11.1798 15.677 0.404
11.2002 15.875 0.407
11.2207 15.750 0.405
11.2412 14.646 0.391
11.2616 15.688 0.404
11.2821 14.844 0.393
11.3025 14.396 0.387
11.3230 14.677 0.391
11.3435 15.219 0.398
11.3639 15.021 0.396
11.3844 14.833 0.393
11.4049 14.104 0.383
11.4253 14.667 0.391
11.4458 15.021 0.396
11.4662 14.563 0.389
11.4867 14.458 0.388
11.5072 14.479 0.388
11.5276 13.958 0.381
11.5481 14.302 0.386
11.5686 14.094 0.383
11.5890 13.948 0.381
11.6095 13.927 0.381
11.6299 13.938 0.381
11.6504 14.313 0.386
11.6709 13.792 0.379
11.6913 13.438 0.374
11.7118 14.094 0.383
11.7323 13.458 0.374
11.7527 13.656 0.377
11.7732 13.823 0.379
11.7937 13.563 0.376
11.8141 13.698 0.378
11.8346 13.156 0.370
11.8550 13.635 0.377
11.8755 13.771 0.379
11.8960 13.531 0.375
11.9164 13.219 0.371
11.9369 12.813 0.365
11.9574 12.667 0.363
11.9778 13.365 0.373
11.9983 13.167 0.370
12.0187 13.198 0.371
12.0392 12.698 0.364
12.0597 13.760 0.379
12.0801 13.469 0.375
12.1006 12.844 0.366
12.1211 13.281 0.372
12.1415 12.677 0.363
12.1620 12.500 0.361
12.1824 13.167 0.370
12.2029 12.927 0.367
12.2234 13.271 0.372
12.2438 12.604 0.362
12.2643 12.646 0.363
12.2848 12.729 0.364
12.3052 12.042 0.354
12.3257 12.135 0.356
12.3461 12.292 0.358
12.3666 12.208 0.357
12.3871 12.229 0.357
12.4075 11.615 0.348
12.4280 12.292 0.358
12.4485 12.250 0.357
12.4689 12.469 0.360
12.4894 12.906 0.367
12.5098 12.146 0.356
12.5303 11.958 0.353
12.5508 12.167 0.356
12.5712 11.635 0.348
12.5917 11.344 0.344
12.6122 11.917 0.352
12.6326 11.354 0.344
12.6531 12.042 0.354
12.6736 11.708 0.349
12.6940 12.135 0.356
12.7145 11.792 0.350
12.7349 11.135 0.341
12.7554 11.490 0.346
12.7759 11.448 0.345
12.7963 11.594 0.348
12.8168 11.250 0.342
12.8373 11.417 0.345
12.8577 11.771 0.350
12.8782 11.302 0.343
12.8986 11.500 0.346
12.9191 10.802 0.335
12.9396 10.969 0.338
12.9600 11.333 0.344
12.9805 11.250 0.342
13.0010 10.792 0.335
13.0214 11.375 0.344
13.0419 10.990 0.338
13.0623 11.021 0.339
13.0828 11.031 0.339
13.1033 10.948 0.338
13.1237 11.031 0.339
13.1442 11.219 0.342
13.1647 10.948 0.338
13.1851 10.917 0.337
13.2056 10.719 0.334
13.2260 11.083 0.340
13.2465 10.917 0.337
13.2670 10.292 0.327
13.2874 10.885 0.337
13.3079 11.021 0.339
13.3284 10.531 0.331
13.3488 10.375 0.329
13.3693 11.417 0.345
13.3897 11.021 0.339
13.4102 10.771 0.335
13.4307 10.313 0.328
13.4511 10.385 0.329
13.4716 10.531 0.331
13.4921 10.292 0.327
13.5125 10.885 0.337
13.5330 10.073 0.324
13.5535 10.281 0.327
13.5739 10.313 0.328
13.5944 10.802 0.335
13.6148 9.781 0.319
13.6353 10.979 0.338
13.6558 10.260 0.327
13.6762 10.531 0.331
13.6967 10.125 0.325
13.7172 10.281 0.327
13.7376 9.760 0.319
13.7581 9.969 0.322
13.7785 10.542 0.331
13.7990 10.021 0.323
13.8195 10.625 0.333
13.8399 9.521 0.315
13.8604 9.656 0.317
13.8809 10.219 0.326
13.9013 10.323 0.328
13.9218 9.802 0.320
13.9422 10.271 0.327
13.9627 10.521 0.331
13.9832 9.875 0.321
14.0036 10.240 0.327
14.0241 10.219 0.326
14.0446 10.010 0.323
14.0650 9.990 0.323
14.0855 9.698 0.318
14.1059 9.521 0.315
14.1264 10.000 0.323
14.1469 10.240 0.327
14.1673 9.938 0.322
14.1878 9.458 0.314
14.2083 10.188 0.326
14.2287 10.135 0.325
14.2492 9.813 0.320
14.2696 9.896 0.321
14.2901 9.458 0.314
14.3106 9.344 0.312
14.3310 10.365 0.329
14.3515 9.792 0.319
14.3720 10.063 0.324
14.3924 9.490 0.314
14.4129 9.573 0.316
14.4334 9.792 0.319
14.4538 9.333 0.312
14.4743 10.021 0.323
14.4947 9.990 0.323
14.5152 9.583 0.316
14.5357 9.156 0.309
14.5561 9.698 0.318
14.5766 9.854 0.320
14.5971 10.000 0.323
14.6175 9.688 0.318
14.6380 9.698 0.318
14.6584 9.906 0.321
14.6789 9.438 0.314
14.6994 9.969 0.322
14.7198 9.698 0.318
14.7403 9.615 0.316
14.7608 9.958 0.322
14.7812 9.292 0.311
14.8017 9.938 0.322
14.8221 9.521 0.315
14.8426 10.073 0.324
14.8631 9.229 0.310
14.8835 9.135 0.308
14.9040 9.438 0.314
14.9245 9.760 0.319
14.9449 9.969 0.322
14.9654 9.740 0.319
14.9858 9.594 0.316
15.0063 9.063 0.307
15.0268 8.917 0.305
15.0472 9.438 0.314
15.0677 9.896 0.321
15.0882 9.260 0.311
15.1086 9.052 0.307
15.1291 9.156 0.309
15.1495 9.656 0.317
15.1700 9.177 0.309
15.1905 9.344 0.312
15.2109 9.063 0.307
15.2314 9.552 0.315
15.2519 8.917 0.305
15.2723 8.719 0.301
15.2928 8.760 0.302
15.3133 9.000 0.306
15.3337 9.729 0.318
15.3542 9.042 0.307
15.3746 9.240 0.310
15.3951 8.802 0.303
15.4156 9.333 0.312
15.4360 9.823 0.320
15.4565 9.354 0.312
15.4770 9.198 0.310
15.4974 10.000 0.323
15.5179 9.333 0.312
15.5383 9.250 0.310
15.5588 9.479 0.314
15.5793 9.198 0.310
15.5997 9.354 0.312
15.6202 9.000 0.306
15.6407 9.521 0.315
15.6611 10.052 0.324
15.6816 9.510 0.315
15.7020 10.167 0.325
15.7225 10.719 0.334
15.7430 12.208 0.357
15.7634 13.365 0.373
15.7839 11.885 0.352
15.8044 10.208 0.326
15.8248 9.750 0.319
15.8453 9.385 0.313
15.8657 9.146 0.309
15.8862 10.031 0.323
15.9067 8.896 0.304
15.9271 8.813 0.303
15.9476 9.188 0.309
15.9681 9.083 0.308
15.9885 8.844 0.304
16.0090 8.865 0.304
16.0295 8.979 0.306
16.0499 8.625 0.300
16.0704 9.094 0.308
16.0908 8.854 0.304
16.1113 8.948 0.305
16.1318 8.802 0.303
16.1522 9.000 0.306
16.1727 8.875 0.304
16.1932 8.958 0.305
16.2136 9.010 0.306
16.2341 8.313 0.294
16.2545 9.281 0.311
16.2750 9.104 0.308
16.2955 8.385 0.296
16.3159 8.990 0.306
16.3364 9.010 0.306
16.3569 9.063 0.307
16.3773 8.917 0.305
16.3978 8.615 0.300
16.4182 9.135 0.308
16.4387 8.990 0.306
16.4592 8.760 0.302
16.4796 9.094 0.308
16.5001 8.729 0.302
16.5206 9.083 0.308
16.5410 9.083 0.308
16.5615 9.260 0.311
16.5819 9.156 0.309
16.6024 8.740 0.302
16.6229 9.115 0.308
16.6433 9.646 0.317
16.6638 8.979 0.306
16.6843 9.104 0.308
16.7047 8.948 0.305
16.7252 8.760 0.302
16.7456 9.219 0.310
16.7661 9.427 0.313
16.7866 9.865 0.321
16.8070 9.813 0.320
16.8275 9.188 0.309
16.8480 8.552 0.298
16.8684 8.583 0.299
16.8889 8.990 0.306
16.9094 9.104 0.308
16.9298 9.375 0.313
16.9503 9.302 0.311
16.9707 8.760 0.302
16.9912 9.125 0.308
17.0117 9.604 0.316
17.0321 9.260 0.311
17.0526 9.333 0.312
17.0731 9.031 0.307
17.0935 9.688 0.318
17.1140 9.063 0.307
17.1344 9.281 0.311
17.1549 9.156 0.309
17.1754 9.719 0.318
17.1958 9.594 0.316
17.2163 9.063 0.307
17.2368 9.896 0.321
17.2572 8.854 0.304
17.2777 9.677 0.317
17.2981 10.042 0.323
17.3186 9.802 0.320
17.3391 10.208 0.326
17.3595 9.948 0.322
17.3800 9.833 0.320
17.4005 10.406 0.329
17.4209 11.250 0.342
17.4414 11.583 0.347
17.4618 12.010 0.354
17.4823 11.885 0.352
17.5028 10.813 0.336
17.5232 11.198 0.342
17.5437 11.229 0.342
17.5642 11.000 0.339
17.5846 10.854 0.336
17.6051 11.302 0.343
17.6255 10.406 0.329
17.6460 11.396 0.345
17.6665 11.563 0.347
17.6869 10.948 0.338
17.7074 11.479 0.346
17.7279 12.073 0.355
17.7483 12.313 0.358
17.7688 12.365 0.359
17.7893 12.708 0.364
17.8097 13.333 0.373
17.8302 13.125 0.370
17.8506 12.833 0.366
17.8711 12.667 0.363
17.8916 13.563 0.376
17.9120 13.604 0.376
17.9325 13.771 0.379
17.9530 13.531 0.375
17.9734 14.448 0.388
17.9939 15.115 0.397
18.0143 16.177 0.411
18.0348 17.917 0.432
18.0553 19.469 0.450
18.0757 18.917 0.444
18.0962 18.896 0.444
18.1167 18.094 0.434
18.1371 16.896 0.420
18.1576 17.083 0.422
18.1780 17.115 0.422
18.1985 17.479 0.427
18.2190 17.583 0.428
18.2394 17.479 0.427
18.2599 17.781 0.430
18.2804 18.438 0.438
18.3008 19.271 0.448
18.3213 19.948 0.456
18.3417 20.188 0.459
18.3622 21.240 0.470
18.3827 21.313 0.471
18.4031 22.458 0.484
18.4236 22.771 0.487
18.4441 24.583 0.506
18.4645 26.844 0.529
18.4850 28.729 0.547
18.5054 29.990 0.559
18.5259 31.906 0.577
18.5464 35.969 0.612
18.5668 44.323 0.679
18.5873 53.510 0.747
18.6078 64.667 0.821
18.6282 80.521 0.916
18.6487 60.333 0.793
18.6692 53.167 0.744
18.6896 43.094 0.670
18.7101 30.958 0.568
18.7305 26.604 0.526
18.7510 26.021 0.521
18.7715 25.219 0.513
18.7919 22.865 0.488
18.8124 22.813 0.487
18.8329 21.396 0.472
18.8533 21.208 0.470
18.8738 19.469 0.450
18.8942 18.646 0.441
18.9147 18.542 0.439
18.9352 17.542 0.427
18.9556 17.073 0.422
18.9761 16.667 0.417
18.9966 17.063 0.422
19.0170 16.260 0.412
19.0375 15.052 0.396
19.0579 16.167 0.410
19.0784 15.500 0.402
19.0989 15.188 0.398
19.1193 15.625 0.403
19.1398 15.875 0.407
19.1603 16.156 0.410
19.1807 15.844 0.406
19.2012 16.708 0.417
19.2216 15.750 0.405
19.2421 15.792 0.406
19.2626 15.646 0.404
19.2830 16.354 0.413
19.3035 16.854 0.419
19.3240 16.354 0.413
19.3444 16.667 0.417
19.3649 16.958 0.420
19.3853 16.865 0.419
19.4058 17.167 0.423
19.4263 17.396 0.426
19.4467 18.000 0.433
19.4672 18.292 0.437
19.4877 18.313 0.437
19.5081 19.281 0.448
19.5286 20.250 0.459
19.5491 21.188 0.470
19.5695 23.604 0.496
19.5900 23.313 0.493
19.6104 25.188 0.512
19.6309 26.740 0.528
19.6514 27.938 0.539
19.6718 31.646 0.574
19.6923 36.177 0.614
19.7128 41.333 0.656
19.7332 53.625 0.747
19.7537 71.448 0.863
19.7741 108.896 1.065
19.7946 200.250 1.444
19.8151 327.688 1.848
19.8355 242.240 1.588
19.8560 181.938 1.377
19.8765 153.969 1.266
19.8969 68.906 0.847
19.9174 35.615 0.609
19.9378 27.427 0.535
19.9583 22.656 0.486
19.9788 21.177 0.470
19.9992 20.448 0.462
20.0197 19.302 0.448
20.0402 18.375 0.438
20.0606 17.104 0.422
20.0811 16.156 0.410
20.1015 15.604 0.403
20.1220 14.833 0.393
20.1425 14.760 0.392
20.1629 15.510 0.402
20.1834 15.854 0.406
20.2039 15.417 0.401
20.2243 15.625 0.403
20.2448 16.781 0.418
20.2653 16.542 0.415
20.2857 16.271 0.412
20.3062 16.281 0.412
20.3266 16.031 0.409
20.3471 15.646 0.404
20.3676 15.958 0.408
20.3880 17.042 0.421
20.4085 16.552 0.415
20.4290 15.500 0.402
20.4494 15.688 0.404
20.4699 16.104 0.410
20.4903 15.865 0.407
20.5108 14.917 0.394
20.5313 15.531 0.402
20.5517 15.115 0.397
20.5722 14.188 0.384
20.5927 14.604 0.390
20.6131 13.979 0.382
20.6336 13.885 0.380
20.6540 12.813 0.365
20.6745 12.813 0.365
20.6950 12.740 0.364
20.7154 12.396 0.359
20.7359 12.604 0.362
20.7564 11.823 0.351
20.7768 12.146 0.356
20.7973 11.927 0.352
20.8177 11.354 0.344
20.8382 11.458 0.345
20.8587 11.177 0.341
20.8791 11.115 0.340
20.8996 11.052 0.339
20.9201 11.844 0.351
20.9405 10.708 0.334
20.9610 11.229 0.342
20.9814 10.844 0.336
21.0019 10.990 0.338
21.0224 10.688 0.334
21.0428 11.771 0.350
21.0633 10.729 0.334
21.0838 11.354 0.344
21.1042 11.438 0.345
21.1247 10.781 0.335
21.1452 10.365 0.329
21.1656 10.292 0.327
21.1861 10.510 0.331
21.2065 10.573 0.332
21.2270 10.635 0.333
21.2475 10.490 0.331
21.2679 10.396 0.329
21.2884 10.583 0.332
21.3089 10.438 0.330
21.3293 10.740 0.334
21.3498 10.135 0.325
21.3702 10.594 0.332
21.3907 10.167 0.325
21.4112 9.375 0.313
21.4316 10.240 0.327
21.4521 10.063 0.324
21.4726 9.844 0.320
21.4930 10.396 0.329
21.5135 9.813 0.320
21.5339 10.385 0.329
21.5544 10.083 0.324
21.5749 9.885 0.321
21.5953 10.125 0.325
21.6158 9.854 0.320
21.6363 9.938 0.322
21.6567 10.177 0.326
21.6772 11.229 0.342
21.6976 10.323 0.328
21.7181 10.458 0.330
21.7386 10.625 0.333
21.7590 10.844 0.336
21.7795 10.490 0.331
21.8000 10.135 0.325
21.8204 10.260 0.327
21.8409 10.135 0.325
21.8613 11.042 0.339
21.8818 10.927 0.337
21.9023 10.792 0.335
21.9227 11.021 0.339
21.9432 11.292 0.343
21.9637 10.927 0.337
21.9841 11.313 0.343
22.0046 11.802 0.351
22.0251 12.917 0.367
22.0455 13.052 0.369
22.0660 15.333 0.400
22.0864 17.479 0.427
22.1069 20.292 0.460
22.1274 28.510 0.545
22.1478 39.729 0.643
22.1683 49.125 0.715
22.1888 46.552 0.696
22.2092 42.240 0.663
22.2297 38.865 0.636
22.2501 30.792 0.566
22.2706 23.667 0.497
22.2911 19.979 0.456
22.3115 17.292 0.424
22.3320 16.052 0.409
22.3525 14.479 0.388
22.3729 13.979 0.382
22.3934 13.677 0.377
22.4138 12.500 0.361
22.4343 12.313 0.358
22.4548 12.302 0.358
22.4752 11.365 0.344
22.4957 10.854 0.336
22.5162 11.823 0.351
22.5366 11.271 0.343
22.5571 10.917 0.337
22.5775 10.615 0.333
22.5980 10.260 0.327
22.6185 10.135 0.325
22.6389 10.271 0.327
22.6594 10.781 0.335
22.6799 10.760 0.335
22.7003 9.677 0.317
22.7208 10.260 0.327
22.7412 10.052 0.324
22.7617 9.844 0.320
22.7822 10.563 0.332
22.8026 10.656 0.333
22.8231 10.490 0.331
22.8436 10.042 0.323
22.8640 10.781 0.335
22.8845 10.521 0.331
22.9050 10.156 0.325
22.9254 10.646 0.333
22.9459 9.719 0.318
22.9663 9.917 0.321
22.9868 9.875 0.321
23.0073 9.302 0.311
23.0277 9.667 0.317
23.0482 9.125 0.308
23.0687 9.260 0.311
23.0891 8.865 0.304
23.1096 9.448 0.314
23.1300 9.552 0.315
23.1505 9.042 0.307
23.1710 9.594 0.316
23.1914 8.906 0.305
23.2119 8.385 0.296
23.2324 8.615 0.300
23.2528 8.979 0.306
23.2733 9.302 0.311
23.2937 8.813 0.303
23.3142 9.094 0.308
23.3347 9.271 0.311
23.3551 8.854 0.304
23.3756 9.438 0.314
23.3961 8.500 0.298
23.4165 9.281 0.311
23.4370 9.188 0.309
23.4574 9.344 0.312
23.4779 9.792 0.319
23.4984 9.198 0.310
23.5188 9.333 0.312
23.5393 10.010 0.323
23.5598 9.740 0.319
23.5802 9.844 0.320
23.6007 10.500 0.331
23.6211 10.781 0.335
23.6416 10.458 0.330
23.6621 10.771 0.335
23.6825 10.771 0.335
23.7030 9.552 0.315
23.7235 9.844 0.320
23.7439 9.854 0.320
23.7644 8.927 0.305
23.7849 8.677 0.301
23.8053 9.333 0.312
23.8258 9.146 0.309
23.8462 8.094 0.290
23.8667 8.698 0.301
23.8872 7.979 0.288
23.9076 8.469 0.297
23.9281 8.594 0.299
23.9486 8.042 0.289
23.9690 9.010 0.306
23.9895 8.188 0.292
24.0099 8.052 0.290
24.0304 8.094 0.290
24.0509 8.406 0.296
24.0713 8.646 0.300
24.0918 8.198 0.292
24.1123 8.448 0.297
24.1327 8.573 0.299
24.1532 8.281 0.294
24.1736 8.208 0.292
24.1941 8.656 0.300
24.2146 9.104 0.308
24.2350 9.021 0.307
24.2555 8.813 0.303
24.2760 9.500 0.315
24.2964 11.125 0.340
24.3169 11.583 0.347
24.3373 11.448 0.345
24.3578 10.490 0.331
24.3783 9.958 0.322
24.3987 9.427 0.313
24.4192 9.385 0.313
24.4397 8.448 0.297
24.4601 7.990 0.288
24.4806 8.063 0.290
24.5011 8.135 0.291
24.5215 8.031 0.289
24.5420 8.281 0.294
24.5624 7.990 0.288
24.5829 8.354 0.295
24.6034 7.833 0.286
24.6238 7.927 0.287
24.6443 8.042 0.289
24.6648 8.302 0.294
24.6852 7.906 0.287
24.7057 7.688 0.283
24.7261 8.104 0.291
24.7466 7.542 0.280
24.7671 7.698 0.283
24.7875 7.583 0.281
24.8080 7.177 0.273
24.8285 7.760 0.284
24.8489 7.469 0.279
24.8694 7.563 0.281
24.8898 7.781 0.285
24.9103 7.177 0.273
24.9308 7.635 0.282
24.9512 7.885 0.287
24.9717 7.583 0.281
24.9922 7.531 0.280
25.0126 7.281 0.275
25.0331 7.281 0.275
25.0535 7.000 0.270
25.0740 7.510 0.280
25.0945 7.677 0.283
25.1149 7.052 0.271
25.1354 8.042 0.289
25.1559 7.594 0.281
25.1763 7.208 0.274
25.1968 7.521 0.280
25.2172 7.042 0.271
25.2377 7.167 0.273
25.2582 7.521 0.280
25.2786 7.604 0.281
25.2991 7.750 0.284
25.3196 7.073 0.271
25.3400 7.729 0.284
25.3605 7.500 0.280
25.3810 7.448 0.279
25.4014 7.188 0.274
25.4219 7.615 0.282
25.4423 7.615 0.282
25.4628 7.896 0.287
25.4833 7.688 0.283
25.5037 7.688 0.283
25.5242 7.615 0.282
25.5447 8.313 0.294
25.5651 8.052 0.290
25.5856 8.073 0.290
25.6060 8.115 0.291
25.6265 7.865 0.286
25.6470 7.615 0.282
25.6674 7.885 0.287
25.6879 8.063 0.290
25.7084 7.302 0.276
25.7288 7.677 0.283
25.7493 7.625 0.282
25.7697 7.927 0.287
25.7902 7.552 0.280
25.8107 7.281 0.275
25.8311 7.073 0.271
25.8516 7.667 0.283
25.8721 7.500 0.280
25.8925 7.688 0.283
25.9130 7.135 0.273
25.9334 7.438 0.278
25.9539 7.531 0.280
25.9744 7.563 0.281
25.9948 7.438 0.278
26.0153 7.417 0.278
26.0358 7.854 0.286
26.0562 7.615 0.282
26.0767 7.417 0.278
26.0971 7.510 0.280
26.1176 7.240 0.275
26.1381 7.615 0.282
26.1585 7.000 0.270
26.1790 7.500 0.280
26.1995 7.760 0.284
26.2199 6.865 0.267
26.2404 7.563 0.281
26.2609 7.635 0.282
26.2813 7.365 0.277
26.3018 6.948 0.269
26.3222 7.635 0.282
26.3427 7.594 0.281
26.3632 7.427 0.278
26.3836 7.604 0.281
26.4041 7.490 0.279
26.4246 7.583 0.281
26.4450 7.604 0.281
26.4655 7.479 0.279
26.4859 7.115 0.272
26.5064 6.875 0.268
26.5269 7.448 0.279
26.5473 6.979 0.270
26.5678 7.479 0.279
26.5883 7.854 0.286
26.6087 7.125 0.272
26.6292 7.677 0.283
26.6496 7.448 0.279
26.6701 7.240 0.275
26.6906 7.615 0.282
26.7110 7.396 0.278
26.7315 7.563 0.281
26.7520 7.698 0.283
26.7724 7.740 0.284
26.7929 8.167 0.292
26.8133 7.979 0.288
26.8338 7.927 0.287
26.8543 7.688 0.283
26.8747 7.958 0.288
26.8952 7.813 0.285
26.9157 7.625 0.282
26.9361 7.521 0.280
26.9566 7.479 0.279
26.9770 7.438 0.278
26.9975 7.688 0.283
27.0180 7.396 0.278
27.0384 7.177 0.273
27.0589 7.552 0.280
27.0794 7.375 0.277
27.0998 7.969 0.288
27.1203 7.438 0.278
27.1408 7.438 0.278
27.1612 8.042 0.289
27.1817 7.583 0.281
27.2021 7.750 0.284
27.2226 7.344 0.277
27.2431 7.708 0.283
27.2635 7.635 0.282
27.2840 6.969 0.269
27.3045 7.542 0.280
27.3249 7.385 0.277
27.3454 7.521 0.280
27.3658 7.740 0.284
27.3863 7.615 0.282
27.4068 7.385 0.277
27.4272 7.792 0.285
27.4477 8.250 0.293
27.4682 8.135 0.291
27.4886 8.094 0.290
27.5091 7.833 0.286
27.5295 8.021 0.289
27.5500 7.198 0.274
27.5705 7.740 0.284
27.5909 8.104 0.291
27.6114 7.490 0.279
27.6319 7.510 0.280
27.6523 7.542 0.280
27.6728 6.823 0.267
27.6932 7.156 0.273
27.7137 7.625 0.282
27.7342 7.438 0.278
27.7546 7.729 0.284
27.7751 7.990 0.288
27.7956 7.823 0.285
27.8160 7.698 0.283
27.8365 7.906 0.287
27.8569 7.510 0.280
27.8774 7.583 0.281
27.8979 7.104 0.272
27.9183 7.531 0.280
27.9388 8.000 0.289
27.9593 7.427 0.278
27.9797 7.573 0.281
28.0002 7.406 0.278
28.0207 7.896 0.287
28.0411 7.479 0.279
28.0616 7.635 0.282
28.0820 7.792 0.285
28.1025 7.656 0.282
28.1230 7.750 0.284
28.1434 7.792 0.285
28.1639 8.010 0.289
28.1844 7.073 0.271
28.2048 7.333 0.276
28.2253 7.104 0.272
28.2457 7.375 0.277
28.2662 7.448 0.279
28.2867 6.875 0.268
28.3071 7.083 0.272
28.3276 6.781 0.266
28.3481 7.021 0.270
28.3685 6.906 0.268
28.3890 7.490 0.279
28.4094 7.188 0.274
28.4299 6.729 0.265
28.4504 7.063 0.271
28.4708 7.156 0.273
28.4913 6.646 0.263
28.5118 6.677 0.264
28.5322 7.333 0.276
28.5527 6.813 0.266
28.5731 7.021 0.270
28.5936 7.385 0.277
28.6141 7.854 0.286
28.6345 7.646 0.282
28.6550 7.198 0.274
28.6755 7.396 0.278
28.6959 7.219 0.274
28.7164 7.740 0.284
28.7368 7.729 0.284
28.7573 7.135 0.273
28.7778 7.365 0.277
28.7982 7.469 0.279
28.8187 7.281 0.275
28.8392 7.229 0.274
28.8596 7.792 0.285
28.8801 7.594 0.281
28.9006 7.406 0.278
28.9210 7.281 0.275
28.9415 7.521 0.280
28.9619 7.833 0.286
28.9824 7.156 0.273
29.0029 6.833 0.267
29.0233 7.333 0.276
29.0438 7.365 0.277
29.0643 7.250 0.275
29.0847 6.917 0.268
29.1052 6.646 0.263
29.1256 7.198 0.274
29.1461 6.854 0.267
29.1666 7.354 0.277
29.1870 6.698 0.264
29.2075 7.063 0.271
29.2280 7.021 0.270
29.2484 6.906 0.268
29.2689 7.010 0.270
29.2893 7.510 0.280
29.3098 8.010 0.289
29.3303 8.479 0.297
29.3507 8.500 0.298
29.3712 8.479 0.297
29.3917 8.229 0.293
29.4121 7.448 0.279
29.4326 7.875 0.286
29.4530 7.833 0.286
29.4735 7.167 0.273
29.4940 6.948 0.269
29.5144 6.698 0.264
29.5349 6.854 0.267
29.5554 6.875 0.268
29.5758 7.604 0.281
29.5963 6.823 0.267
29.6168 6.906 0.268
29.6372 6.563 0.261
29.6577 6.823 0.267
29.6781 6.948 0.269
29.6986 6.896 0.268
29.7191 6.531 0.261
29.7395 6.646 0.263
29.7600 6.354 0.257
29.7805 6.625 0.263
29.8009 6.531 0.261
29.8214 6.406 0.258
29.8418 6.740 0.265
29.8623 6.521 0.261
29.8828 6.906 0.268
29.9032 6.750 0.265
29.9237 7.177 0.273
29.9442 6.698 0.264
29.9646 6.677 0.264
29.9851 6.802 0.266
30.0055 6.469 0.260
30.0260 7.385 0.277
30.0465 6.906 0.268
30.0669 6.844 0.267
30.0874 6.719 0.265
30.1079 6.458 0.259
30.1283 6.469 0.260
30.1488 6.740 0.265
30.1692 6.750 0.265
30.1897 6.490 0.260
30.2102 6.719 0.265
30.2306 6.771 0.266
30.2511 6.656 0.263
30.2716 6.646 0.263
30.2920 6.604 0.262
30.3125 7.031 0.271
30.3329 6.469 0.260
30.3534 6.760 0.265
30.3739 6.500 0.260
30.3943 6.396 0.258
30.4148 6.448 0.259
30.4353 6.979 0.270
30.4557 6.583 0.262
30.4762 7.521 0.280
30.4967 6.938 0.269
30.5171 6.854 0.267
30.5376 6.490 0.260
30.5580 6.771 0.266
30.5785 6.802 0.266
30.5990 6.906 0.268
30.6194 6.969 0.269
30.6399 7.031 0.271
30.6604 6.969 0.269
30.6808 7.031 0.271
30.7013 7.240 0.275
30.7217 6.917 0.268
30.7422 7.510 0.280
30.7627 8.188 0.292
30.7831 8.281 0.294
30.8036 7.990 0.288
30.8241 8.656 0.300
30.8445 8.781 0.302
30.8650 9.542 0.315
30.8854 10.896 0.337
30.9059 12.365 0.359
30.9264 15.031 0.396
30.9468 20.156 0.458
30.9673 28.813 0.548
30.9878 38.115 0.630
31.0082 46.083 0.693
31.0287 47.052 0.700
31.0491 43.948 0.677
31.0696 40.490 0.649
31.0901 38.375 0.632
31.1105 30.229 0.561
31.1310 24.688 0.507
31.1515 19.406 0.450
31.1719 15.052 0.396
31.1924 12.510 0.361
31.2128 10.625 0.333
31.2333 10.240 0.327
31.2538 9.490 0.314
31.2742 8.688 0.301
31.2947 9.229 0.310
31.3152 8.271 0.294
31.3356 9.042 0.307
31.3561 8.500 0.298
31.3766 8.115 0.291
31.3970 7.510 0.280
31.4175 7.750 0.284
31.4379 7.635 0.282
31.4584 7.104 0.272
31.4789 7.250 0.275
31.4993 7.104 0.272
31.5198 6.896 0.268
31.5403 6.708 0.264
31.5607 6.802 0.266
31.5812 6.521 0.261
31.6016 6.760 0.265
31.6221 6.823 0.267
31.6426 6.250 0.255
31.6630 6.448 0.259
31.6835 6.031 0.251
31.7040 6.594 0.262
31.7244 7.240 0.275
31.7449 6.990 0.270
31.7653 6.760 0.265
31.7858 6.531 0.261
31.8063 7.000 0.270
31.8267 6.677 0.264
31.8472 6.906 0.268
31.8677 6.188 0.254
31.8881 7.125 0.272
31.9086 6.490 0.260
31.9290 7.198 0.274
31.9495 7.198 0.274
31.9700 6.615 0.262
31.9904 7.125 0.272
32.0109 7.927 0.287
32.0314 7.938 0.288
32.0518 7.906 0.287
32.0723 8.167 0.292
32.0927 8.823 0.303
32.1132 8.635 0.300
32.1337 9.563 0.316
32.1541 9.146 0.309
32.1746 9.979 0.322
32.1951 9.990 0.323
32.2155 9.510 0.315
32.2360 9.500 0.315
32.2565 8.865 0.304
32.2769 9.500 0.315
32.2974 8.688 0.301
32.3178 8.771 0.302
32.3383 8.396 0.296
32.3588 8.708 0.301
32.3792 9.271 0.311
32.3997 9.260 0.311
32.4202 10.010 0.323
32.4406 10.750 0.335
32.4611 11.500 0.346
32.4815 11.792 0.350
32.5020 13.115 0.370
32.5225 14.198 0.385
32.5429 15.313 0.399
32.5634 17.448 0.426
32.5839 19.927 0.456
32.6043 24.333 0.503
32.6248 23.458 0.494
32.6452 20.740 0.465
32.6657 18.771 0.442
32.6862 17.427 0.426
32.7066 16.271 0.412
32.7271 13.604 0.376
32.7476 11.313 0.343
32.7680 9.521 0.315
32.7885 8.573 0.299
32.8089 8.229 0.293
32.8294 8.229 0.293
32.8499 7.583 0.281
32.8703 7.500 0.280
32.8908 6.781 0.266
32.9113 6.760 0.265
32.9317 7.323 0.276
32.9522 7.021 0.270
32.9726 7.104 0.272
32.9931 7.281 0.275
33.0136 6.573 0.262
33.0340 6.917 0.268
33.0545 6.729 0.265
33.0750 6.583 0.262
33.0954 6.333 0.257
33.1159 7.083 0.272
33.1364 6.813 0.266
33.1568 6.302 0.256
33.1773 6.417 0.259
33.1977 6.688 0.264
33.2182 6.823 0.267
33.2387 6.938 0.269
33.2591 6.896 0.268
33.2796 6.438 0.259
33.3001 6.406 0.258
33.3205 6.760 0.265
33.3410 6.750 0.265
33.3614 6.990 0.270
33.3819 6.240 0.255
33.4024 6.719 0.265
33.4228 6.896 0.268
33.4433 6.365 0.257
33.4638 6.396 0.258
33.4842 6.417 0.259
33.5047 6.396 0.258
33.5251 6.427 0.259
33.5456 6.635 0.263
33.5661 6.969 0.269
33.5865 6.167 0.253
33.6070 6.677 0.264
33.6275 6.844 0.267
33.6479 6.510 0.260
33.6684 6.594 0.262
33.6888 6.604 0.262
33.7093 6.458 0.259
33.7298 6.594 0.262
33.7502 6.615 0.262
33.7707 6.823 0.267
33.7912 6.521 0.261
33.8116 6.802 0.266
33.8321 6.073 0.252
33.8526 6.708 0.264
33.8730 6.177 0.254
33.8935 6.458 0.259
33.9139 6.521 0.261
33.9344 5.896 0.248
33.9549 6.698 0.264
33.9753 6.052 0.251
33.9958 6.552 0.261
34.0163 6.396 0.258
34.0367 6.146 0.253
34.0572 6.448 0.259
34.0776 6.365 0.257
34.0981 6.177 0.254
34.1186 6.438 0.259
34.1390 6.052 0.251
34.1595 6.344 0.257
34.1800 6.438 0.259
34.2004 6.667 0.264
34.2209 6.698 0.264
34.2413 7.083 0.272
34.2618 6.031 0.251
34.2823 6.552 0.261
34.3027 6.833 0.267
34.3232 6.917 0.268
34.3437 6.677 0.264
34.3641 6.448 0.259
34.3846 6.615 0.262
34.4050 6.615 0.262
34.4255 6.698 0.264
34.4460 5.990 0.250
34.4664 6.510 0.260
34.4869 5.865 0.247
34.5074 6.125 0.253
34.5278 6.229 0.255
34.5483 6.469 0.260
34.5687 6.427 0.259
34.5892 6.635 0.263
34.6097 6.417 0.259
34.6301 6.146 0.253
34.6506 5.969 0.249
34.6711 5.927 0.248
34.6915 6.219 0.255
34.7120 6.635 0.263
34.7325 6.292 0.256
34.7529 6.156 0.253
34.7734 6.479 0.260
34.7938 6.073 0.252
34.8143 6.302 0.256
34.8348 6.229 0.255
34.8552 6.479 0.260
34.8757 6.896 0.268
34.8962 6.865 0.267
34.9166 7.000 0.270
34.9371 7.604 0.281
34.9575 7.552 0.280
34.9780 6.917 0.268
34.9985 7.135 0.273
35.0189 6.760 0.265
35.0394 7.177 0.273
35.0599 7.146 0.273
35.0803 6.646 0.263
35.1008 6.490 0.260
35.1212 7.438 0.278
35.1417 6.000 0.250
35.1622 6.563 0.261
35.1826 6.542 0.261
35.2031 6.573 0.262
35.2236 6.406 0.258
35.2440 6.729 0.265
35.2645 6.344 0.257
35.2849 7.000 0.270
35.3054 6.750 0.265
35.3259 6.896 0.268
35.3463 7.208 0.274
35.3668 6.865 0.267
35.3873 6.979 0.270
35.4077 6.854 0.267
35.4282 6.896 0.268
35.4486 7.083 0.272
35.4691 7.125 0.272
35.4896 7.063 0.271
35.5100 7.281 0.275
35.5305 6.979 0.270
35.5510 6.688 0.264
35.5714 6.573 0.262
35.5919 7.104 0.272
35.6124 7.177 0.273
35.6328 7.229 0.274
35.6533 6.948 0.269
35.6737 7.354 0.277
35.6942 6.906 0.268
35.7147 7.510 0.280
35.7351 7.490 0.279
35.7556 7.396 0.278
35.7761 7.250 0.275
35.7965 7.292 0.276
35.8170 7.531 0.280
35.8374 7.458 0.279
35.8579 7.708 0.283
35.8784 7.635 0.282
35.8988 8.219 0.293
35.9193 8.479 0.297
35.9398 8.802 0.303
35.9602 8.313 0.294
35.9807 8.854 0.304
36.0011 9.625 0.317
36.0216 9.427 0.313
36.0421 9.906 0.321
36.0625 10.729 0.334
36.0830 11.365 0.344
36.1035 12.146 0.356
36.1239 13.688 0.378
36.1444 13.229 0.371
36.1648 13.573 0.376
36.1853 13.875 0.380
36.2058 13.604 0.376
36.2262 13.677 0.377
36.2467 13.292 0.372
36.2672 13.135 0.370
36.2876 12.865 0.366
36.3081 13.031 0.368
36.3285 13.438 0.374
36.3490 13.469 0.375
36.3695 12.438 0.360
36.3899 13.698 0.378
36.4104 14.385 0.387
36.4309 15.083 0.396
36.4513 15.240 0.398
36.4718 16.875 0.419
36.4923 16.667 0.417
36.5127 17.729 0.430
36.5332 20.302 0.460
36.5536 22.990 0.489
36.5741 26.896 0.529
36.5946 28.271 0.543
36.6150 25.823 0.519
36.6355 23.656 0.496
36.6560 22.469 0.484
36.6764 21.854 0.477
36.6969 21.073 0.469
36.7173 18.688 0.441
36.7378 16.688 0.417
36.7583 15.313 0.399
36.7787 15.208 0.398
36.7992 14.458 0.388
36.8197 14.146 0.384
36.8401 14.240 0.385
36.8606 14.979 0.395
36.8810 14.396 0.387
36.9015 15.365 0.400
36.9220 16.177 0.411
36.9424 16.875 0.419
36.9629 17.760 0.430
36.9834 20.000 0.456
37.0038 22.885 0.488
37.0243 26.302 0.523
37.0447 31.354 0.571
37.0652 35.313 0.606
37.0857 32.531 0.582
37.1061 29.229 0.552
37.1266 25.073 0.511
37.1471 25.198 0.512
37.1675 24.042 0.500
37.1880 21.135 0.469
37.2084 17.438 0.426
37.2289 14.813 0.393
37.2494 14.552 0.389
37.2698 12.948 0.367
37.2903 11.792 0.350
37.3108 10.948 0.338
37.3312 10.604 0.332
37.3517 10.771 0.335
37.3722 10.500 0.331
37.3926 10.333 0.328
37.4131 9.906 0.321
37.4335 9.802 0.320
37.4540 9.510 0.315
37.4745 10.042 0.323
37.4949 9.938 0.322
37.5154 9.708 0.318
37.5359 9.740 0.319
37.5563 9.656 0.317
37.5768 9.167 0.309
37.5972 9.719 0.318
37.6177 9.552 0.315
37.6382 9.844 0.320
37.6586 9.385 0.313
37.6791 9.302 0.311
37.6996 9.188 0.309
37.7200 9.823 0.320
37.7405 9.469 0.314
37.7609 9.469 0.314
37.7814 9.135 0.308
37.8019 9.948 0.322
37.8223 9.021 0.307
37.8428 9.177 0.309
37.8633 9.875 0.321
37.8837 9.938 0.322
37.9042 9.958 0.322
37.9246 10.146 0.325
37.9451 10.760 0.335
37.9656 12.365 0.359
37.9860 14.646 0.391
38.0065 16.552 0.415
38.0270 16.063 0.409
38.0474 15.042 0.396
38.0679 14.906 0.394
38.0884 14.188 0.384
38.1088 14.802 0.393
38.1293 13.865 0.380
38.1497 12.719 0.364
38.1702 12.365 0.359
38.1907 11.719 0.349
38.2111 12.250 0.357
38.2316 12.229 0.357
38.2521 11.229 0.342
38.2725 11.240 0.342
38.2930 10.479 0.330
38.3134 10.813 0.336
38.3339 10.917 0.337
38.3544 10.990 0.338
38.3748 10.427 0.330
38.3953 11.792 0.350
38.4158 13.198 0.371
38.4362 14.938 0.394
38.4567 14.865 0.393
38.4771 14.615 0.390
38.4976 13.875 0.380
38.5181 13.125 0.370
38.5385 12.698 0.364
38.5590 12.281 0.358
38.5795 11.458 0.345
38.5999 11.167 0.341
38.6204 10.594 0.332
38.6408 9.802 0.320
38.6613 9.646 0.317
38.6818 9.354 0.312
38.7022 9.583 0.316
38.7227 9.365 0.312
38.7432 9.500 0.315
38.7636 8.708 0.301
38.7841 8.458 0.297
38.8045 8.792 0.303
38.8250 8.594 0.299
38.8455 8.740 0.302
38.8659 8.771 0.302
38.8864 9.083 0.308
38.9069 9.031 0.307
38.9273 8.813 0.303
38.9478 8.813 0.303
38.9683 8.448 0.297
38.9887 9.010 0.306
39.0092 8.604 0.299
39.0296 8.771 0.302
39.0501 8.719 0.301
39.0706 8.469 0.297
39.0910 8.531 0.298
39.1115 8.083 0.290
39.1320 8.229 0.293
39.1524 8.354 0.295
39.1729 8.344 0.295
39.1933 8.500 0.298
39.2138 8.333 0.295
39.2343 8.302 0.294
39.2547 8.427 0.296
39.2752 8.146 0.291
39.2957 8.927 0.305
39.3161 8.427 0.296
39.3366 8.521 0.298
39.3570 8.896 0.304
39.3775 9.063 0.307
39.3980 8.677 0.301
39.4184 8.865 0.304
39.4389 8.677 0.301
39.4594 8.802 0.303
39.4798 8.875 0.304
39.5003 8.573 0.299
39.5207 8.979 0.306
39.5412 8.438 0.296
39.5617 9.156 0.309
39.5821 8.490 0.297
39.6026 8.667 0.300
39.6231 8.677 0.301
39.6435 9.417 0.313
39.6640 9.573 0.316
39.6844 10.208 0.326
39.7049 10.740 0.334
39.7254 10.188 0.326
39.7458 11.979 0.353
39.7663 12.427 0.360
39.7868 12.802 0.365
39.8072 12.406 0.359
39.8277 10.823 0.336
39.8482 11.031 0.339
39.8686 11.250 0.342
39.8891 10.854 0.336
39.9095 10.969 0.338
39.9300 9.854 0.320
39.9505 9.125 0.308
39.9709 8.885 0.304
39.9914 8.833 0.303
40.0119 8.500 0.298
40.0323 8.833 0.303
40.0528 8.823 0.303
40.0732 8.354 0.295
40.0937 8.073 0.290
40.1142 8.021 0.289
40.1346 8.990 0.306
40.1551 8.104 0.291
40.1756 8.542 0.298
40.1960 9.156 0.309
40.2165 9.542 0.315
40.2369 10.854 0.336
40.2574 13.552 0.376
40.2779 12.958 0.367
40.2983 10.563 0.332
40.3188 9.771 0.319
40.3393 10.844 0.336
40.3597 11.458 0.345
40.3802 11.198 0.342
40.4006 10.198 0.326
40.4211 9.427 0.313
40.4416 8.688 0.301
40.4620 9.458 0.314
40.4825 9.188 0.309
40.5030 8.646 0.300
40.5234 8.750 0.302
40.5439 8.063 0.290
40.5643 8.490 0.297
40.5848 8.281 0.294
40.6053 8.396 0.296
40.6257 8.313 0.294
40.6462 7.573 0.281
40.6667 8.094 0.290
40.6871 8.146 0.291
40.7076 7.969 0.288
40.7281 8.063 0.290
40.7485 7.958 0.288
40.7690 8.260 0.293
40.7894 8.698 0.301
40.8099 8.406 0.296
40.8304 8.552 0.298
40.8508 8.250 0.293
40.8713 7.719 0.284
40.8918 8.219 0.293
40.9122 7.510 0.280
40.9327 8.375 0.295
40.9531 8.333 0.295
40.9736 7.885 0.287
40.9941 7.927 0.287
41.0145 8.625 0.300
41.0350 9.031 0.307
41.0555 9.833 0.320
41.0759 11.052 0.339
41.0964 12.021 0.354
41.1168 12.375 0.359
41.1373 12.938 0.367
41.1578 11.573 0.347
41.1782 10.771 0.335
41.1987 10.604 0.332
41.2192 10.854 0.336
41.2396 10.385 0.329
41.2601 9.417 0.313
41.2805 9.406 0.313
41.3010 8.385 0.296
41.3215 8.031 0.289
41.3419 8.510 0.298
41.3624 7.938 0.288
41.3829 7.385 0.277
41.4033 7.656 0.282
41.4238 7.281 0.275
41.4442 7.271 0.275
41.4647 6.729 0.265
41.4852 6.948 0.269
41.5056 6.896 0.268
41.5261 6.938 0.269
41.5466 6.542 0.261
41.5670 6.885 0.268
41.5875 7.073 0.271
41.6080 6.865 0.267
41.6284 7.063 0.271
41.6489 6.448 0.259
41.6693 6.927 0.269
41.6898 6.490 0.260
41.7103 6.531 0.261
41.7307 6.344 0.257
41.7512 7.417 0.278
41.7717 6.875 0.268
41.7921 6.333 0.257
41.8126 6.896 0.268
41.8330 6.833 0.267
41.8535 7.052 0.271
41.8740 6.948 0.269
41.8944 6.521 0.261
41.9149 6.844 0.267
41.9354 7.500 0.280
41.9558 6.417 0.259
41.9763 6.979 0.270
41.9967 6.906 0.268
42.0172 6.844 0.267
42.0377 6.229 0.255
42.0581 7.354 0.277
42.0786 7.000 0.270
42.0991 7.208 0.274
42.1195 7.146 0.273
42.1400 7.177 0.273
42.1604 7.146 0.273
42.1809 7.583 0.281
42.2014 7.125 0.272
42.2218 7.615 0.282
42.2423 7.688 0.283
42.2628 7.438 0.278
42.2832 8.021 0.289
42.3037 8.531 0.298
42.3242 8.115 0.291
42.3446 9.010 0.306
42.3651 8.604 0.299
42.3855 8.688 0.301
42.4060 8.417 0.296
42.4265 8.531 0.298
42.4469 8.313 0.294
42.4674 8.198 0.292
42.4879 8.094 0.290
42.5083 8.115 0.291
42.5288 8.052 0.290
42.5492 8.271 0.294
42.5697 7.729 0.284
42.5902 8.219 0.293
42.6106 8.646 0.300
42.6311 8.083 0.290
42.6516 8.354 0.295
42.6720 8.260 0.293
42.6925 7.792 0.285
42.7129 7.406 0.278
42.7334 7.771 0.285
42.7539 7.375 0.277
42.7743 7.427 0.278
42.7948 7.667 0.283
42.8153 7.875 0.286
42.8357 7.240 0.275
42.8562 7.667 0.283
42.8766 7.323 0.276
42.8971 7.396 0.278
42.9176 7.385 0.277
42.9380 7.406 0.278
42.9585 7.490 0.279
42.9790 7.417 0.278
42.9994 7.365 0.277
43.0199 7.604 0.281
43.0403 8.135 0.291
43.0608 7.458 0.279
43.0813 7.802 0.285
43.1017 7.719 0.284
43.1222 8.271 0.294
43.1427 8.354 0.295
43.1631 8.854 0.304
43.1836 8.990 0.306
43.2041 9.667 0.317
43.2245 9.698 0.318
43.2450 10.052 0.324
43.2654 8.750 0.302
43.2859 9.469 0.314
43.3064 9.469 0.314
43.3268 8.740 0.302
43.3473 9.781 0.319
43.3678 9.740 0.319
43.3882 9.344 0.312
43.4087 9.656 0.317
43.4291 9.479 0.314
43.4496 9.990 0.323
43.4701 10.198 0.326
43.4905 11.240 0.342
43.5110 11.260 0.342
43.5315 12.063 0.354
43.5519 13.302 0.372
43.5724 15.781 0.405
43.5928 17.573 0.428
43.6133 20.010 0.457
43.6338 20.396 0.461
43.6542 17.948 0.432
43.6747 16.719 0.417
43.6952 16.000 0.408
43.7156 14.917 0.394
43.7361 14.844 0.393
43.7565 14.583 0.390
43.7770 12.458 0.360
43.7975 11.104 0.340
43.8179 10.104 0.324
43.8384 9.250 0.310
43.8589 9.375 0.313
43.8793 8.000 0.289
43.8998 8.219 0.293
43.9202 8.031 0.289
43.9407 7.656 0.282
43.9612 7.927 0.287
43.9816 7.615 0.282
44.0021 7.417 0.278
44.0226 7.219 0.274
44.0430 7.458 0.279
44.0635 7.271 0.275
44.0840 7.156 0.273
44.1044 7.271 0.275
44.1249 6.896 0.268
44.1453 7.094 0.272
44.1658 7.250 0.275
44.1863 6.563 0.261
44.2067 6.719 0.265
44.2272 7.500 0.280
44.2477 6.896 0.268
44.2681 6.490 0.260
44.2886 7.042 0.271
44.3090 7.042 0.271
44.3295 6.938 0.269
44.3500 7.354 0.277
44.3704 6.958 0.269
44.3909 7.260 0.275
44.4114 7.052 0.271
44.4318 6.938 0.269
44.4523 6.927 0.269
44.4727 6.583 0.262
44.4932 6.594 0.262
44.5137 7.250 0.275
44.5341 6.479 0.260
44.5546 6.740 0.265
44.5751 6.594 0.262
44.5955 6.854 0.267
44.6160 6.948 0.269
44.6364 7.198 0.274
44.6569 6.729 0.265
44.6774 6.688 0.264
44.6978 7.073 0.271
44.7183 7.438 0.278
44.7388 6.865 0.267
44.7592 6.885 0.268
44.7797 7.021 0.270
44.8001 7.188 0.274
44.8206 7.365 0.277
44.8411 7.583 0.281
44.8615 7.385 0.277
44.8820 7.531 0.280
44.9025 8.073 0.290
44.9229 7.979 0.288
44.9434 7.896 0.287
44.9639 8.083 0.290
44.9843 7.760 0.284
45.0048 8.063 0.290
45.0252 7.615 0.282
45.0457 7.833 0.286
45.0662 7.708 0.283
45.0866 7.708 0.283
45.1071 7.479 0.279
45.1276 7.563 0.281
45.1480 7.906 0.287
45.1685 8.490 0.297
45.1889 9.469 0.314
45.2094 9.365 0.312
45.2299 10.469 0.330
45.2503 9.917 0.321
45.2708 9.750 0.319
45.2913 9.427 0.313
45.3117 9.115 0.308
45.3322 9.073 0.307
45.3526 9.510 0.315
45.3731 9.156 0.309
45.3936 7.979 0.288
45.4140 7.563 0.281
45.4345 7.583 0.281
45.4550 7.656 0.282
45.4754 7.292 0.276
45.4959 7.469 0.279
45.5163 7.313 0.276
45.5368 7.302 0.276
45.5573 6.771 0.266
45.5777 6.938 0.269
45.5982 7.094 0.272
45.6187 6.677 0.264
45.6391 6.708 0.264
45.6596 5.813 0.246
45.6800 6.396 0.258
45.7005 6.615 0.262
45.7210 6.000 0.250
45.7414 6.385 0.258
45.7619 6.396 0.258
45.7824 5.750 0.245
45.8028 6.375 0.258
45.8233 6.083 0.252
45.8438 6.958 0.269
45.8642 6.302 0.256
45.8847 6.563 0.261
45.9051 6.167 0.253
45.9256 5.792 0.246
45.9461 6.281 0.256
45.9665 6.479 0.260
45.9870 6.125 0.253
46.0075 5.813 0.246
46.0279 6.500 0.260
46.0484 6.094 0.252
46.0688 6.104 0.252
46.0893 6.333 0.257
46.1098 5.771 0.245
46.1302 5.990 0.250
46.1507 6.156 0.253
46.1712 6.625 0.263
46.1916 6.219 0.255
46.2121 6.260 0.255
46.2325 6.208 0.254
46.2530 6.313 0.256
46.2735 6.583 0.262
46.2939 5.833 0.247
46.3144 5.615 0.242
46.3349 6.240 0.255
46.3553 6.302 0.256
46.3758 6.271 0.256
46.3962 6.167 0.253
46.4167 5.979 0.250
46.4372 6.135 0.253
46.4576 5.896 0.248
46.4781 5.896 0.248
46.4986 6.135 0.253
46.5190 5.948 0.249
46.5395 5.958 0.249
46.5600 6.260 0.255
46.5804 5.906 0.248
46.6009 6.396 0.258
46.6213 6.042 0.251
46.6418 6.323 0.257
46.6623 6.156 0.253
46.6827 6.406 0.258
46.7032 5.927 0.248
46.7237 6.250 0.255
46.7441 6.219 0.255
46.7646 6.188 0.254
46.7850 5.896 0.248
46.8055 5.542 0.240
46.8260 5.667 0.243
46.8464 5.427 0.238
46.8669 5.563 0.241
46.8874 5.490 0.239
46.9078 5.760 0.245
46.9283 6.198 0.254
46.9487 6.208 0.254
46.9692 6.281 0.256
46.9897 5.719 0.244
47.0101 6.323 0.257
47.0306 5.760 0.245
47.0511 5.604 0.242
47.0715 5.927 0.248
47.0920 5.865 0.247
47.1124 6.083 0.252
47.1329 6.219 0.255
47.1534 5.719 0.244
47.1738 6.063 0.251
47.1943 5.833 0.247
47.2148 6.083 0.252
47.2352 6.031 0.251
47.2557 6.198 0.254
47.2761 6.188 0.254
47.2966 6.083 0.252
47.3171 6.438 0.259
47.3375 5.938 0.249
47.3580 6.490 0.260
47.3785 5.990 0.250
47.3989 6.677 0.264
47.4194 6.177 0.254
47.4399 6.781 0.266
47.4603 7.229 0.274
47.4808 7.302 0.276
47.5012 7.250 0.275
47.5217 8.240 0.293
47.5422 8.885 0.304
47.5626 10.125 0.325
47.5831 10.990 0.338
47.6036 12.177 0.356
47.6240 10.760 0.335
47.6445 10.365 0.329
47.6649 9.563 0.316
47.6854 10.063 0.324
47.7059 10.188 0.326
47.7263 10.167 0.325
47.7468 9.896 0.321
47.7673 9.313 0.311
47.7877 8.979 0.306
47.8082 8.177 0.292
47.8286 7.719 0.284
47.8491 8.260 0.293
47.8696 7.510 0.280
47.8900 7.490 0.279
47.9105 7.135 0.273
47.9310 6.885 0.268
47.9514 6.802 0.266
47.9719 7.146 0.273
47.9923 7.323 0.276
48.0128 6.594 0.262
48.0333 6.771 0.266
48.0537 6.708 0.264
48.0742 6.406 0.258
48.0947 6.292 0.256
48.1151 7.063 0.271
48.1356 6.521 0.261
48.1560 6.396 0.258
48.1765 7.135 0.273
48.1970 6.885 0.268
48.2174 6.469 0.260
48.2379 6.552 0.261
48.2584 7.010 0.270
48.2788 7.271 0.275
48.2993 7.115 0.272
48.3198 7.885 0.287
48.3402 7.760 0.284
48.3607 7.417 0.278
48.3811 7.583 0.281
48.4016 7.667 0.283
48.4221 7.323 0.276
48.4425 6.854 0.267
48.4630 7.188 0.274
48.4835 7.354 0.277
48.5039 6.833 0.267
48.5244 6.948 0.269
48.5448 6.677 0.264
48.5653 6.656 0.263
48.5858 6.344 0.257
48.6062 6.885 0.268
48.6267 7.135 0.273
48.6472 6.531 0.261
48.6676 6.552 0.261
48.6881 7.615 0.282
48.7085 7.667 0.283
48.7290 7.271 0.275
48.7495 6.958 0.269
48.7699 6.979 0.270
48.7904 6.427 0.259
48.8109 6.979 0.270
48.8313 7.094 0.272
48.8518 6.615 0.262
48.8722 6.542 0.261
48.8927 6.323 0.257
48.9132 6.250 0.255
48.9336 5.885 0.248
48.9541 6.052 0.251
48.9746 5.688 0.243
48.9950 5.469 0.239
49.0155 5.948 0.249
49.0359 6.250 0.255
49.0564 5.813 0.246
49.0769 6.271 0.256
49.0973 5.604 0.242
49.1178 5.490 0.239
49.1383 5.427 0.238
49.1587 5.979 0.250
49.1792 5.667 0.243
49.1997 5.552 0.240
49.2201 5.938 0.249
49.2406 5.813 0.246
49.2610 5.802 0.246
49.2815 5.750 0.245
49.3020 5.958 0.249
49.3224 6.000 0.250
49.3429 5.844 0.247
49.3634 5.771 0.245
49.3838 6.240 0.255
49.4043 6.219 0.255
49.4247 5.521 0.240
49.4452 5.938 0.249
49.4657 6.750 0.265
49.4861 6.635 0.263
49.5066 5.969 0.249
49.5271 6.333 0.257
49.5475 6.875 0.268
49.5680 6.667 0.264
49.5884 6.563 0.261
49.6089 6.958 0.269
49.6294 7.167 0.273
49.6498 7.281 0.275
49.6703 6.833 0.267
49.6908 7.854 0.286
49.7112 7.708 0.283
49.7317 8.844 0.304
49.7521 9.229 0.310
49.7726 10.510 0.331
49.7931 11.906 0.352
49.8135 13.667 0.377
49.8340 14.906 0.394
49.8545 14.042 0.382
49.8749 13.406 0.374
49.8954 13.052 0.369
49.9158 12.250 0.357
49.9363 11.958 0.353
49.9568 12.531 0.361
49.9772 12.104 0.355
49.9977 11.281 0.343
50.0182 10.719 0.334
50.0386 9.771 0.319
50.0591 9.406 0.313
50.0796 8.729 0.302
50.1000 9.271 0.311
50.1205 9.125 0.308
50.1409 9.188 0.309
50.1614 9.250 0.310
50.1819 9.531 0.315
50.2023 9.146 0.309
50.2228 9.406 0.313
50.2433 8.875 0.304
50.2637 9.271 0.311
50.2842 8.698 0.301
50.3046 8.698 0.301
50.3251 8.833 0.303
50.3456 8.698 0.301
50.3660 7.844 0.286
50.3865 8.052 0.290
50.4070 7.510 0.280
50.4274 7.385 0.277
50.4479 7.406 0.278
50.4683 6.771 0.266
50.4888 6.729 0.265
50.5093 6.688 0.264
50.5297 7.000 0.270
50.5502 6.521 0.261
50.5707 6.885 0.268
50.5911 6.906 0.268
50.6116 6.979 0.270
50.6320 7.344 0.277
50.6525 6.823 0.267
50.6730 6.917 0.268
50.6934 6.646 0.263
50.7139 6.667 0.264
50.7344 7.417 0.278
50.7548 6.938 0.269
50.7753 6.719 0.265
50.7958 7.313 0.276
50.8162 6.917 0.268
50.8367 7.240 0.275
50.8571 6.729 0.265
50.8776 7.021 0.270
50.8981 7.042 0.271
50.9185 6.948 0.269
50.9390 7.729 0.284
50.9595 8.406 0.296
50.9799 8.417 0.296
51.0004 7.802 0.285
51.0208 6.969 0.269
51.0413 7.229 0.274
51.0618 6.792 0.266
51.0822 7.167 0.273
51.1027 7.313 0.276
51.1232 7.125 0.272
51.1436 6.667 0.264
51.1641 6.865 0.267
51.1845 6.833 0.267
51.2050 6.906 0.268
51.2255 6.427 0.259
51.2459 6.521 0.261
51.2664 6.938 0.269
51.2869 7.104 0.272
51.3073 6.781 0.266
51.3278 6.427 0.259
51.3482 6.854 0.267
51.3687 6.521 0.261
51.3892 6.500 0.260
51.4096 6.344 0.257
51.4301 6.771 0.266
51.4506 5.990 0.250
51.4710 5.781 0.245
51.4915 5.688 0.243
51.5119 6.104 0.252
51.5324 5.865 0.247
51.5529 5.333 0.236
51.5733 6.115 0.252
51.5938 6.448 0.259
51.6143 6.563 0.261
51.6347 7.104 0.272
51.6552 7.156 0.273
51.6757 7.052 0.271
51.6961 6.573 0.262
51.7166 6.542 0.261
51.7370 6.219 0.255
51.7575 6.094 0.252
51.7780 6.906 0.268
51.7984 6.094 0.252
51.8189 6.177 0.254
51.8394 5.917 0.248
51.8598 5.781 0.245
51.8803 5.583 0.241
51.9007 5.813 0.246
51.9212 5.323 0.235
51.9417 5.948 0.249
51.9621 5.865 0.247
51.9826 5.729 0.244
52.0031 5.604 0.242
52.0235 5.375 0.237
52.0440 5.385 0.237
52.0644 5.521 0.240
52.0849 5.583 0.241
52.1054 5.677 0.243
52.1258 5.656 0.243
52.1463 5.531 0.240
52.1668 4.823 0.224
52.1872 5.563 0.241
52.2077 5.323 0.235
52.2281 5.229 0.233
52.2486 5.375 0.237
52.2691 5.927 0.248
52.2895 5.438 0.238
52.3100 5.521 0.240
52.3305 5.333 0.236
52.3509 5.177 0.232
52.3714 5.615 0.242
52.3918 5.740 0.245
52.4123 5.625 0.242
52.4328 5.740 0.245
52.4532 5.396 0.237
52.4737 5.052 0.229
52.4942 5.344 0.236
52.5146 4.948 0.227
52.5351 5.656 0.243
52.5556 5.833 0.247
52.5760 4.823 0.224
52.5965 5.302 0.235
52.6169 4.906 0.226
52.6374 5.417 0.238
52.6579 5.490 0.239
52.6783 5.219 0.233
52.6988 4.844 0.225
52.7193 5.250 0.234
52.7397 4.969 0.228
52.7602 5.281 0.235
52.7806 5.521 0.240
52.8011 5.021 0.229
52.8216 5.510 0.240
52.8420 4.969 0.228
52.8625 4.865 0.225
52.8830 5.302 0.235
52.9034 5.375 0.237
52.9239 5.448 0.238
52.9443 4.917 0.226
52.9648 5.021 0.229
52.9853 5.604 0.242
53.0057 5.406 0.237
53.0262 5.875 0.247
53.0467 5.219 0.233
53.0671 5.563 0.241
53.0876 5.781 0.245
53.1080 5.875 0.247
53.1285 5.781 0.245
53.1490 5.427 0.238
53.1694 5.688 0.243
53.1899 5.458 0.238
53.2104 5.802 0.246
53.2308 5.938 0.249
53.2513 5.375 0.237
53.2717 5.677 0.243
53.2922 5.531 0.240
53.3127 5.625 0.242
53.3331 4.906 0.226
53.3536 5.188 0.232
53.3741 5.302 0.235
53.3945 5.656 0.243
53.4150 5.146 0.232
53.4355 5.063 0.230
53.4559 5.260 0.234
53.4764 5.281 0.235
53.4968 5.281 0.235
53.5173 5.604 0.242
53.5378 4.948 0.227
53.5582 5.521 0.240
53.5787 5.250 0.234
53.5992 5.417 0.238
53.6196 5.073 0.230
53.6401 5.240 0.234
53.6605 5.604 0.242
53.6810 5.156 0.232
53.7015 5.188 0.232
53.7219 5.302 0.235
53.7424 4.948 0.227
53.7629 4.917 0.226
53.7833 4.885 0.226
53.8038 5.052 0.229
53.8242 5.063 0.230
53.8447 5.000 0.228
53.8652 4.948 0.227
53.8856 4.885 0.226
53.9061 5.188 0.232
53.9266 5.438 0.238
53.9470 5.198 0.233
53.9675 5.052 0.229
53.9879 5.104 0.231
54.0084 5.531 0.240
54.0289 5.010 0.228
54.0493 5.198 0.233
54.0698 5.042 0.229
54.0903 5.750 0.245
54.1107 5.146 0.232
54.1312 5.479 0.239
54.1516 5.677 0.243
54.1721 5.510 0.240
54.1926 5.438 0.238
54.2130 5.438 0.238
54.2335 5.531 0.240
54.2540 5.156 0.232
54.2744 5.104 0.231
54.2949 5.198 0.233
54.3154 5.094 0.230
54.3358 5.052 0.229
54.3563 5.323 0.235
54.3767 5.229 0.233
54.3972 5.042 0.229
54.4177 4.938 0.227
54.4381 4.771 0.223
54.4586 5.229 0.233
54.4791 5.083 0.230
54.4995 4.927 0.227
54.5200 5.281 0.235
54.5404 4.750 0.222
54.5609 5.333 0.236
54.5814 5.104 0.231
54.6018 4.813 0.224
54.6223 4.844 0.225
54.6428 5.083 0.230
54.6632 5.031 0.229
54.6837 4.823 0.224
54.7041 5.083 0.230
54.7246 5.094 0.230
54.7451 5.458 0.238
54.7655 5.313 0.235
54.7860 5.260 0.234
54.8065 5.250 0.234
54.8269 5.240 0.234
54.8474 4.979 0.228
54.8678 5.417 0.238
54.8883 5.500 0.239
54.9088 5.208 0.233
54.9292 5.469 0.239
54.9497 6.427 0.259
54.9702 5.917 0.248
54.9906 6.115 0.252
55.0111 7.000 0.270
55.0316 6.938 0.269
55.0520 7.792 0.285
55.0725 8.229 0.293
55.0929 9.698 0.318
55.1134 11.052 0.339
55.1339 12.448 0.360
55.1543 14.000 0.382
55.1748 15.063 0.396
55.1953 14.073 0.383
55.2157 12.854 0.366
55.2362 13.042 0.369
55.2566 12.906 0.367
55.2771 12.479 0.361
55.2976 12.448 0.360
55.3180 11.990 0.353
55.3385 11.406 0.345
55.3590 10.344 0.328
55.3794 9.427 0.313
55.3999 9.052 0.307
55.4203 7.969 0.288
55.4408 7.406 0.278
55.4613 7.031 0.271
55.4817 6.573 0.262
55.5022 6.677 0.264
55.5227 6.021 0.250
55.5431 5.896 0.248
55.5636 5.990 0.250
55.5840 6.021 0.250
55.6045 5.323 0.235
55.6250 5.771 0.245
55.6454 5.500 0.239
55.6659 5.500 0.239
55.6864 5.521 0.240
55.7068 5.729 0.244
55.7273 6.115 0.252
55.7477 5.625 0.242
55.7682 5.740 0.245
55.7887 6.073 0.252
55.8091 6.333 0.257
55.8296 5.927 0.248
55.8501 6.083 0.252
55.8705 6.198 0.254
55.8910 5.958 0.249
55.9115 6.167 0.253
55.9319 6.104 0.252
55.9524 6.271 0.256
55.9728 6.594 0.262
55.9933 6.104 0.252
56.0138 7.146 0.273
56.0342 6.708 0.264
56.0547 7.010 0.270
56.0752 7.354 0.277
56.0956 8.188 0.292
56.1161 8.479 0.297
56.1365 9.698 0.318
56.1570 11.156 0.341
56.1775 11.740 0.350
56.1979 11.344 0.344
56.2184 11.177 0.341
56.2389 9.948 0.322
56.2593 9.354 0.312
56.2798 9.292 0.311
56.3002 9.250 0.310
56.3207 9.229 0.310
56.3412 9.156 0.309
56.3616 8.146 0.291
56.3821 7.917 0.287
56.4026 6.948 0.269
56.4230 6.250 0.255
56.4435 6.052 0.251
56.4639 6.031 0.251
56.4844 5.677 0.243
56.5049 5.365 0.236
56.5253 5.052 0.229
56.5458 5.417 0.238
56.5663 4.844 0.225
56.5867 5.469 0.239
56.6072 5.021 0.229
56.6276 5.146 0.232
56.6481 5.063 0.230
56.6686 4.823 0.224
56.6890 4.885 0.226
56.7095 5.427 0.238
56.7300 5.083 0.230
56.7504 4.656 0.220
56.7709 4.490 0.216
56.7914 4.948 0.227
56.8118 4.771 0.223
56.8323 5.469 0.239
56.8527 4.656 0.220
56.8732 4.521 0.217
56.8937 4.854 0.225
56.9141 4.396 0.214
56.9346 4.938 0.227
56.9551 4.740 0.222
56.9755 4.760 0.223
56.9960 4.604 0.219
57.0164 4.885 0.226
57.0369 4.281 0.211
57.0574 4.698 0.221
57.0778 4.177 0.209
57.0983 4.552 0.218
57.1188 4.469 0.216
57.1392 4.760 0.223
57.1597 4.135 0.208
57.1801 4.729 0.222
57.2006 4.740 0.222
57.2211 4.344 0.213
57.2415 4.677 0.221
57.2620 5.021 0.229
57.2825 5.063 0.230
57.3029 4.615 0.219
57.3234 4.750 0.222
57.3438 5.073 0.230
57.3643 4.885 0.226
57.3848 4.729 0.222
57.4052 4.885 0.226
57.4257 4.604 0.219
57.4462 4.969 0.228
57.4666 4.927 0.227
57.4871 4.688 0.221
57.5075 5.125 0.231
57.5280 4.844 0.225
57.5485 5.177 0.232
57.5689 5.188 0.232
57.5894 4.885 0.226
57.6099 5.094 0.230
57.6303 5.479 0.239
57.6508 5.229 0.233
57.6713 5.156 0.232
57.6917 5.135 0.231
57.7122 5.375 0.237
57.7326 5.500 0.239
57.7531 5.635 0.242
57.7736 5.708 0.244
57.7940 6.260 0.255
57.8145 6.396 0.258
57.8350 6.958 0.269
57.8554 7.354 0.277
57.8759 7.969 0.288
57.8963 7.896 0.287
57.9168 8.646 0.300
57.9373 8.271 0.294
57.9577 7.802 0.285
57.9782 7.417 0.278
57.9987 7.500 0.280
58.0191 6.917 0.268
58.0396 6.927 0.269
58.0600 7.510 0.280
58.0805 7.625 0.282
58.1010 7.115 0.272
58.1214 6.760 0.265
58.1419 6.104 0.252
58.1624 6.094 0.252
58.1828 5.604 0.242
58.2033 5.865 0.247
58.2237 5.385 0.237
58.2442 6.052 0.251
58.2647 5.531 0.240
58.2851 5.604 0.242
58.3056 5.490 0.239
58.3261 4.844 0.225
58.3465 5.438 0.238
58.3670 5.667 0.243
58.3874 5.333 0.236
58.4079 5.417 0.238
58.4284 5.240 0.234
58.4488 5.229 0.233
58.4693 5.396 0.237
58.4898 5.240 0.234
58.5102 5.500 0.239
58.5307 5.656 0.243
58.5512 5.740 0.245
58.5716 5.469 0.239
58.5921 5.542 0.240
58.6125 5.740 0.245
58.6330 4.792 0.223
58.6535 5.375 0.237
58.6739 5.698 0.244
58.6944 5.292 0.235
58.7149 5.552 0.240
58.7353 5.198 0.233
58.7558 5.281 0.235
58.7762 5.990 0.250
58.7967 5.646 0.243
58.8172 5.688 0.243
58.8376 5.854 0.247
58.8581 5.448 0.238
58.8786 5.771 0.245
58.8990 5.615 0.242
58.9195 5.448 0.238
58.9399 5.333 0.236
58.9604 5.594 0.241
58.9809 5.875 0.247
59.0013 6.000 0.250
59.0218 5.990 0.250
59.0423 5.406 0.237
59.0627 5.781 0.245
59.0832 5.969 0.249
59.1036 6.188 0.254
59.1241 6.740 0.265
59.1446 7.250 0.275
59.1650 7.281 0.275
59.1855 7.917 0.287
59.2060 7.698 0.283
59.2264 7.115 0.272
59.2469 7.719 0.284
59.2674 6.865 0.267
59.2878 6.500 0.260
59.3083 6.531 0.261
59.3287 6.583 0.262
59.3492 6.552 0.261
59.3697 6.521 0.261
59.3901 5.927 0.248
59.4106 5.740 0.245
59.4311 5.958 0.249
59.4515 5.240 0.234
59.4720 5.500 0.239
59.4924 5.042 0.229
59.5129 5.240 0.234
59.5334 4.979 0.228
59.5538 4.948 0.227
59.5743 5.229 0.233
59.5948 5.104 0.231
59.6152 5.010 0.228
59.6357 4.927 0.227
59.6561 4.906 0.226
59.6766 4.833 0.224
59.6971 4.938 0.227
59.7175 4.896 0.226
59.7380 4.646 0.220
59.7585 5.719 0.244
59.7789 5.292 0.235
59.7994 5.792 0.246
59.8198 6.313 0.256
59.8403 6.615 0.262
59.8608 6.208 0.254
59.8812 6.979 0.270
59.9017 7.063 0.271
59.9222 6.885 0.268
59.9426 6.135 0.253
59.9631 6.500 0.260
59.9835 6.083 0.252
60.0040 6.469 0.260
60.0245 6.302 0.256
60.0449 6.542 0.261
60.0654 6.521 0.261
60.0859 5.990 0.250
60.1063 5.240 0.234
60.1268 5.615 0.242
60.1473 5.219 0.233
60.1677 4.625 0.219
60.1882 4.792 0.223
60.2086 5.156 0.232
60.2291 4.708 0.221
60.2496 4.656 0.220
60.2700 5.115 0.231
60.2905 4.563 0.218
60.3110 4.854 0.225
60.3314 4.906 0.226
60.3519 4.823 0.224
60.3723 4.792 0.223
60.3928 4.656 0.220
60.4133 4.281 0.211
60.4337 4.469 0.216
60.4542 4.042 0.205
60.4747 4.740 0.222
60.4951 4.625 0.219
60.5156 4.250 0.210
60.5360 4.823 0.224
60.5565 4.344 0.213
60.5770 4.615 0.219
60.5974 4.583 0.219
60.6179 4.844 0.225
60.6384 4.813 0.224
60.6588 4.990 0.228
60.6793 4.573 0.218
60.6997 4.677 0.221
60.7202 4.833 0.224
60.7407 4.885 0.226
60.7611 4.708 0.221
60.7816 4.750 0.222
60.8021 4.260 0.211
60.8225 4.615 0.219
60.8430 4.729 0.222
60.8634 4.573 0.218
60.8839 4.500 0.217
60.9044 4.594 0.219
60.9248 4.688 0.221
60.9453 4.594 0.219
60.9658 4.677 0.221
60.9862 4.823 0.224
61.0067 4.750 0.222
61.0272 4.531 0.217
61.0476 4.354 0.213
61.0681 4.521 0.217
61.0885 4.667 0.220
61.1090 4.281 0.211
61.1295 4.229 0.210
61.1499 4.031 0.205
61.1704 4.417 0.214
61.1909 4.219 0.210
61.2113 4.677 0.221
61.2318 4.448 0.215
61.2522 4.177 0.209
61.2727 4.313 0.212
61.2932 4.625 0.219
61.3136 4.208 0.209
61.3341 4.073 0.206
61.3546 3.969 0.203
61.3750 4.354 0.213
61.3955 4.104 0.207
61.4159 4.760 0.223
61.4364 3.948 0.203
61.4569 4.021 0.205
61.4773 4.406 0.214
61.4978 4.490 0.216
61.5183 4.250 0.210
61.5387 3.760 0.198
61.5592 4.490 0.216
61.5796 4.188 0.209
61.6001 3.802 0.199
61.6206 4.313 0.212
61.6410 4.375 0.213
61.6615 4.365 0.213
61.6820 4.292 0.211
61.7024 4.104 0.207
61.7229 4.250 0.210
61.7433 4.219 0.210
61.7638 4.292 0.211
61.7843 4.490 0.216
61.8047 4.281 0.211
61.8252 4.250 0.210
61.8457 4.240 0.210
61.8661 4.354 0.213
61.8866 4.688 0.221
61.9071 4.104 0.207
61.9275 4.469 0.216
61.9480 4.531 0.217
61.9684 4.417 0.214
61.9889 4.240 0.210
62.0094 4.469 0.216
62.0298 4.427 0.215
62.0503 4.177 0.209
62.0708 4.469 0.216
62.0912 5.073 0.230
62.1117 5.396 0.237
62.1321 5.406 0.237
62.1526 5.167 0.232
62.1731 5.365 0.236
62.1935 5.042 0.229
62.2140 4.677 0.221
62.2345 4.969 0.228
62.2549 4.688 0.221
62.2754 4.792 0.223
62.2958 5.042 0.229
62.3163 4.552 0.218
62.3368 4.792 0.223
62.3572 4.552 0.218
62.3777 4.104 0.207
62.3982 4.385 0.214
62.4186 4.323 0.212
62.4391 4.448 0.215
62.4595 4.052 0.205
62.4800 4.729 0.222
62.5005 4.375 0.213
62.5209 4.323 0.212
62.5414 4.292 0.211
62.5619 4.156 0.208
62.5823 4.625 0.219
62.6028 4.271 0.211
62.6232 4.156 0.208
62.6437 4.302 0.212
62.6642 4.260 0.211
62.6846 4.375 0.213
62.7051 4.448 0.215
62.7256 3.781 0.198
62.7460 4.583 0.219
62.7665 4.063 0.206
62.7870 4.500 0.217
62.8074 4.375 0.213
62.8279 4.125 0.207
62.8483 4.344 0.213
62.8688 4.604 0.219
62.8893 4.167 0.208
62.9097 4.479 0.216
62.9302 4.729 0.222
62.9507 4.125 0.207
62.9711 4.438 0.215
62.9916 4.854 0.225
63.0120 4.427 0.215
63.0325 4.500 0.217
63.0530 4.302 0.212
63.0734 4.458 0.216
63.0939 4.344 0.213
63.1144 4.615 0.219
63.1348 4.115 0.207
63.1553 4.458 0.216
63.1757 4.740 0.222
63.1962 4.240 0.210
63.2167 4.229 0.210
63.2371 4.375 0.213
63.2576 4.865 0.225
63.2781 4.177 0.209
63.2985 4.167 0.208
63.3190 4.281 0.211
63.3394 4.396 0.214
63.3599 4.573 0.218
63.3804 4.552 0.218
63.4008 4.469 0.216
63.4213 4.667 0.220
63.4418 4.542 0.218
63.4622 4.448 0.215
63.4827 4.677 0.221
63.5032 4.615 0.219
63.5236 4.656 0.220
63.5441 4.615 0.219
63.5645 4.667 0.220
63.5850 4.583 0.219
63.6055 4.813 0.224
63.6259 5.177 0.232
63.6464 4.823 0.224
63.6669 4.917 0.226
63.6873 5.031 0.229
63.7078 4.625 0.219
63.7282 4.760 0.223
63.7487 4.625 0.219
63.7692 4.708 0.221
63.7896 4.781 0.223
63.8101 4.948 0.227
63.8306 4.896 0.226
63.8510 5.083 0.230
63.8715 4.990 0.228
63.8919 4.708 0.221
63.9124 4.927 0.227
63.9329 4.781 0.223
63.9533 4.833 0.224
63.9738 4.885 0.226
63.9943 5.583 0.241
64.0147 5.313 0.235
64.0352 4.656 0.220
64.0556 5.406 0.237
64.0761 5.115 0.231
64.0966 4.646 0.220
64.1170 5.375 0.237
64.1375 4.938 0.227
64.1580 4.594 0.219
64.1784 4.708 0.221
64.1989 5.198 0.233
64.2193 4.896 0.226
64.2398 5.177 0.232
64.2603 4.885 0.226
64.2807 5.344 0.236
64.3012 5.052 0.229
64.3217 5.104 0.231
64.3421 5.167 0.232
64.3626 5.208 0.233
64.3831 4.781 0.223
64.4035 5.000 0.228
64.4240 5.063 0.230
64.4444 5.198 0.233
64.4649 4.906 0.226
64.4854 5.063 0.230
64.5058 5.760 0.245
64.5263 5.531 0.240
64.5468 5.760 0.245
64.5672 6.135 0.253
64.5877 6.729 0.265
64.6081 7.115 0.272
64.6286 7.604 0.281
64.6491 7.573 0.281
64.6695 7.417 0.278
64.6900 7.229 0.274
64.7105 7.135 0.273
64.7309 6.323 0.257
64.7514 6.833 0.267
64.7718 6.698 0.264
64.7923 6.646 0.263
64.8128 7.104 0.272
64.8332 6.771 0.266
64.8537 6.156 0.253
64.8742 6.125 0.253
64.8946 5.615 0.242
64.9151 5.781 0.245
64.9355 5.427 0.238
64.9560 5.104 0.231
64.9765 5.365 0.236
64.9969 4.802 0.224
65.0174 4.906 0.226
65.0379 4.594 0.219
65.0583 4.688 0.221
65.0788 4.427 0.215
65.0992 4.458 0.216
65.1197 4.385 0.214
65.1402 4.365 0.213
65.1606 4.625 0.219
65.1811 4.563 0.218
65.2016 4.750 0.222
65.2220 4.677 0.221
65.2425 4.188 0.209
65.2630 4.448 0.215
65.2834 4.531 0.217
65.3039 4.656 0.220
65.3243 4.323 0.212
65.3448 4.417 0.214
65.3653 3.990 0.204
65.3857 4.771 0.223
65.4062 4.094 0.207
65.4267 4.323 0.212
65.4471 4.729 0.222
65.4676 4.552 0.218
65.4880 4.740 0.222
65.5085 5.063 0.230
65.5290 5.302 0.235
65.5494 5.344 0.236
65.5699 6.021 0.250
65.5904 5.781 0.245
65.6108 5.010 0.228
65.6313 5.177 0.232
65.6517 5.146 0.232
65.6722 4.896 0.226
65.6927 4.958 0.227
65.7131 4.656 0.220
65.7336 5.479 0.239
65.7541 5.000 0.228
65.7745 5.302 0.235
65.7950 5.031 0.229
65.8154 4.760 0.223
65.8359 4.802 0.224
65.8564 4.896 0.226
65.8768 4.573 0.218
65.8973 4.281 0.211
65.9178 4.344 0.213
65.9382 4.292 0.211
65.9587 4.323 0.212
65.9791 3.979 0.204
65.9996 4.490 0.216
66.0201 4.333 0.212
66.0405 4.021 0.205
66.0610 4.781 0.223
66.0815 4.250 0.210
66.1019 4.656 0.220
66.1224 4.021 0.205
66.1429 4.156 0.208
66.1633 3.833 0.200
66.1838 4.000 0.204
66.2042 3.948 0.203
66.2247 4.323 0.212
66.2452 4.031 0.205
66.2656 3.979 0.204
66.2861 4.042 0.205
66.3066 4.219 0.210
66.3270 3.927 0.202
66.3475 4.240 0.210
66.3679 4.000 0.204
66.3884 3.667 0.195
66.4089 4.083 0.206
66.4293 3.979 0.204
66.4498 4.271 0.211
66.4703 4.115 0.207
66.4907 3.969 0.203
66.5112 3.938 0.203
66.5316 4.104 0.207
66.5521 4.281 0.211
66.5726 3.740 0.197
66.5930 3.979 0.204
66.6135 4.510 0.217
66.6340 4.458 0.216
66.6544 4.260 0.211
66.6749 4.458 0.216
66.6953 4.365 0.213
66.7158 4.021 0.205
66.7363 4.052 0.205
66.7567 4.365 0.213
66.7772 4.750 0.222
66.7977 4.167 0.208
66.8181 3.979 0.204
66.8386 4.354 0.213
66.8590 4.344 0.213
66.8795 4.521 0.217
66.9000 4.448 0.215
66.9204 5.000 0.228
66.9409 5.031 0.229
66.9614 4.583 0.219
66.9818 4.906 0.226
67.0023 4.865 0.225
67.0228 5.323 0.235
67.0432 5.563 0.241
67.0637 6.063 0.251
67.0841 6.208 0.254
67.1046 6.646 0.263
67.1251 7.438 0.278
67.1455 7.615 0.282
67.1660 7.583 0.281
67.1865 7.396 0.278
67.2069 6.740 0.265
67.2274 6.969 0.269
67.2478 6.552 0.261
67.2683 6.417 0.259
67.2888 6.167 0.253
67.3092 6.469 0.260
67.3297 6.333 0.257
67.3502 6.427 0.259
67.3706 5.917 0.248
67.3911 6.135 0.253
67.4115 5.604 0.242
67.4320 5.427 0.238
67.4525 5.646 0.243
67.4729 5.115 0.231
67.4934 4.823 0.224
67.5139 4.719 0.222
67.5343 5.250 0.234
67.5548 4.615 0.219
67.5752 4.573 0.218
67.5957 4.958 0.227
67.6162 4.802 0.224
67.6366 4.125 0.207
67.6571 4.948 0.227
67.6776 4.281 0.211
67.6980 4.542 0.218
67.7185 5.094 0.230
67.7389 4.604 0.219
67.7594 4.823 0.224
67.7799 4.646 0.220
67.8003 4.729 0.222
67.8208 4.906 0.226
67.8413 4.688 0.221
67.8617 4.771 0.223
67.8822 4.365 0.213
67.9027 4.635 0.220
67.9231 4.635 0.220
67.9436 5.052 0.229
67.9640 4.417 0.214
67.9845 4.865 0.225
68.0050 4.958 0.227
68.0254 5.344 0.236
68.0459 4.604 0.219
68.0664 4.615 0.219
68.0868 4.635 0.220
68.1073 5.271 0.234
68.1277 5.021 0.229
68.1482 4.667 0.220
68.1687 5.156 0.232
68.1891 5.240 0.234
68.2096 5.073 0.230
68.2301 4.813 0.224
68.2505 5.115 0.231
68.2710 5.333 0.236
68.2914 5.333 0.236
68.3119 5.677 0.243
68.3324 5.479 0.239
68.3528 5.396 0.237
68.3733 5.438 0.238
68.3938 5.177 0.232
68.4142 4.833 0.224
68.4347 4.781 0.223
68.4551 4.729 0.222
68.4756 4.740 0.222
68.4961 4.531 0.217
68.5165 4.635 0.220
68.5370 4.438 0.215
68.5575 4.760 0.223
68.5779 4.656 0.220
68.5984 4.240 0.210
68.6189 4.448 0.215
68.6393 4.021 0.205
68.6598 4.479 0.216
68.6802 4.521 0.217
68.7007 4.115 0.207
68.7212 4.125 0.207
68.7416 4.115 0.207
68.7621 4.271 0.211
68.7826 4.010 0.204
68.8030 3.750 0.198
68.8235 4.083 0.206
68.8439 4.167 0.208
68.8644 3.625 0.194
68.8849 4.365 0.213
68.9053 4.094 0.207
68.9258 4.625 0.219
68.9463 4.698 0.221
68.9667 4.563 0.218
68.9872 4.719 0.222
69.0076 4.729 0.222
69.0281 4.781 0.223
69.0486 4.635 0.220
69.0690 4.375 0.213
69.0895 4.531 0.217
69.1100 4.677 0.221
69.1304 4.719 0.222
69.1509 4.490 0.216
69.1713 4.865 0.225
69.1918 4.854 0.225
69.2123 4.823 0.224
69.2327 4.719 0.222
69.2532 5.115 0.231
69.2737 4.406 0.214
69.2941 4.500 0.217
69.3146 4.417 0.214
69.3350 4.229 0.210
69.3555 4.865 0.225
69.3760 3.719 0.197
69.3964 4.333 0.212
69.4169 4.354 0.213
69.4374 4.531 0.217
69.4578 4.000 0.204
69.4783 4.188 0.209
69.4988 4.521 0.217
69.5192 3.875 0.201
69.5397 4.115 0.207
69.5601 3.906 0.202
69.5806 4.104 0.207
69.6011 4.240 0.210
69.6215 3.958 0.203
69.6420 3.948 0.203
69.6625 4.115 0.207
69.6829 3.625 0.194
69.7034 3.885 0.201
69.7238 3.365 0.187
69.7443 3.771 0.198
69.7648 3.615 0.194
69.7852 4.052 0.205
69.8057 3.625 0.194
69.8262 3.906 0.202
69.8466 3.833 0.200
69.8671 3.635 0.195
69.8875 3.885 0.201
69.9080 3.677 0.196
69.9285 3.500 0.191
69.9489 3.594 0.193
69.9694 3.802 0.199
69.9899 3.781 0.198
70.0103 3.885 0.201
70.0308 3.760 0.198
70.0512 3.646 0.195
70.0717 3.615 0.194
70.0922 3.729 0.197
70.1126 3.635 0.195
70.1331 3.938 0.203
70.1536 3.906 0.202
70.1740 3.667 0.195
70.1945 3.906 0.202
70.2149 3.958 0.203
70.2354 4.115 0.207
70.2559 4.052 0.205
70.2763 3.573 0.193
70.2968 3.771 0.198
70.3173 3.563 0.193
70.3377 3.729 0.197
70.3582 3.500 0.191
70.3787 3.646 0.195
70.3991 3.948 0.203
70.4196 4.000 0.204
70.4400 4.000 0.204
70.4605 3.635 0.195
70.4810 3.521 0.192
70.5014 3.750 0.198
70.5219 3.885 0.201
70.5424 3.990 0.204
70.5628 3.500 0.191
70.5833 3.677 0.196
70.6037 3.750 0.198
70.6242 3.906 0.202
70.6447 3.948 0.203
70.6651 3.823 0.200
70.6856 3.760 0.198
70.7061 3.427 0.189
70.7265 3.385 0.188
70.7470 3.510 0.191
70.7674 3.813 0.199
70.7879 3.396 0.188
70.8084 3.646 0.195
70.8288 3.615 0.194
70.8493 3.563 0.193
70.8698 3.438 0.189
70.8902 3.406 0.188
70.9107 4.063 0.206
70.9311 3.875 0.201
70.9516 3.594 0.193
70.9721 3.688 0.196
70.9925 3.594 0.193
71.0130 3.406 0.188
71.0335 3.563 0.193
71.0539 4.125 0.207
71.0744 3.427 0.189
71.0948 3.646 0.195
71.1153 3.677 0.196
71.1358 3.927 0.202
71.1562 3.760 0.198
71.1767 3.510 0.191
71.1972 3.542 0.192
71.2176 3.510 0.191
71.2381 3.417 0.189
71.2586 3.719 0.197
71.2790 3.510 0.191
71.2995 3.823 0.200
71.3199 3.469 0.190
71.3404 4.000 0.204
71.3609 3.583 0.193
71.3813 3.594 0.193
71.4018 3.625 0.194
71.4223 3.583 0.193
71.4427 3.469 0.190
71.4632 3.417 0.189
71.4836 3.573 0.193
71.5041 3.521 0.192
71.5246 3.698 0.196
71.5450 3.740 0.197
71.5655 3.240 0.184
71.5860 3.240 0.184
71.6064 3.344 0.187
71.6269 3.260 0.184
71.6473 3.135 0.181
71.6678 3.521 0.192
71.6883 3.521 0.192
71.7087 3.469 0.190
71.7292 3.521 0.192
71.7497 3.646 0.195
71.7701 3.521 0.192
71.7906 3.573 0.193
71.8110 3.563 0.193
71.8315 3.240 0.184
71.8520 3.677 0.196
71.8724 3.771 0.198
71.8929 3.583 0.193
71.9134 3.510 0.191
71.9338 3.479 0.190
71.9543 3.604 0.194
71.9747 3.771 0.198
71.9952 3.552 0.192
72.0157 3.365 0.187
72.0361 3.656 0.195
72.0566 3.813 0.199
72.0771 3.552 0.192
72.0975 3.563 0.193
72.1180 3.563 0.193
72.1385 3.354 0.187
72.1589 3.365 0.187
72.1794 3.542 0.192
72.1998 3.542 0.192
72.2203 3.250 0.184
72.2408 3.302 0.185
72.2612 3.365 0.187
72.2817 3.479 0.190
72.3022 3.719 0.197
72.3226 3.479 0.190
72.3431 3.469 0.190
72.3635 3.469 0.190
72.3840 3.417 0.189
72.4045 3.177 0.182
72.4249 3.240 0.184
72.4454 3.313 0.186
72.4659 3.396 0.188
72.4863 3.521 0.192
72.5068 3.479 0.190
72.5272 3.281 0.185
72.5477 3.729 0.197
72.5682 3.833 0.200
72.5886 3.635 0.195
72.6091 3.552 0.192
72.6296 3.552 0.192
72.6500 3.271 0.185
72.6705 3.521 0.192
72.6909 3.365 0.187
72.7114 3.375 0.188
72.7319 3.396 0.188
72.7523 3.656 0.195
72.7728 3.760 0.198
72.7933 3.365 0.187
72.8137 3.750 0.198
72.8342 3.781 0.198
72.8547 3.865 0.201
72.8751 3.885 0.201
72.8956 3.906 0.202
72.9160 3.552 0.192
72.9365 3.844 0.200
72.9570 3.490 0.191
72.9774 3.604 0.194
72.9979 3.677 0.196
73.0184 3.729 0.197
73.0388 3.740 0.197
73.0593 3.552 0.192
73.0797 3.969 0.203
73.1002 3.333 0.186
73.1207 3.469 0.190
73.1411 3.542 0.192
73.1616 3.344 0.187
73.1821 2.948 0.175
73.2025 3.375 0.188
73.2230 3.625 0.194
73.2434 3.240 0.184
73.2639 3.438 0.189
73.2844 3.177 0.182
73.3048 3.302 0.185
73.3253 3.583 0.193
73.3458 3.500 0.191
73.3662 2.844 0.172
73.3867 3.417 0.189
73.4071 3.219 0.183
73.4276 3.083 0.179
73.4481 2.969 0.176
73.4685 3.198 0.183
73.4890 3.604 0.194
73.5095 3.323 0.186
73.5299 3.135 0.181
73.5504 3.458 0.190
73.5708 3.146 0.181
73.5913 3.073 0.179
73.6118 3.313 0.186
73.6322 3.563 0.193
73.6527 3.427 0.189
73.6732 3.844 0.200
73.6936 3.313 0.186
73.7141 3.406 0.188
73.7346 3.240 0.184
73.7550 3.021 0.177
73.7755 3.094 0.180
73.7959 3.188 0.182
73.8164 3.177 0.182
73.8369 3.052 0.178
73.8573 3.781 0.198
73.8778 3.708 0.197
73.8983 3.354 0.187
73.9187 3.417 0.189
73.9392 3.292 0.185
73.9596 3.292 0.185
73.9801 3.156 0.181
74.0006 3.375 0.188
74.0210 3.240 0.184
74.0415 3.500 0.191
74.0620 3.458 0.190
74.0824 3.677 0.196
74.1029 3.677 0.196
74.1233 3.615 0.194
74.1438 3.771 0.198
74.1643 3.479 0.190
74.1847 3.427 0.189
74.2052 3.844 0.200
74.2257 3.844 0.200
74.2461 3.302 0.185
74.2666 3.427 0.189
74.2870 3.125 0.180
74.3075 3.365 0.187
74.3280 3.500 0.191
74.3484 3.250 0.184
74.3689 3.500 0.191
74.3894 3.031 0.178
74.4098 3.031 0.178
74.4303 3.073 0.179
74.4507 3.271 0.185
74.4712 3.458 0.190
74.4917 3.094 0.180
74.5121 3.188 0.182
74.5326 3.135 0.181
74.5531 3.177 0.182
74.5735 3.302 0.185
74.5940 3.260 0.184
74.6145 2.896 0.174
74.6349 2.813 0.171
74.6554 3.542 0.192
74.6758 3.115 0.180
74.6963 3.115 0.180
74.7168 3.260 0.184
74.7372 3.156 0.181
74.7577 2.896 0.174
74.7782 2.979 0.176
74.7986 3.156 0.181
74.8191 3.021 0.177
74.8395 2.958 0.176
74.8600 3.458 0.190
74.8805 3.458 0.190
74.9009 3.479 0.190
74.9214 3.385 0.188
74.9419 3.604 0.194
74.9623 3.406 0.188
74.9828 3.333 0.186
75.0032 3.198 0.183
75.0237 3.167 0.182
75.0442 3.396 0.188
75.0646 3.177 0.182
75.0851 3.552 0.192
75.1056 3.406 0.188
75.1260 3.552 0.192
75.1465 3.521 0.192
75.1669 3.167 0.182
75.1874 3.469 0.190
75.2079 3.229 0.183
75.2283 3.104 0.180
75.2488 3.438 0.189
75.2693 3.010 0.177
75.2897 3.302 0.185
75.3102 3.052 0.178
75.3306 3.813 0.199
75.3511 3.479 0.190
75.3716 3.302 0.185
75.3920 3.396 0.188
75.4125 3.740 0.197
75.4330 3.365 0.187
75.4534 3.479 0.190
75.4739 3.552 0.192
75.4944 3.042 0.178
75.5148 3.229 0.183
75.5353 3.281 0.185
75.5557 3.885 0.201
75.5762 3.479 0.190
75.5967 3.396 0.188
75.6171 3.521 0.192
75.6376 3.885 0.201
75.6581 4.094 0.207
75.6785 4.031 0.205
75.6990 4.250 0.210
75.7194 4.198 0.209
75.7399 4.354 0.213
75.7604 4.156 0.208
75.7808 4.688 0.221
75.8013 4.979 0.228
75.8218 4.510 0.217
75.8422 4.813 0.224
75.8627 4.354 0.213
75.8831 4.229 0.210
75.9036 3.917 0.202
75.9241 4.323 0.212
75.9445 4.063 0.206
75.9650 4.115 0.207
75.9855 4.438 0.215
76.0059 3.958 0.203
76.0264 3.781 0.198
76.0468 4.208 0.209
76.0673 4.073 0.206
76.0878 4.177 0.209
76.1082 3.688 0.196
76.1287 3.521 0.192
76.1492 3.260 0.184
76.1696 3.188 0.182
76.1901 3.458 0.190
76.2105 3.552 0.192
76.2310 3.260 0.184
76.2515 3.458 0.190
76.2719 3.323 0.186
76.2924 3.635 0.195
76.3129 3.406 0.188
76.3333 3.292 0.185
76.3538 3.438 0.189
76.3743 3.156 0.181
76.3947 3.260 0.184
76.4152 3.656 0.195
76.4356 3.323 0.186
76.4561 3.469 0.190
76.4766 3.385 0.188
76.4970 3.438 0.189
76.5175 3.365 0.187
76.5380 3.542 0.192
76.5584 3.281 0.185
76.5789 3.177 0.182
76.5993 3.531 0.192
76.6198 3.583 0.193
76.6403 3.313 0.186
76.6607 3.635 0.195
76.6812 3.479 0.190
76.7017 3.333 0.186
76.7221 3.385 0.188
76.7426 3.219 0.183
76.7630 3.552 0.192
76.7835 3.500 0.191
76.8040 3.177 0.182
76.8244 3.031 0.178
76.8449 3.146 0.181
76.8654 3.094 0.180
76.8858 3.250 0.184
76.9063 3.323 0.186
76.9267 3.594 0.193
76.9472 3.271 0.185
76.9677 3.167 0.182
76.9881 3.542 0.192
77.0086 3.188 0.182
77.0291 3.313 0.186
77.0495 3.135 0.181
77.0700 3.406 0.188
77.0905 2.948 0.175
77.1109 3.375 0.188
77.1314 3.344 0.187
77.1518 3.448 0.190
77.1723 3.208 0.183
77.1928 3.240 0.184
77.2132 3.021 0.177
77.2337 3.490 0.191
77.2542 3.438 0.189
77.2746 3.375 0.188
77.2951 3.750 0.198
77.3155 3.229 0.183
77.3360 3.260 0.184
77.3565 3.500 0.191
77.3769 3.313 0.186
77.3974 3.354 0.187
77.4179 3.656 0.195
77.4383 3.615 0.194
77.4588 3.563 0.193
77.4792 3.500 0.191
77.4997 3.885 0.201
77.5202 4.104 0.207
77.5406 3.938 0.203
77.5611 4.448 0.215
77.5816 3.844 0.200
77.6020 3.990 0.204
77.6225 3.896 0.201
77.6429 3.625 0.194
77.6634 3.469 0.190
77.6839 3.667 0.195
77.7043 4.010 0.204
77.7248 3.979 0.204
77.7453 3.615 0.194
77.7657 4.323 0.212
77.7862 3.896 0.201
77.8066 4.146 0.208
77.8271 3.729 0.197
77.8476 3.781 0.198
77.8680 3.688 0.196
77.8885 3.802 0.199
77.9090 3.906 0.202
77.9294 3.469 0.190
77.9499 3.417 0.189
77.9704 3.573 0.193
77.9908 3.656 0.195
78.0113 3.604 0.194
78.0317 3.677 0.196
78.0522 3.604 0.194
78.0727 3.604 0.194
78.0931 3.615 0.194
78.1136 3.604 0.194
78.1341 3.375 0.188
78.1545 3.417 0.189
78.1750 3.292 0.185
78.1954 3.333 0.186
78.2159 3.427 0.189
78.2364 3.938 0.203
78.2568 3.854 0.200
78.2773 3.531 0.192
78.2978 3.646 0.195
78.3182 3.583 0.193
78.3387 3.698 0.196
78.3591 3.354 0.187
78.3796 3.292 0.185
78.4001 3.479 0.190
78.4205 3.510 0.191
78.4410 3.635 0.195
78.4615 3.677 0.196
78.4819 3.677 0.196
78.5024 3.521 0.192
78.5228 3.448 0.190
78.5433 3.198 0.183
78.5638 3.667 0.195
78.5842 3.740 0.197
78.6047 3.333 0.186
78.6252 3.750 0.198
78.6456 3.708 0.197
78.6661 3.688 0.196
78.6865 3.823 0.200
78.7070 3.771 0.198
78.7275 3.500 0.191
78.7479 3.615 0.194
78.7684 3.344 0.187
78.7889 3.333 0.186
78.8093 3.135 0.181
78.8298 3.125 0.180
78.8503 3.698 0.196
78.8707 3.667 0.195
78.8912 3.313 0.186
78.9116 3.500 0.191
78.9321 3.542 0.192
78.9526 3.292 0.185
78.9730 3.406 0.188
78.9935 3.667 0.195
79.0140 3.719 0.197
79.0344 3.313 0.186
79.0549 3.365 0.187
79.0753 3.000 0.177
79.0958 3.469 0.190
79.1163 3.531 0.192
79.1367 3.604 0.194
79.1572 3.333 0.186
79.1777 3.740 0.197
79.1981 2.813 0.171
79.2186 3.417 0.189
79.2390 3.198 0.183
79.2595 3.156 0.181
79.2800 3.292 0.185
79.3004 3.438 0.189
79.3209 3.719 0.197
79.3414 3.167 0.182
79.3618 3.313 0.186
79.3823 3.240 0.184
79.4027 3.521 0.192
79.4232 3.542 0.192
79.4437 3.708 0.197
79.4641 3.260 0.184
79.4846 3.490 0.191
79.5051 3.833 0.200
79.5255 3.875 0.201
79.5460 3.677 0.196
79.5664 4.000 0.204
79.5869 3.719 0.197
79.6074 3.698 0.196
79.6278 3.354 0.187
79.6483 3.625 0.194
79.6688 3.490 0.191
79.6892 3.510 0.191
79.7097 3.688 0.196
79.7302 3.365 0.187
79.7506 3.813 0.199
79.7711 3.427 0.189
79.7915 3.500 0.191
79.8120 3.573 0.193
79.8325 3.125 0.180
79.8529 3.615 0.194
79.8734 3.385 0.188
79.8939 3.302 0.185
79.9143 3.240 0.184
79.9348 2.938 0.175
79.9552 3.385 0.188
79.9757 3.240 0.184
79.9962 3.531 0.192
