'Id: "" Comment: "" Operator: "Lab Manager" Anode: "Cu" Scantype: "Locked Coupled" TimePerStep: "96" X: "0" Y: "0" Z: "0" 
5.0000 19.115 0.446
5.0205 18.646 0.441
5.0409 18.969 0.445
5.0614 18.677 0.441
5.0819 18.125 0.435
5.1023 18.281 0.436
5.1228 18.604 0.440
5.1432 18.354 0.437
5.1637 18.010 0.433
5.1842 18.125 0.435
5.2046 17.385 0.426
5.2251 17.708 0.429
5.2456 17.448 0.426
5.2660 17.510 0.427
5.2865 18.073 0.434
5.3069 17.490 0.427
5.3274 17.948 0.432
5.3479 17.927 0.432
5.3683 18.167 0.435
5.3888 18.333 0.437
5.4093 18.344 0.437
5.4297 17.688 0.429
5.4502 18.250 0.436
5.4706 16.625 0.416
5.4911 17.240 0.424
5.5116 17.260 0.424
5.5320 17.708 0.429
5.5525 16.906 0.420
5.5730 17.073 0.422
5.5934 15.938 0.407
5.6139 17.073 0.422
5.6343 17.625 0.428
5.6548 16.906 0.420
5.6753 17.594 0.428
5.6957 17.479 0.427
5.7162 17.010 0.421
5.7367 16.354 0.413
5.7571 16.875 0.419
5.7776 16.781 0.418
5.7980 16.146 0.410
5.8185 16.792 0.418
5.8390 16.469 0.414
5.8594 17.146 0.423
5.8799 16.156 0.410
5.9004 16.177 0.411
5.9208 15.990 0.408
5.9413 16.354 0.413
5.9618 16.938 0.420
5.9822 16.063 0.409
6.0027 15.771 0.405
6.0231 16.167 0.410
6.0436 16.198 0.411
6.0641 15.906 0.407
6.0845 16.010 0.408
6.1050 16.083 0.409
6.1255 15.469 0.401
6.1459 15.865 0.407
6.1664 15.438 0.401
6.1868 15.490 0.402
6.2073 15.583 0.403
6.2278 15.844 0.406
6.2482 15.521 0.402
6.2687 15.354 0.400
6.2892 15.708 0.405
6.3096 16.115 0.410
6.3301 15.979 0.408
6.3505 16.167 0.410
6.3710 16.177 0.411
6.3915 15.083 0.396
6.4119 14.823 0.393
6.4324 15.677 0.404
6.4529 15.406 0.401
6.4733 15.708 0.405
6.4938 15.125 0.397
6.5142 15.708 0.405
6.5347 15.969 0.408
6.5552 15.375 0.400
6.5756 15.490 0.402
6.5961 15.250 0.399
6.6166 14.781 0.392
6.6370 15.177 0.398
6.6575 15.250 0.399
6.6779 16.042 0.409
6.6984 15.073 0.396
6.7189 15.354 0.400
6.7393 16.010 0.408
6.7598 15.469 0.401
6.7803 15.948 0.408
6.8007 15.479 0.402
6.8212 16.021 0.409
6.8417 16.740 0.418
6.8621 16.219 0.411
6.8826 16.177 0.411
6.9030 16.323 0.412
6.9235 16.594 0.416
6.9440 17.021 0.421
6.9644 16.979 0.421
6.9849 17.740 0.430
7.0054 17.781 0.430
7.0258 18.750 0.442
7.0463 19.927 0.456
7.0667 19.896 0.455
7.0872 20.781 0.465
7.1077 20.740 0.465
7.1281 21.208 0.470
7.1486 21.490 0.473
7.1691 20.063 0.457
7.1895 20.125 0.458
7.2100 19.417 0.450
7.2304 18.438 0.438
7.2509 17.656 0.429
7.2714 17.938 0.432
7.2918 17.531 0.427
7.3123 17.427 0.426
7.3328 17.188 0.423
7.3532 16.927 0.420
7.3737 16.750 0.418
7.3941 16.833 0.419
7.4146 15.927 0.407
7.4351 16.281 0.412
7.4555 16.573 0.415
7.4760 16.427 0.414
7.4965 16.490 0.414
7.5169 15.833 0.406
7.5374 15.875 0.407
7.5579 15.531 0.402
7.5783 15.875 0.407
7.5988 15.604 0.403
7.6192 15.708 0.405
7.6397 15.750 0.405
7.6602 15.479 0.402
7.6806 15.042 0.396
7.7011 15.625 0.403
7.7216 16.375 0.413
7.7420 15.875 0.407
7.7625 15.990 0.408
7.7829 16.323 0.412
7.8034 15.354 0.400
7.8239 15.333 0.400
7.8443 15.896 0.407
7.8648 15.469 0.401
7.8853 14.750 0.392
7.9057 15.313 0.399
7.9262 16.031 0.409
7.9466 15.740 0.405
7.9671 16.021 0.409
7.9876 15.958 0.408
8.0080 15.938 0.407
8.0285 15.740 0.405
8.0490 15.417 0.401
8.0694 15.667 0.404
8.0899 15.740 0.405
8.1103 15.563 0.403
8.1308 14.896 0.394
8.1513 15.875 0.407
8.1717 15.323 0.400
8.1922 16.333 0.412
8.2127 15.938 0.407
8.2331 16.521 0.415
8.2536 15.885 0.407
8.2740 16.781 0.418
8.2945 16.188 0.411
8.3150 16.385 0.413
8.3354 15.552 0.402
8.3559 15.583 0.403
8.3764 15.604 0.403
8.3968 15.896 0.407
8.4173 15.479 0.402
8.4378 15.927 0.407
8.4582 15.979 0.408
8.4787 16.115 0.410
8.4991 15.344 0.400
8.5196 15.948 0.408
8.5401 15.917 0.407
8.5605 15.115 0.397
8.5810 15.510 0.402
8.6015 15.427 0.401
8.6219 15.615 0.403
8.6424 15.938 0.407
8.6628 15.542 0.402
8.6833 15.344 0.400
8.7038 16.438 0.414
8.7242 15.719 0.405
8.7447 16.385 0.413
8.7652 16.500 0.415
8.7856 17.083 0.422
8.8061 17.646 0.429
8.8265 17.823 0.431
8.8470 18.510 0.439
8.8675 19.125 0.446
8.8879 20.188 0.459
8.9084 19.781 0.454
8.9289 21.115 0.469
8.9493 22.458 0.484
8.9698 23.656 0.496
8.9902 25.542 0.516
9.0107 28.917 0.549
9.0312 34.813 0.602
9.0516 43.021 0.669
9.0721 57.156 0.772
9.0926 75.531 0.887
9.1130 101.208 1.027
9.1335 123.823 1.136
9.1539 109.271 1.067
9.1744 65.698 0.827
9.1949 37.927 0.629
9.2153 33.646 0.592
9.2358 33.042 0.587
9.2563 37.125 0.622
9.2767 41.677 0.659
9.2972 45.927 0.692
9.3177 49.083 0.715
9.3381 51.333 0.731
9.3586 48.969 0.714
9.3790 45.906 0.692
9.3995 43.917 0.676
9.4200 41.031 0.654
9.4404 39.198 0.639
9.4609 38.927 0.637
9.4814 37.125 0.622
9.5018 37.333 0.624
9.5223 36.573 0.617
9.5427 37.885 0.628
9.5632 37.521 0.625
9.5837 40.844 0.652
9.6041 41.344 0.656
9.6246 44.625 0.682
9.6451 46.000 0.692
9.6655 48.490 0.711
9.6860 52.865 0.742
9.7064 56.563 0.768
9.7269 58.938 0.784
9.7474 64.990 0.823
9.7678 71.594 0.864
9.7883 84.979 0.941
9.8088 102.385 1.033
9.8292 126.813 1.149
9.8497 171.792 1.338
9.8701 234.208 1.562
9.8906 316.021 1.814
9.9111 426.438 2.108
9.9315 544.052 2.381
9.9520 447.417 2.159
9.9725 250.885 1.617
9.9929 115.458 1.097
10.0134 70.188 0.855
10.0338 56.271 0.766
10.0543 46.813 0.698
10.0748 41.385 0.657
10.0952 38.333 0.632
10.1157 35.583 0.609
10.1362 32.875 0.585
10.1566 31.115 0.569
10.1771 27.719 0.537
10.1976 25.604 0.516
10.2180 23.969 0.500
10.2385 22.094 0.480
10.2589 21.708 0.476
10.2794 20.927 0.467
10.2999 20.198 0.459
10.3203 20.167 0.458
10.3408 19.406 0.450
10.3613 18.500 0.439
10.3817 18.531 0.439
10.4022 18.010 0.433
10.4226 18.604 0.440
10.4431 18.021 0.433
10.4636 18.125 0.435
10.4840 17.885 0.432
10.5045 17.594 0.428
10.5250 16.844 0.419
10.5454 17.281 0.424
10.5659 16.583 0.416
10.5863 16.750 0.418
10.6068 16.115 0.410
10.6273 16.156 0.410
10.6477 16.740 0.418
10.6682 15.833 0.406
10.6887 15.917 0.407
10.7091 15.198 0.398
10.7296 15.604 0.403
10.7500 16.208 0.411
10.7705 15.458 0.401
10.7910 15.896 0.407
10.8114 15.385 0.400
10.8319 15.344 0.400
10.8524 14.938 0.394
10.8728 15.250 0.399
10.8933 14.990 0.395
10.9137 14.260 0.385
10.9342 14.917 0.394
10.9547 14.396 0.387
10.9751 14.198 0.385
10.9956 14.333 0.386
11.0161 14.875 0.394
11.0365 13.948 0.381
11.0570 14.448 0.388
11.0775 14.375 0.387
11.0979 14.344 0.387
11.1184 14.365 0.387
11.1388 13.917 0.381
11.1593 13.615 0.377
11.1798 14.198 0.385
11.2002 14.188 0.384
11.2207 14.156 0.384
11.2412 13.979 0.382
11.2616 13.406 0.374
11.2821 13.729 0.378
11.3025 13.896 0.380
11.3230 13.906 0.381
11.3435 13.031 0.368
11.3639 13.333 0.373
11.3844 12.750 0.364
11.4049 13.146 0.370
11.4253 13.240 0.371
11.4458 13.146 0.370
11.4662 12.844 0.366
11.4867 12.604 0.362
11.5072 13.240 0.371
11.5276 13.583 0.376
11.5481 13.010 0.368
11.5686 12.885 0.366
11.5890 13.188 0.371
11.6095 12.896 0.367
11.6299 12.708 0.364
11.6504 13.396 0.374
11.6709 12.969 0.368
11.6913 13.198 0.371
11.7118 12.646 0.363
11.7323 12.427 0.360
11.7527 12.688 0.364
11.7732 12.969 0.368
11.7937 11.396 0.345
11.8141 12.323 0.358
11.8346 11.948 0.353
11.8550 11.823 0.351
11.8755 11.823 0.351
11.8960 12.115 0.355
11.9164 12.646 0.363
11.9369 12.635 0.363
11.9574 12.292 0.358
11.9778 12.594 0.362
11.9983 11.646 0.348
12.0187 11.448 0.345
12.0392 12.250 0.357
12.0597 12.115 0.355
12.0801 12.615 0.362
12.1006 12.427 0.360
12.1211 11.927 0.352
12.1415 11.604 0.348
12.1620 11.833 0.351
12.1824 11.781 0.350
12.2029 11.854 0.351
12.2234 11.490 0.346
12.2438 11.708 0.349
12.2643 11.615 0.348
12.2848 12.188 0.356
12.3052 11.802 0.351
12.3257 11.896 0.352
12.3461 11.771 0.350
12.3666 11.656 0.348
12.3871 11.667 0.349
12.4075 11.688 0.349
12.4280 11.052 0.339
12.4485 11.552 0.347
12.4689 11.177 0.341
12.4894 11.656 0.348
12.5098 11.188 0.341
12.5303 11.740 0.350
12.5508 12.115 0.355
12.5712 12.094 0.355
12.5917 11.198 0.342
12.6122 11.021 0.339
12.6326 11.229 0.342
12.6531 11.427 0.345
12.6736 10.771 0.335
12.6940 10.615 0.333
12.7145 10.813 0.336
12.7349 10.573 0.332
12.7554 10.896 0.337
12.7759 10.708 0.334
12.7963 10.885 0.337
12.8168 10.521 0.331
12.8373 10.563 0.332
12.8577 11.167 0.341
12.8782 10.917 0.337
12.8986 10.385 0.329
12.9191 10.542 0.331
12.9396 10.792 0.335
12.9600 10.281 0.327
12.9805 11.208 0.342
13.0010 10.708 0.334
13.0214 10.260 0.327
13.0419 10.563 0.332
13.0623 10.552 0.332
13.0828 10.479 0.330
13.1033 10.604 0.332
13.1237 10.938 0.338
13.1442 10.583 0.332
13.1647 10.604 0.332
13.1851 10.281 0.327
13.2056 10.250 0.327
13.2260 10.698 0.334
13.2465 10.323 0.328
13.2670 9.958 0.322
13.2874 10.333 0.328
13.3079 10.125 0.325
13.3284 11.063 0.339
13.3488 10.250 0.327
13.3693 10.354 0.328
13.3897 10.010 0.323
13.4102 10.031 0.323
13.4307 9.677 0.317
13.4511 9.927 0.322
13.4716 9.979 0.322
13.4921 9.854 0.320
13.5125 10.323 0.328
13.5330 10.125 0.325
13.5535 10.073 0.324
13.5739 10.771 0.335
13.5944 10.229 0.326
13.6148 9.656 0.317
13.6353 9.823 0.320
13.6558 10.063 0.324
13.6762 9.448 0.314
13.6967 10.521 0.331
13.7172 9.854 0.320
13.7376 9.469 0.314
13.7581 9.781 0.319
13.7785 9.792 0.319
13.7990 9.854 0.320
13.8195 10.833 0.336
13.8399 9.927 0.322
13.8604 10.198 0.326
13.8809 9.948 0.322
13.9013 9.667 0.317
13.9218 9.854 0.320
13.9422 9.938 0.322
13.9627 10.000 0.323
13.9832 10.021 0.323
14.0036 10.365 0.329
14.0241 10.146 0.325
14.0446 10.417 0.329
14.0650 10.677 0.333
14.0855 10.854 0.336
14.1059 11.594 0.348
14.1264 11.021 0.339
14.1469 10.667 0.333
14.1673 10.781 0.335
14.1878 11.594 0.348
14.2083 10.969 0.338
14.2287 11.000 0.339
14.2492 10.844 0.336
14.2696 10.875 0.337
14.2901 10.219 0.326
14.3106 10.521 0.331
14.3310 9.885 0.321
14.3515 9.688 0.318
14.3720 9.646 0.317
14.3924 9.667 0.317
14.4129 10.198 0.326
14.4334 9.010 0.306
14.4538 9.365 0.312
14.4743 9.500 0.315
14.4947 9.792 0.319
14.5152 9.521 0.315
14.5357 9.906 0.321
14.5561 9.521 0.315
14.5766 8.885 0.304
14.5971 9.635 0.317
14.6175 9.292 0.311
14.6380 10.104 0.324
14.6584 8.865 0.304
14.6789 9.396 0.313
14.6994 9.240 0.310
14.7198 9.510 0.315
14.7403 9.219 0.310
14.7608 8.688 0.301
14.7812 9.219 0.310
14.8017 9.271 0.311
14.8221 8.990 0.306
14.8426 8.771 0.302
14.8631 9.188 0.309
14.8835 9.656 0.317
14.9040 9.438 0.314
14.9245 9.802 0.320
14.9449 9.052 0.307
14.9654 8.875 0.304
14.9858 9.177 0.309
15.0063 9.563 0.316
15.0268 9.104 0.308
15.0472 9.229 0.310
15.0677 9.010 0.306
15.0882 9.115 0.308
15.1086 9.219 0.310
15.1291 9.031 0.307
15.1495 8.500 0.298
15.1700 8.969 0.306
15.1905 9.073 0.307
15.2109 9.479 0.314
15.2314 8.906 0.305
15.2519 8.896 0.304
15.2723 9.344 0.312
15.2928 8.948 0.305
15.3133 9.250 0.310
15.3337 9.646 0.317
15.3542 9.469 0.314
15.3746 10.031 0.323
15.3951 9.531 0.315
15.4156 10.281 0.327
15.4360 9.219 0.310
15.4565 9.740 0.319
15.4770 9.771 0.319
15.4974 9.646 0.317
15.5179 8.313 0.294
15.5383 9.302 0.311
15.5588 9.688 0.318
15.5793 9.219 0.310
15.5997 9.833 0.320
15.6202 9.240 0.310
15.6407 8.896 0.304
15.6611 9.781 0.319
15.6816 10.010 0.323
15.7020 10.594 0.332
15.7225 11.781 0.350
15.7430 13.344 0.373
15.7634 18.521 0.439
15.7839 25.385 0.514
15.8044 36.677 0.618
15.8248 43.625 0.674
15.8453 31.125 0.569
15.8657 24.792 0.508
15.8862 14.677 0.391
15.9067 10.802 0.335
15.9271 9.573 0.316
15.9476 9.740 0.319
15.9681 9.667 0.317
15.9885 8.917 0.305
16.0090 10.052 0.324
16.0295 8.948 0.305
16.0499 9.052 0.307
16.0704 8.719 0.301
16.0908 8.844 0.304
16.1113 8.740 0.302
16.1318 9.250 0.310
16.1522 9.010 0.306
16.1727 9.438 0.314
16.1932 8.490 0.297
16.2136 8.958 0.305
16.2341 9.313 0.311
16.2545 8.844 0.304
16.2750 9.375 0.313
16.2955 8.115 0.291
16.3159 8.813 0.303
16.3364 8.844 0.304
16.3569 8.656 0.300
16.3773 8.417 0.296
16.3978 9.875 0.321
16.4182 9.323 0.312
16.4387 9.135 0.308
16.4592 8.729 0.302
16.4796 9.219 0.310
16.5001 8.469 0.297
16.5206 8.292 0.294
16.5410 8.531 0.298
16.5615 8.833 0.303
16.5819 8.479 0.297
16.6024 8.792 0.303
16.6229 8.833 0.303
16.6433 8.927 0.305
16.6638 9.042 0.307
16.6843 8.719 0.301
16.7047 8.688 0.301
16.7252 8.219 0.293
16.7456 8.333 0.295
16.7661 8.667 0.300
16.7866 8.740 0.302
16.8070 8.698 0.301
16.8275 8.979 0.306
16.8480 9.250 0.310
16.8684 8.823 0.303
16.8889 8.792 0.303
16.9094 8.833 0.303
16.9298 8.958 0.305
16.9503 9.042 0.307
16.9707 8.677 0.301
16.9912 8.646 0.300
17.0117 8.938 0.305
17.0321 8.938 0.305
17.0526 9.615 0.316
17.0731 9.490 0.314
17.0935 9.479 0.314
17.1140 9.396 0.313
17.1344 8.771 0.302
17.1549 9.635 0.317
17.1754 9.573 0.316
17.1958 9.646 0.317
17.2163 9.594 0.316
17.2368 9.333 0.312
17.2572 9.656 0.317
17.2777 9.979 0.322
17.2981 9.427 0.313
17.3186 9.479 0.314
17.3391 9.938 0.322
17.3595 10.344 0.328
17.3800 10.073 0.324
17.4005 10.031 0.323
17.4209 9.740 0.319
17.4414 9.844 0.320
17.4618 10.531 0.331
17.4823 10.875 0.337
17.5028 9.958 0.322
17.5232 10.115 0.325
17.5437 10.552 0.332
17.5642 9.958 0.322
17.5846 10.792 0.335
17.6051 11.063 0.339
17.6255 10.927 0.337
17.6460 10.750 0.335
17.6665 11.031 0.339
17.6869 11.333 0.344
17.7074 10.969 0.338
17.7279 11.354 0.344
17.7483 11.688 0.349
17.7688 11.750 0.350
17.7893 12.115 0.355
17.8097 12.448 0.360
17.8302 14.083 0.383
17.8506 15.396 0.400
17.8711 16.125 0.410
17.8916 14.969 0.395
17.9120 15.115 0.397
17.9325 14.063 0.383
17.9530 14.240 0.385
17.9734 14.031 0.382
17.9939 13.969 0.381
18.0143 14.281 0.386
18.0348 14.292 0.386
18.0553 14.677 0.391
18.0757 15.292 0.399
18.0962 15.823 0.406
18.1167 16.135 0.410
18.1371 16.760 0.418
18.1576 16.188 0.411
18.1780 16.125 0.410
18.1985 16.563 0.415
18.2190 17.031 0.421
18.2394 17.521 0.427
18.2599 18.448 0.438
18.2804 18.208 0.436
18.3008 17.979 0.433
18.3213 18.990 0.445
18.3417 19.010 0.445
18.3622 18.063 0.434
18.3827 18.323 0.437
18.4031 17.802 0.431
18.4236 18.344 0.437
18.4441 18.969 0.445
18.4645 19.385 0.449
18.4850 19.354 0.449
18.5054 19.896 0.455
18.5259 20.365 0.461
18.5464 19.865 0.455
18.5668 21.510 0.473
18.5873 22.719 0.486
18.6078 22.729 0.487
18.6282 24.698 0.507
18.6487 24.188 0.502
18.6692 24.969 0.510
18.6896 25.094 0.511
18.7101 24.219 0.502
18.7305 23.552 0.495
18.7510 21.719 0.476
18.7715 21.427 0.472
18.7919 20.906 0.467
18.8124 20.323 0.460
18.8329 18.740 0.442
18.8533 19.667 0.453
18.8738 20.885 0.466
18.8942 21.219 0.470
18.9147 23.146 0.491
18.9352 23.781 0.498
18.9556 20.281 0.460
18.9761 18.760 0.442
18.9966 17.625 0.428
19.0170 16.531 0.415
19.0375 15.177 0.398
19.0579 15.240 0.398
19.0784 15.125 0.397
19.0989 14.385 0.387
19.1193 14.708 0.391
19.1398 13.781 0.379
19.1603 14.750 0.392
19.1807 13.510 0.375
19.2012 14.177 0.384
19.2216 14.490 0.389
19.2421 13.948 0.381
19.2626 13.656 0.377
19.2830 13.885 0.380
19.3035 13.458 0.374
19.3240 14.521 0.389
19.3444 14.219 0.385
19.3649 14.667 0.391
19.3853 13.938 0.381
19.4058 14.677 0.391
19.4263 14.281 0.386
19.4467 14.750 0.392
19.4672 13.698 0.378
19.4877 14.792 0.393
19.5081 14.802 0.393
19.5286 15.083 0.396
19.5491 15.521 0.402
19.5695 15.573 0.403
19.5900 16.917 0.420
19.6104 17.813 0.431
19.6309 18.750 0.442
19.6514 19.365 0.449
19.6718 19.833 0.455
19.6923 20.854 0.466
19.7128 22.063 0.479
19.7332 23.719 0.497
19.7537 26.698 0.527
19.7741 31.740 0.575
19.7946 37.552 0.625
19.8151 49.906 0.721
19.8355 71.083 0.860
19.8560 110.063 1.071
19.8765 148.000 1.242
19.8969 127.177 1.151
19.9174 99.750 1.019
19.9378 81.719 0.923
19.9583 47.740 0.705
19.9788 30.396 0.563
19.9992 24.229 0.502
20.0197 20.750 0.465
20.0402 19.031 0.445
20.0606 18.281 0.436
20.0811 18.354 0.437
20.1015 17.698 0.429
20.1220 15.958 0.408
20.1425 15.406 0.401
20.1629 15.156 0.397
20.1834 14.990 0.395
20.2039 14.958 0.395
20.2243 14.771 0.392
20.2448 14.521 0.389
20.2653 14.917 0.394
20.2857 15.292 0.399
20.3062 15.146 0.397
20.3266 15.531 0.402
20.3471 14.083 0.383
20.3676 14.729 0.392
20.3880 15.427 0.401
20.4085 15.344 0.400
20.4290 15.208 0.398
20.4494 14.948 0.395
20.4699 14.271 0.386
20.4903 15.156 0.397
20.5108 14.229 0.385
20.5313 13.729 0.378
20.5517 14.552 0.389
20.5722 14.240 0.385
20.5927 14.271 0.386
20.6131 13.698 0.378
20.6336 13.083 0.369
20.6540 13.135 0.370
20.6745 12.677 0.363
20.6950 12.875 0.366
20.7154 12.375 0.359
20.7359 12.969 0.368
20.7564 11.906 0.352
20.7768 11.365 0.344
20.7973 11.563 0.347
20.8177 11.615 0.348
20.8382 11.760 0.350
20.8587 11.479 0.346
20.8791 11.563 0.347
20.8996 11.604 0.348
20.9201 11.792 0.350
20.9405 11.219 0.342
20.9610 10.552 0.332
20.9814 11.083 0.340
21.0019 10.906 0.337
21.0224 10.375 0.329
21.0428 10.406 0.329
21.0633 10.552 0.332
21.0838 11.042 0.339
21.1042 10.802 0.335
21.1247 10.094 0.324
21.1452 10.531 0.331
21.1656 10.885 0.337
21.1861 11.156 0.341
21.2065 11.302 0.343
21.2270 11.188 0.341
21.2475 11.521 0.346
21.2679 12.052 0.354
21.2884 10.865 0.336
21.3089 11.198 0.342
21.3293 11.656 0.348
21.3498 11.271 0.343
21.3702 11.677 0.349
21.3907 11.125 0.340
21.4112 10.615 0.333
21.4316 11.271 0.343
21.4521 10.781 0.335
21.4726 11.573 0.347
21.4930 10.552 0.332
21.5135 10.167 0.325
21.5339 10.458 0.330
21.5544 9.396 0.313
21.5749 10.323 0.328
21.5953 9.813 0.320
21.6158 10.167 0.325
21.6363 9.667 0.317
21.6567 9.958 0.322
21.6772 9.688 0.318
21.6976 9.448 0.314
21.7181 9.542 0.315
21.7386 9.969 0.322
21.7590 10.167 0.325
21.7795 9.615 0.316
21.8000 9.802 0.320
21.8204 10.094 0.324
21.8409 9.542 0.315
21.8613 9.615 0.316
21.8818 9.667 0.317
21.9023 9.760 0.319
21.9227 9.542 0.315
21.9432 9.656 0.317
21.9637 9.552 0.315
21.9841 9.656 0.317
22.0046 9.740 0.319
22.0251 9.688 0.318
22.0455 10.365 0.329
22.0660 10.063 0.324
22.0864 10.542 0.331
22.1069 11.323 0.343
22.1274 12.135 0.356
22.1478 13.135 0.370
22.1683 14.208 0.385
22.1888 17.792 0.430
22.2092 23.219 0.492
22.2297 27.552 0.536
22.2501 26.510 0.525
22.2706 24.323 0.503
22.2911 22.167 0.481
22.3115 19.354 0.449
22.3320 16.156 0.410
22.3525 14.708 0.391
22.3729 13.521 0.375
22.3934 12.927 0.367
22.4138 11.573 0.347
22.4343 11.563 0.347
22.4548 11.260 0.342
22.4752 10.948 0.338
22.4957 10.365 0.329
22.5162 10.125 0.325
22.5366 10.344 0.328
22.5571 9.490 0.314
22.5775 10.031 0.323
22.5980 9.865 0.321
22.6185 9.563 0.316
22.6389 9.135 0.308
22.6594 9.250 0.310
22.6799 9.948 0.322
22.7003 9.083 0.308
22.7208 9.896 0.321
22.7412 9.656 0.317
22.7617 9.031 0.307
22.7822 9.938 0.322
22.8026 8.990 0.306
22.8231 9.219 0.310
22.8436 9.313 0.311
22.8640 9.344 0.312
22.8845 10.698 0.334
22.9050 11.615 0.348
22.9254 14.646 0.391
22.9459 17.125 0.422
22.9663 16.010 0.408
22.9868 13.927 0.381
23.0073 13.531 0.375
23.0277 11.198 0.342
23.0482 10.479 0.330
23.0687 9.823 0.320
23.0891 9.573 0.316
23.1096 9.083 0.308
23.1300 9.427 0.313
23.1505 9.240 0.310
23.1710 8.615 0.300
23.1914 8.656 0.300
23.2119 9.052 0.307
23.2324 9.250 0.310
23.2528 8.552 0.298
23.2733 8.469 0.297
23.2937 8.677 0.301
23.3142 8.813 0.303
23.3347 8.938 0.305
23.3551 8.615 0.300
23.3756 8.760 0.302
23.3961 9.135 0.308
23.4165 8.854 0.304
23.4370 8.542 0.298
23.4574 8.729 0.302
23.4779 9.042 0.307
23.4984 8.656 0.300
23.5188 8.719 0.301
23.5393 8.917 0.305
23.5598 9.417 0.313
23.5802 10.042 0.323
23.6007 9.531 0.315
23.6211 9.781 0.319
23.6416 10.188 0.326
23.6621 9.677 0.317
23.6825 10.302 0.328
23.7030 10.688 0.334
23.7235 11.125 0.340
23.7439 10.281 0.327
23.7644 9.760 0.319
23.7849 10.417 0.329
23.8053 9.844 0.320
23.8258 9.469 0.314
23.8462 8.927 0.305
23.8667 8.906 0.305
23.8872 8.250 0.293
23.9076 8.448 0.297
23.9281 7.760 0.284
23.9486 8.292 0.294
23.9690 8.219 0.293
23.9895 8.885 0.304
24.0099 7.802 0.285
24.0304 7.948 0.288
24.0509 7.552 0.280
24.0713 7.948 0.288
24.0918 7.438 0.278
24.1123 8.521 0.298
24.1327 7.792 0.285
24.1532 7.677 0.283
24.1736 7.781 0.285
24.1941 7.927 0.287
24.2146 9.260 0.311
24.2350 8.823 0.303
24.2555 8.042 0.289
24.2760 8.021 0.289
24.2964 8.646 0.300
24.3169 9.156 0.309
24.3373 8.573 0.299
24.3578 9.271 0.311
24.3783 9.469 0.314
24.3987 9.052 0.307
24.4192 8.740 0.302
24.4397 8.823 0.303
24.4601 8.635 0.300
24.4806 7.990 0.288
24.5011 7.521 0.280
24.5215 8.229 0.293
24.5420 7.573 0.281
24.5624 7.813 0.285
24.5829 8.573 0.299
24.6034 8.208 0.292
24.6238 7.688 0.283
24.6443 8.156 0.291
24.6648 7.552 0.280
24.6852 7.854 0.286
24.7057 8.833 0.303
24.7261 9.583 0.316
24.7466 9.167 0.309
24.7671 8.406 0.296
24.7875 8.521 0.298
24.8080 7.698 0.283
24.8285 7.646 0.282
24.8489 6.979 0.270
24.8694 7.188 0.274
24.8898 6.865 0.267
24.9103 7.250 0.275
24.9308 7.135 0.273
24.9512 7.208 0.274
24.9717 7.219 0.274
24.9922 6.760 0.265
25.0126 6.979 0.270
25.0331 6.865 0.267
25.0535 7.542 0.280
25.0740 7.115 0.272
25.0945 7.531 0.280
25.1149 7.302 0.276
25.1354 7.490 0.279
25.1559 6.802 0.266
25.1763 6.833 0.267
25.1968 6.844 0.267
25.2172 6.865 0.267
25.2377 6.990 0.270
25.2582 6.990 0.270
25.2786 7.125 0.272
25.2991 6.552 0.261
25.3196 7.094 0.272
25.3400 6.833 0.267
25.3605 7.156 0.273
25.3810 7.115 0.272
25.4014 7.646 0.282
25.4219 6.833 0.267
25.4423 7.344 0.277
25.4628 7.333 0.276
25.4833 7.458 0.279
25.5037 7.583 0.281
25.5242 7.490 0.279
25.5447 7.500 0.280
25.5651 8.042 0.289
25.5856 8.229 0.293
25.6060 11.021 0.339
25.6265 12.927 0.367
25.6470 12.500 0.361
25.6674 10.260 0.327
25.6879 10.438 0.330
25.7084 9.604 0.316
25.7288 7.917 0.287
25.7493 8.115 0.291
25.7697 7.313 0.276
25.7902 7.688 0.283
25.8107 7.240 0.275
25.8311 7.833 0.286
25.8516 7.625 0.282
25.8721 7.010 0.270
25.8925 7.458 0.279
25.9130 7.313 0.276
25.9334 6.844 0.267
25.9539 7.219 0.274
25.9744 7.188 0.274
25.9948 7.094 0.272
26.0153 6.958 0.269
26.0358 7.250 0.275
26.0562 7.219 0.274
26.0767 7.458 0.279
26.0971 6.958 0.269
26.1176 7.354 0.277
26.1381 7.250 0.275
26.1585 7.063 0.271
26.1790 6.990 0.270
26.1995 7.302 0.276
26.2199 7.323 0.276
26.2404 6.948 0.269
26.2609 7.281 0.275
26.2813 7.156 0.273
26.3018 6.448 0.259
26.3222 6.906 0.268
26.3427 6.729 0.265
26.3632 7.073 0.271
26.3836 6.896 0.268
26.4041 7.177 0.273
26.4246 7.260 0.275
26.4450 7.344 0.277
26.4655 6.708 0.264
26.4859 6.625 0.263
26.5064 7.313 0.276
26.5269 7.135 0.273
26.5473 6.927 0.269
26.5678 6.896 0.268
26.5883 7.438 0.278
26.6087 6.917 0.268
26.6292 7.073 0.271
26.6496 7.125 0.272
26.6701 7.031 0.271
26.6906 7.229 0.274
26.7110 6.896 0.268
26.7315 7.198 0.274
26.7520 7.865 0.286
26.7724 7.271 0.275
26.7929 7.073 0.271
26.8133 7.552 0.280
26.8338 7.229 0.274
26.8543 7.313 0.276
26.8747 7.500 0.280
26.8952 7.271 0.275
26.9157 7.635 0.282
26.9361 7.625 0.282
26.9566 7.167 0.273
26.9770 7.375 0.277
26.9975 6.979 0.270
27.0180 7.260 0.275
27.0384 7.104 0.272
27.0589 7.052 0.271
27.0794 6.969 0.269
27.0998 6.896 0.268
27.1203 7.115 0.272
27.1408 7.104 0.272
27.1612 7.104 0.272
27.1817 6.875 0.268
27.2021 7.552 0.280
27.2226 6.594 0.262
27.2431 7.417 0.278
27.2635 8.021 0.289
27.2840 8.604 0.299
27.3045 7.792 0.285
27.3249 7.885 0.287
27.3454 7.542 0.280
27.3658 7.938 0.288
27.3863 7.583 0.281
27.4068 7.385 0.277
27.4272 7.510 0.280
27.4477 7.115 0.272
27.4682 7.688 0.283
27.4886 8.063 0.290
27.5091 10.938 0.338
27.5295 12.458 0.360
27.5500 10.500 0.331
27.5705 9.677 0.317
27.5909 9.479 0.314
27.6114 9.458 0.314
27.6319 7.969 0.288
27.6523 7.813 0.285
27.6728 7.354 0.277
27.6932 7.229 0.274
27.7137 7.156 0.273
27.7342 7.396 0.278
27.7546 6.969 0.269
27.7751 7.229 0.274
27.7956 6.927 0.269
27.8160 7.000 0.270
27.8365 7.292 0.276
27.8569 7.125 0.272
27.8774 6.875 0.268
27.8979 7.094 0.272
27.9183 6.833 0.267
27.9388 7.354 0.277
27.9593 7.167 0.273
27.9797 6.917 0.268
28.0002 7.177 0.273
28.0207 7.115 0.272
28.0411 7.188 0.274
28.0616 7.042 0.271
28.0820 6.917 0.268
28.1025 6.885 0.268
28.1230 6.906 0.268
28.1434 6.573 0.262
28.1639 6.823 0.267
28.1844 7.396 0.278
28.2048 6.979 0.270
28.2253 6.708 0.264
28.2457 6.552 0.261
28.2662 7.063 0.271
28.2867 6.438 0.259
28.3071 7.052 0.271
28.3276 7.010 0.270
28.3481 6.604 0.262
28.3685 6.719 0.265
28.3890 6.729 0.265
28.4094 6.469 0.260
28.4299 6.823 0.267
28.4504 6.573 0.262
28.4708 6.792 0.266
28.4913 6.708 0.264
28.5118 6.865 0.267
28.5322 6.635 0.263
28.5527 6.917 0.268
28.5731 6.917 0.268
28.5936 6.906 0.268
28.6141 6.438 0.259
28.6345 6.188 0.254
28.6550 7.188 0.274
28.6755 6.573 0.262
28.6959 6.792 0.266
28.7164 6.927 0.269
28.7368 6.938 0.269
28.7573 6.729 0.265
28.7778 6.938 0.269
28.7982 6.719 0.265
28.8187 6.531 0.261
28.8392 7.177 0.273
28.8596 6.667 0.264
28.8801 6.635 0.263
28.9006 6.740 0.265
28.9210 6.396 0.258
28.9415 7.031 0.271
28.9619 6.448 0.259
28.9824 6.635 0.263
29.0029 7.021 0.270
29.0233 6.385 0.258
29.0438 6.531 0.261
29.0643 6.219 0.255
29.0847 6.344 0.257
29.1052 6.729 0.265
29.1256 6.927 0.269
29.1461 6.729 0.265
29.1666 6.490 0.260
29.1870 6.979 0.270
29.2075 6.719 0.265
29.2280 6.604 0.262
29.2484 6.771 0.266
29.2689 6.990 0.270
29.2893 6.302 0.256
29.3098 6.813 0.266
29.3303 6.708 0.264
29.3507 6.635 0.263
29.3712 6.646 0.263
29.3917 7.469 0.279
29.4121 8.188 0.292
29.4326 7.813 0.285
29.4530 7.635 0.282
29.4735 7.240 0.275
29.4940 7.042 0.271
29.5144 7.094 0.272
29.5349 6.365 0.257
29.5554 5.979 0.250
29.5758 7.031 0.271
29.5963 6.896 0.268
29.6168 7.198 0.274
29.6372 7.292 0.276
29.6577 6.688 0.264
29.6781 6.813 0.266
29.6986 7.208 0.274
29.7191 6.458 0.259
29.7395 6.500 0.260
29.7600 6.167 0.253
29.7805 6.510 0.260
29.8009 6.375 0.258
29.8214 6.396 0.258
29.8418 7.260 0.275
29.8623 6.698 0.264
29.8828 5.969 0.249
29.9032 6.396 0.258
29.9237 5.927 0.248
29.9442 6.656 0.263
29.9646 5.802 0.246
29.9851 6.635 0.263
30.0055 6.458 0.259
30.0260 6.969 0.269
30.0465 6.677 0.264
30.0669 6.500 0.260
30.0874 6.354 0.257
30.1079 6.083 0.252
30.1283 6.083 0.252
30.1488 6.313 0.256
30.1692 6.490 0.260
30.1897 6.240 0.255
30.2102 6.021 0.250
30.2306 6.031 0.251
30.2511 6.156 0.253
30.2716 6.188 0.254
30.2920 6.802 0.266
30.3125 6.167 0.253
30.3329 6.104 0.252
30.3534 5.969 0.249
30.3739 6.292 0.256
30.3943 6.115 0.252
30.4148 6.271 0.256
30.4353 6.552 0.261
30.4557 5.875 0.247
30.4762 6.188 0.254
30.4967 6.250 0.255
30.5171 5.948 0.249
30.5376 6.260 0.255
30.5580 6.313 0.256
30.5785 6.104 0.252
30.5990 6.385 0.258
30.6194 6.177 0.254
30.6399 6.354 0.257
30.6604 6.229 0.255
30.6808 6.052 0.251
30.7013 6.375 0.258
30.7217 6.271 0.256
30.7422 6.531 0.261
30.7627 6.813 0.266
30.7831 6.729 0.265
30.8036 6.594 0.262
30.8241 6.552 0.261
30.8445 6.708 0.264
30.8650 6.875 0.268
30.8854 7.625 0.282
30.9059 7.510 0.280
30.9264 8.167 0.292
30.9468 8.427 0.296
30.9673 9.042 0.307
30.9878 11.177 0.341
31.0082 13.531 0.375
31.0287 18.854 0.443
31.0491 25.896 0.519
31.0696 33.740 0.593
31.0901 34.885 0.603
31.1105 32.771 0.584
31.1310 33.615 0.592
31.1515 31.302 0.571
31.1719 24.688 0.507
31.1924 19.750 0.454
31.2128 16.656 0.417
31.2333 13.719 0.378
31.2538 10.979 0.338
31.2742 10.292 0.327
31.2947 8.885 0.304
31.3152 8.667 0.300
31.3356 7.458 0.279
31.3561 7.365 0.277
31.3766 7.604 0.281
31.3970 8.083 0.290
31.4175 7.802 0.285
31.4379 7.906 0.287
31.4584 7.521 0.280
31.4789 6.969 0.269
31.4993 7.031 0.271
31.5198 7.417 0.278
31.5403 6.625 0.263
31.5607 6.510 0.260
31.5812 6.615 0.262
31.6016 6.646 0.263
31.6221 6.583 0.262
31.6426 6.656 0.263
31.6630 6.604 0.262
31.6835 7.052 0.271
31.7040 6.813 0.266
31.7244 6.750 0.265
31.7449 6.167 0.253
31.7653 5.969 0.249
31.7858 6.740 0.265
31.8063 6.563 0.261
31.8267 6.833 0.267
31.8472 6.531 0.261
31.8677 7.042 0.271
31.8881 7.521 0.280
31.9086 7.479 0.279
31.9290 7.000 0.270
31.9495 6.729 0.265
31.9700 7.073 0.271
31.9904 6.448 0.259
32.0109 6.542 0.261
32.0314 6.927 0.269
32.0518 6.958 0.269
32.0723 7.052 0.271
32.0927 6.750 0.265
32.1132 7.292 0.276
32.1337 7.354 0.277
32.1541 7.531 0.280
32.1746 7.833 0.286
32.1951 8.250 0.293
32.2155 8.917 0.305
32.2360 10.260 0.327
32.2565 12.479 0.361
32.2769 13.083 0.369
32.2974 10.615 0.333
32.3178 9.583 0.316
32.3383 11.156 0.341
32.3588 9.865 0.321
32.3792 9.094 0.308
32.3997 8.271 0.294
32.4202 8.250 0.293
32.4406 8.583 0.299
32.4611 8.313 0.294
32.4815 8.885 0.304
32.5020 9.083 0.308
32.5225 9.885 0.321
32.5429 9.750 0.319
32.5634 11.302 0.343
32.5839 11.156 0.341
32.6043 11.823 0.351
32.6248 12.583 0.362
32.6452 14.354 0.387
32.6657 16.375 0.413
32.6862 15.563 0.403
32.7066 14.219 0.385
32.7271 12.958 0.367
32.7476 11.948 0.353
32.7680 11.302 0.343
32.7885 9.958 0.322
32.8089 8.969 0.306
32.8294 7.677 0.283
32.8499 6.958 0.269
32.8703 7.458 0.279
32.8908 7.115 0.272
32.9113 6.771 0.266
32.9317 6.823 0.267
32.9522 6.635 0.263
32.9726 7.073 0.271
32.9931 6.885 0.268
33.0136 6.677 0.264
33.0340 6.542 0.261
33.0545 6.802 0.266
33.0750 6.135 0.253
33.0954 6.542 0.261
33.1159 6.635 0.263
33.1364 6.167 0.253
33.1568 6.073 0.252
33.1773 7.000 0.270
33.1977 7.240 0.275
33.2182 7.729 0.284
33.2387 7.073 0.271
33.2591 7.188 0.274
33.2796 6.708 0.264
33.3001 7.010 0.270
33.3205 6.385 0.258
33.3410 6.781 0.266
33.3614 6.615 0.262
33.3819 6.969 0.269
33.4024 7.104 0.272
33.4228 7.260 0.275
33.4433 6.729 0.265
33.4638 6.490 0.260
33.4842 6.885 0.268
33.5047 6.417 0.259
33.5251 6.719 0.265
33.5456 6.406 0.258
33.5661 6.094 0.252
33.5865 6.552 0.261
33.6070 5.990 0.250
33.6275 6.396 0.258
33.6479 6.177 0.254
33.6684 6.125 0.253
33.6888 5.667 0.243
33.7093 6.042 0.251
33.7298 5.802 0.246
33.7502 5.875 0.247
33.7707 6.375 0.258
33.7912 5.969 0.249
33.8116 5.990 0.250
33.8321 5.635 0.242
33.8526 6.292 0.256
33.8730 6.177 0.254
33.8935 6.063 0.251
33.9139 5.625 0.242
33.9344 6.052 0.251
33.9549 5.750 0.245
33.9753 5.948 0.249
33.9958 6.115 0.252
34.0163 6.740 0.265
34.0367 6.302 0.256
34.0572 6.583 0.262
34.0776 6.323 0.257
34.0981 6.000 0.250
34.1186 6.583 0.262
34.1390 6.167 0.253
34.1595 6.396 0.258
34.1800 6.531 0.261
34.2004 6.792 0.266
34.2209 7.260 0.275
34.2413 8.083 0.290
34.2618 9.302 0.311
34.2823 10.219 0.326
34.3027 9.490 0.314
34.3232 7.906 0.287
34.3437 8.854 0.304
34.3641 8.802 0.303
34.3846 8.667 0.300
34.4050 7.417 0.278
34.4255 6.760 0.265
34.4460 6.677 0.264
34.4664 6.115 0.252
34.4869 6.760 0.265
34.5074 5.969 0.249
34.5278 6.208 0.254
34.5483 6.302 0.256
34.5687 6.604 0.262
34.5892 6.396 0.258
34.6097 6.396 0.258
34.6301 6.188 0.254
34.6506 6.354 0.257
34.6711 6.313 0.256
34.6915 6.573 0.262
34.7120 6.208 0.254
34.7325 5.958 0.249
34.7529 6.271 0.256
34.7734 5.729 0.244
34.7938 6.656 0.263
34.8143 6.333 0.257
34.8348 5.979 0.250
34.8552 6.125 0.253
34.8757 6.000 0.250
34.8962 6.510 0.260
34.9166 6.646 0.263
34.9371 6.740 0.265
34.9575 8.323 0.294
34.9780 10.490 0.331
34.9985 12.646 0.363
35.0189 12.188 0.356
35.0394 9.594 0.316
35.0599 9.010 0.306
35.0803 9.281 0.311
35.1008 9.385 0.313
35.1212 8.573 0.299
35.1417 7.656 0.282
35.1622 6.771 0.266
35.1826 6.844 0.267
35.2031 6.125 0.253
35.2236 6.427 0.259
35.2440 6.438 0.259
35.2645 6.271 0.256
35.2849 6.854 0.267
35.3054 6.469 0.260
35.3259 6.188 0.254
35.3463 6.125 0.253
35.3668 6.156 0.253
35.3873 6.698 0.264
35.4077 6.063 0.251
35.4282 6.583 0.262
35.4486 6.198 0.254
35.4691 6.521 0.261
35.4896 6.875 0.268
35.5100 6.469 0.260
35.5305 6.073 0.252
35.5510 6.917 0.268
35.5714 6.719 0.265
35.5919 7.104 0.272
35.6124 6.208 0.254
35.6328 6.729 0.265
35.6533 6.698 0.264
35.6737 6.698 0.264
35.6942 6.875 0.268
35.7147 6.615 0.262
35.7351 7.042 0.271
35.7556 6.844 0.267
35.7761 6.750 0.265
35.7965 7.052 0.271
35.8170 6.969 0.269
35.8374 7.271 0.275
35.8579 7.708 0.283
35.8784 7.271 0.275
35.8988 7.688 0.283
35.9193 7.323 0.276
35.9398 7.958 0.288
35.9602 7.781 0.285
35.9807 8.448 0.297
36.0011 8.677 0.301
36.0216 8.792 0.303
36.0421 8.896 0.304
36.0625 9.031 0.307
36.0830 10.083 0.324
36.1035 10.448 0.330
36.1239 11.104 0.340
36.1444 11.323 0.343
36.1648 12.521 0.361
36.1853 13.740 0.378
36.2058 13.656 0.377
36.2262 13.792 0.379
36.2467 13.885 0.380
36.2672 13.729 0.378
36.2876 12.865 0.366
36.3081 13.469 0.375
36.3285 13.542 0.376
36.3490 12.656 0.363
36.3695 12.667 0.363
36.3899 12.604 0.362
36.4104 12.625 0.363
36.4309 12.313 0.358
36.4513 13.875 0.380
36.4718 13.469 0.375
36.4923 14.396 0.387
36.5127 14.438 0.388
36.5332 15.010 0.395
36.5536 15.083 0.396
36.5741 15.094 0.397
36.5946 17.167 0.423
36.6150 18.365 0.437
36.6355 19.375 0.449
36.6560 20.281 0.460
36.6764 19.927 0.456
36.6969 17.260 0.424
36.7173 16.552 0.415
36.7378 16.906 0.420
36.7583 16.302 0.412
36.7787 13.906 0.381
36.7992 13.656 0.377
36.8197 12.677 0.363
36.8401 12.250 0.357
36.8606 11.375 0.344
36.8810 12.625 0.363
36.9015 11.865 0.352
36.9220 12.219 0.357
36.9424 12.625 0.363
36.9629 12.833 0.366
36.9834 12.646 0.363
37.0038 12.625 0.363
37.0243 13.760 0.379
37.0447 14.823 0.393
37.0652 16.635 0.416
37.0857 19.292 0.448
37.1061 21.646 0.475
37.1266 22.625 0.485
37.1471 21.656 0.475
37.1675 19.115 0.446
37.1880 17.854 0.431
37.2084 17.281 0.424
37.2289 17.083 0.422
37.2494 14.906 0.394
37.2698 13.469 0.375
37.2903 12.708 0.364
37.3108 11.917 0.352
37.3312 11.646 0.348
37.3517 10.823 0.336
37.3722 10.875 0.337
37.3926 10.469 0.330
37.4131 10.323 0.328
37.4335 9.531 0.315
37.4540 9.094 0.308
37.4745 9.250 0.310
37.4949 9.021 0.307
37.5154 9.313 0.311
37.5359 8.500 0.298
37.5563 8.771 0.302
37.5768 8.896 0.304
37.5972 8.792 0.303
37.6177 8.875 0.304
37.6382 8.927 0.305
37.6586 8.521 0.298
37.6791 8.417 0.296
37.6996 8.990 0.306
37.7200 8.531 0.298
37.7405 8.021 0.289
37.7609 8.635 0.300
37.7814 8.771 0.302
37.8019 8.469 0.297
37.8223 8.323 0.294
37.8428 8.938 0.305
37.8633 8.802 0.303
37.8837 9.469 0.314
37.9042 9.500 0.315
37.9246 8.448 0.297
37.9451 9.281 0.311
37.9656 9.271 0.311
37.9860 9.250 0.310
38.0065 10.031 0.323
38.0270 11.563 0.347
38.0474 12.073 0.355
38.0679 12.979 0.368
38.0884 12.427 0.360
38.1088 13.365 0.373
38.1293 12.656 0.363
38.1497 12.365 0.359
38.1702 11.792 0.350
38.1907 11.938 0.353
38.2111 10.792 0.335
38.2316 11.563 0.347
38.2521 11.323 0.343
38.2725 10.385 0.329
38.2930 11.021 0.339
38.3134 10.365 0.329
38.3339 10.396 0.329
38.3544 10.229 0.326
38.3748 10.354 0.328
38.3953 9.573 0.316
38.4158 9.719 0.318
38.4362 10.240 0.327
38.4567 9.948 0.322
38.4771 10.896 0.337
38.4976 11.365 0.344
38.5181 11.583 0.347
38.5385 11.104 0.340
38.5590 10.625 0.333
38.5795 10.948 0.338
38.5999 10.729 0.334
38.6204 10.396 0.329
38.6408 9.427 0.313
38.6613 9.208 0.310
38.6818 8.490 0.297
38.7022 9.000 0.306
38.7227 8.510 0.298
38.7432 8.417 0.296
38.7636 7.573 0.281
38.7841 8.063 0.290
38.8045 8.052 0.290
38.8250 8.260 0.293
38.8455 8.208 0.292
38.8659 8.563 0.299
38.8864 8.083 0.290
38.9069 8.198 0.292
38.9273 7.948 0.288
38.9478 8.031 0.289
38.9683 8.427 0.296
38.9887 8.021 0.289
39.0092 8.167 0.292
39.0296 7.760 0.284
39.0501 8.219 0.293
39.0706 8.229 0.293
39.0910 7.948 0.288
39.1115 8.115 0.291
39.1320 7.531 0.280
39.1524 8.260 0.293
39.1729 8.250 0.293
39.1933 8.000 0.289
39.2138 7.813 0.285
39.2343 8.063 0.290
39.2547 8.063 0.290
39.2752 8.177 0.292
39.2957 8.354 0.295
39.3161 7.927 0.287
39.3366 7.948 0.288
39.3570 7.688 0.283
39.3775 8.354 0.295
39.3980 8.167 0.292
39.4184 7.771 0.285
39.4389 8.250 0.293
39.4594 8.083 0.290
39.4798 8.354 0.295
39.5003 8.354 0.295
39.5207 8.448 0.297
39.5412 8.104 0.291
39.5617 7.760 0.284
39.5821 7.792 0.285
39.6026 8.083 0.290
39.6231 7.927 0.287
39.6435 8.031 0.289
39.6640 7.781 0.285
39.6844 7.917 0.287
39.7049 7.844 0.286
39.7254 7.969 0.288
39.7458 8.042 0.289
39.7663 7.354 0.277
39.7868 7.771 0.285
39.8072 8.438 0.296
39.8277 8.844 0.304
39.8482 9.354 0.312
39.8686 9.208 0.310
39.8891 8.677 0.301
39.9095 8.698 0.301
39.9300 8.708 0.301
39.9505 8.896 0.304
39.9709 8.135 0.291
39.9914 8.365 0.295
40.0119 7.708 0.283
40.0323 7.281 0.275
40.0528 7.635 0.282
40.0732 7.198 0.274
40.0937 7.719 0.284
40.1142 7.438 0.278
40.1346 7.490 0.279
40.1551 7.521 0.280
40.1756 7.448 0.279
40.1960 7.760 0.284
40.2165 7.896 0.287
40.2369 8.167 0.292
40.2574 8.240 0.293
40.2779 9.333 0.312
40.2983 10.396 0.329
40.3188 10.750 0.335
40.3393 10.625 0.333
40.3597 9.625 0.317
40.3802 9.521 0.315
40.4006 10.271 0.327
40.4211 10.646 0.333
40.4416 9.740 0.319
40.4620 9.219 0.310
40.4825 8.396 0.296
40.5030 8.219 0.293
40.5234 8.271 0.294
40.5439 7.813 0.285
40.5643 7.740 0.284
40.5848 7.646 0.282
40.6053 7.510 0.280
40.6257 7.531 0.280
40.6462 7.365 0.277
40.6667 6.771 0.266
40.6871 7.323 0.276
40.7076 7.385 0.277
40.7281 7.292 0.276
40.7485 7.417 0.278
40.7690 7.677 0.283
40.7894 8.021 0.289
40.8099 9.063 0.307
40.8304 10.615 0.333
40.8508 11.656 0.348
40.8713 10.542 0.331
40.8918 8.573 0.299
40.9122 8.833 0.303
40.9327 8.302 0.294
40.9531 9.260 0.311
40.9736 9.042 0.307
40.9941 8.344 0.295
41.0145 7.052 0.271
41.0350 6.906 0.268
41.0555 7.990 0.288
41.0759 7.625 0.282
41.0964 7.833 0.286
41.1168 7.604 0.281
41.1373 8.604 0.299
41.1578 8.938 0.305
41.1782 9.740 0.319
41.1987 9.792 0.319
41.2192 9.250 0.310
41.2396 8.938 0.305
41.2601 8.323 0.294
41.2805 8.656 0.300
41.3010 9.104 0.308
41.3215 8.854 0.304
41.3419 7.885 0.287
41.3624 7.698 0.283
41.3829 6.979 0.270
41.4033 7.250 0.275
41.4238 6.938 0.269
41.4442 7.115 0.272
41.4647 6.406 0.258
41.4852 7.031 0.271
41.5056 6.823 0.267
41.5261 6.938 0.269
41.5466 6.594 0.262
41.5670 6.375 0.258
41.5875 6.594 0.262
41.6080 6.271 0.256
41.6284 6.458 0.259
41.6489 6.729 0.265
41.6693 6.240 0.255
41.6898 6.740 0.265
41.7103 7.021 0.270
41.7307 6.417 0.259
41.7512 5.990 0.250
41.7717 6.198 0.254
41.7921 6.208 0.254
41.8126 6.729 0.265
41.8330 6.313 0.256
41.8535 6.240 0.255
41.8740 6.823 0.267
41.8944 7.250 0.275
41.9149 8.240 0.293
41.9354 9.375 0.313
41.9558 8.844 0.304
41.9763 7.260 0.275
41.9967 7.115 0.272
42.0172 7.479 0.279
42.0377 7.594 0.281
42.0581 8.365 0.295
42.0786 6.906 0.268
42.0991 7.115 0.272
42.1195 7.042 0.271
42.1400 7.052 0.271
42.1604 6.917 0.268
42.1809 7.688 0.283
42.2014 6.375 0.258
42.2218 6.969 0.269
42.2423 7.531 0.280
42.2628 7.552 0.280
42.2832 6.958 0.269
42.3037 7.875 0.286
42.3242 8.104 0.291
42.3446 8.104 0.291
42.3651 8.073 0.290
42.3855 8.000 0.289
42.4060 8.375 0.295
42.4265 9.156 0.309
42.4469 8.479 0.297
42.4674 8.906 0.305
42.4879 9.000 0.306
42.5083 8.896 0.304
42.5288 8.875 0.304
42.5492 8.990 0.306
42.5697 9.333 0.312
42.5902 9.927 0.322
42.6106 8.698 0.301
42.6311 8.729 0.302
42.6516 8.719 0.301
42.6720 9.104 0.308
42.6925 8.604 0.299
42.7129 8.375 0.295
42.7334 8.729 0.302
42.7539 8.542 0.298
42.7743 8.042 0.289
42.7948 7.781 0.285
42.8153 7.292 0.276
42.8357 7.260 0.275
42.8562 7.781 0.285
42.8766 7.438 0.278
42.8971 7.781 0.285
42.9176 7.479 0.279
42.9380 6.948 0.269
42.9585 7.396 0.278
42.9790 6.688 0.264
42.9994 6.885 0.268
43.0199 6.833 0.267
43.0403 6.542 0.261
43.0608 6.813 0.266
43.0813 7.177 0.273
43.1017 6.844 0.267
43.1222 7.063 0.271
43.1427 7.365 0.277
43.1631 7.000 0.270
43.1836 7.125 0.272
43.2041 7.333 0.276
43.2245 7.646 0.282
43.2450 7.615 0.282
43.2654 7.958 0.288
43.2859 8.167 0.292
43.3064 8.479 0.297
43.3268 7.917 0.287
43.3473 7.604 0.281
43.3678 7.740 0.284
43.3882 7.594 0.281
43.4087 8.063 0.290
43.4291 8.073 0.290
43.4496 8.313 0.294
43.4701 8.958 0.305
43.4905 8.260 0.293
43.5110 8.823 0.303
43.5315 8.365 0.295
43.5519 9.427 0.313
43.5724 9.875 0.321
43.5928 10.250 0.327
43.6133 11.375 0.344
43.6338 12.010 0.354
43.6542 13.000 0.368
43.6747 14.052 0.383
43.6952 14.021 0.382
43.7156 12.948 0.367
43.7361 11.698 0.349
43.7565 11.198 0.342
43.7770 10.990 0.338
43.7975 11.167 0.341
43.8179 10.542 0.331
43.8384 9.031 0.307
43.8589 7.927 0.287
43.8793 8.229 0.293
43.8998 8.385 0.296
43.9202 8.885 0.304
43.9407 7.646 0.282
43.9612 7.281 0.275
43.9816 7.385 0.277
44.0021 7.125 0.272
44.0226 7.333 0.276
44.0430 7.302 0.276
44.0635 6.917 0.268
44.0840 6.667 0.264
44.1044 6.969 0.269
44.1249 6.719 0.265
44.1453 7.240 0.275
44.1658 6.427 0.259
44.1863 7.000 0.270
44.2067 6.469 0.260
44.2272 6.375 0.258
44.2477 7.094 0.272
44.2681 6.885 0.268
44.2886 6.688 0.264
44.3090 6.583 0.262
44.3295 6.896 0.268
44.3500 6.333 0.257
44.3704 6.771 0.266
44.3909 7.104 0.272
44.4114 6.656 0.263
44.4318 6.740 0.265
44.4523 6.396 0.258
44.4727 6.229 0.255
44.4932 6.958 0.269
44.5137 6.500 0.260
44.5341 6.823 0.267
44.5546 6.188 0.254
44.5751 6.323 0.257
44.5955 6.958 0.269
44.6160 6.646 0.263
44.6364 6.750 0.265
44.6569 6.688 0.264
44.6774 6.292 0.256
44.6978 6.438 0.259
44.7183 6.292 0.256
44.7388 6.052 0.251
44.7592 6.292 0.256
44.7797 6.448 0.259
44.8001 6.625 0.263
44.8206 6.052 0.251
44.8411 6.615 0.262
44.8615 6.365 0.257
44.8820 6.740 0.265
44.9025 7.031 0.271
44.9229 6.792 0.266
44.9434 6.979 0.270
44.9639 6.833 0.267
44.9843 6.948 0.269
45.0048 6.885 0.268
45.0252 6.917 0.268
45.0457 7.188 0.274
45.0662 7.010 0.270
45.0866 7.427 0.278
45.1071 6.885 0.268
45.1276 6.927 0.269
45.1480 7.125 0.272
45.1685 6.615 0.262
45.1889 6.563 0.261
45.2094 7.365 0.277
45.2299 6.885 0.268
45.2503 7.333 0.276
45.2708 7.917 0.287
45.2913 7.938 0.288
45.3117 8.146 0.291
45.3322 7.979 0.288
45.3526 7.052 0.271
45.3731 7.854 0.286
45.3936 7.010 0.270
45.4140 7.344 0.277
45.4345 6.521 0.261
45.4550 7.292 0.276
45.4754 6.323 0.257
45.4959 6.396 0.258
45.5163 6.396 0.258
45.5368 6.281 0.256
45.5573 6.396 0.258
45.5777 6.406 0.258
45.5982 6.542 0.261
45.6187 6.344 0.257
45.6391 5.875 0.247
45.6596 6.063 0.251
45.6800 5.813 0.246
45.7005 5.979 0.250
45.7210 5.938 0.249
45.7414 5.854 0.247
45.7619 5.677 0.243
45.7824 5.719 0.244
45.8028 5.844 0.247
45.8233 5.813 0.246
45.8438 5.958 0.249
45.8642 5.958 0.249
45.8847 5.885 0.248
45.9051 5.917 0.248
45.9256 5.990 0.250
45.9461 5.729 0.244
45.9665 6.094 0.252
45.9870 6.042 0.251
46.0075 5.375 0.237
46.0279 5.771 0.245
46.0484 6.021 0.250
46.0688 6.021 0.250
46.0893 6.115 0.252
46.1098 6.073 0.252
46.1302 6.229 0.255
46.1507 5.760 0.245
46.1712 5.521 0.240
46.1916 5.563 0.241
46.2121 5.719 0.244
46.2325 5.656 0.243
46.2530 5.479 0.239
46.2735 5.802 0.246
46.2939 5.875 0.247
46.3144 6.063 0.251
46.3349 5.917 0.248
46.3553 5.333 0.236
46.3758 5.250 0.234
46.3962 5.552 0.240
46.4167 5.583 0.241
46.4372 5.625 0.242
46.4576 5.542 0.240
46.4781 5.490 0.239
46.4986 5.802 0.246
46.5190 5.646 0.243
46.5395 5.760 0.245
46.5600 5.771 0.245
46.5804 5.479 0.239
46.6009 5.927 0.248
46.6213 6.198 0.254
46.6418 6.802 0.266
46.6623 7.479 0.279
46.6827 7.563 0.281
46.7032 7.281 0.275
46.7237 5.906 0.248
46.7441 6.010 0.250
46.7646 6.500 0.260
46.7850 6.063 0.251
46.8055 6.917 0.268
46.8260 6.323 0.257
46.8464 6.240 0.255
46.8669 5.927 0.248
46.8874 6.198 0.254
46.9078 6.208 0.254
46.9283 5.594 0.241
46.9487 5.406 0.237
46.9692 5.906 0.248
46.9897 5.583 0.241
47.0101 5.865 0.247
47.0306 5.719 0.244
47.0511 5.656 0.243
47.0715 5.594 0.241
47.0920 5.500 0.239
47.1124 5.458 0.238
47.1329 5.917 0.248
47.1534 5.583 0.241
47.1738 5.281 0.235
47.1943 5.771 0.245
47.2148 5.417 0.238
47.2352 5.563 0.241
47.2557 5.469 0.239
47.2761 5.792 0.246
47.2966 5.375 0.237
47.3171 5.385 0.237
47.3375 5.656 0.243
47.3580 5.469 0.239
47.3785 5.875 0.247
47.3989 5.281 0.235
47.4194 5.875 0.247
47.4399 5.813 0.246
47.4603 5.750 0.245
47.4808 6.115 0.252
47.5012 5.854 0.247
47.5217 6.385 0.258
47.5422 6.792 0.266
47.5626 6.375 0.258
47.5831 6.948 0.269
47.6036 7.500 0.280
47.6240 7.573 0.281
47.6445 8.490 0.297
47.6649 8.594 0.299
47.6854 8.313 0.294
47.7059 8.083 0.290
47.7263 8.208 0.292
47.7468 8.313 0.294
47.7673 8.333 0.295
47.7877 7.719 0.284
47.8082 7.823 0.285
47.8286 7.781 0.285
47.8491 7.469 0.279
47.8696 7.313 0.276
47.8900 6.958 0.269
47.9105 6.458 0.259
47.9310 6.615 0.262
47.9514 6.563 0.261
47.9719 6.427 0.259
47.9923 6.938 0.269
48.0128 6.490 0.260
48.0333 6.354 0.257
48.0537 6.542 0.261
48.0742 7.052 0.271
48.0947 6.552 0.261
48.1151 6.354 0.257
48.1356 6.802 0.266
48.1560 6.427 0.259
48.1765 6.542 0.261
48.1970 6.625 0.263
48.2174 6.396 0.258
48.2379 6.781 0.266
48.2584 6.333 0.257
48.2788 6.552 0.261
48.2993 6.365 0.257
48.3198 6.698 0.264
48.3402 6.323 0.257
48.3607 7.104 0.272
48.3811 6.604 0.262
48.4016 6.469 0.260
48.4221 6.625 0.263
48.4425 6.948 0.269
48.4630 6.906 0.268
48.4835 6.479 0.260
48.5039 6.865 0.267
48.5244 6.865 0.267
48.5448 6.479 0.260
48.5653 7.104 0.272
48.5858 6.469 0.260
48.6062 6.438 0.259
48.6267 6.635 0.263
48.6472 6.115 0.252
48.6676 6.667 0.264
48.6881 6.385 0.258
48.7085 6.542 0.261
48.7290 6.729 0.265
48.7495 7.313 0.276
48.7699 6.552 0.261
48.7904 6.302 0.256
48.8109 6.250 0.255
48.8313 5.875 0.247
48.8518 6.146 0.253
48.8722 6.135 0.253
48.8927 6.188 0.254
48.9132 5.729 0.244
48.9336 5.802 0.246
48.9541 5.677 0.243
48.9746 5.500 0.239
48.9950 5.552 0.240
49.0155 5.531 0.240
49.0359 5.833 0.247
49.0564 5.625 0.242
49.0769 5.583 0.241
49.0973 5.438 0.238
49.1178 5.865 0.247
49.1383 5.990 0.250
49.1587 5.938 0.249
49.1792 6.323 0.257
49.1997 5.625 0.242
49.2201 5.510 0.240
49.2406 6.313 0.256
49.2610 5.771 0.245
49.2815 5.708 0.244
49.3020 6.063 0.251
49.3224 5.802 0.246
49.3429 5.906 0.248
49.3634 6.000 0.250
49.3838 6.823 0.267
49.4043 5.875 0.247
49.4247 6.229 0.255
49.4452 5.896 0.248
49.4657 6.240 0.255
49.4861 6.260 0.255
49.5066 6.313 0.256
49.5271 6.313 0.256
49.5475 6.604 0.262
49.5680 6.208 0.254
49.5884 6.333 0.257
49.6089 6.635 0.263
49.6294 6.479 0.260
49.6498 6.292 0.256
49.6703 6.760 0.265
49.6908 6.594 0.262
49.7112 6.365 0.257
49.7317 6.521 0.261
49.7521 7.104 0.272
49.7726 6.698 0.264
49.7931 7.740 0.284
49.8135 8.250 0.293
49.8340 8.469 0.297
49.8545 9.896 0.321
49.8749 10.854 0.336
49.8954 11.667 0.349
49.9158 11.344 0.344
49.9363 10.500 0.331
49.9568 10.740 0.334
49.9772 9.417 0.313
49.9977 9.354 0.312
50.0182 9.719 0.318
50.0386 10.469 0.330
50.0591 9.000 0.306
50.0796 8.938 0.305
50.1000 8.365 0.295
50.1205 7.823 0.285
50.1409 7.875 0.286
50.1614 7.917 0.287
50.1819 7.479 0.279
50.2023 7.583 0.281
50.2228 7.990 0.288
50.2433 7.667 0.283
50.2637 7.990 0.288
50.2842 7.698 0.283
50.3046 8.094 0.290
50.3251 7.656 0.282
50.3456 7.646 0.282
50.3660 7.813 0.285
50.3865 7.854 0.286
50.4070 6.875 0.268
50.4274 6.854 0.267
50.4479 7.406 0.278
50.4683 6.990 0.270
50.4888 7.281 0.275
50.5093 6.583 0.262
50.5297 6.885 0.268
50.5502 6.188 0.254
50.5707 6.542 0.261
50.5911 6.615 0.262
50.6116 6.792 0.266
50.6320 6.615 0.262
50.6525 6.979 0.270
50.6730 6.740 0.265
50.6934 6.896 0.268
50.7139 6.552 0.261
50.7344 6.135 0.253
50.7548 6.563 0.261
50.7753 6.604 0.262
50.7958 6.938 0.269
50.8162 6.563 0.261
50.8367 6.167 0.253
50.8571 6.115 0.252
50.8776 6.698 0.264
50.8981 6.104 0.252
50.9185 6.490 0.260
50.9390 6.719 0.265
50.9595 6.688 0.264
50.9799 7.094 0.272
51.0004 7.594 0.281
51.0208 7.719 0.284
51.0413 7.531 0.280
51.0618 7.563 0.281
51.0822 6.990 0.270
51.1027 6.500 0.260
51.1232 6.594 0.262
51.1436 6.635 0.263
51.1641 6.813 0.266
51.1845 6.250 0.255
51.2050 6.510 0.260
51.2255 5.375 0.237
51.2459 6.198 0.254
51.2664 5.594 0.241
51.2869 5.802 0.246
51.3073 6.021 0.250
51.3278 5.948 0.249
51.3482 5.771 0.245
51.3687 5.771 0.245
51.3892 5.958 0.249
51.4096 5.948 0.249
51.4301 6.146 0.253
51.4506 5.615 0.242
51.4710 5.510 0.240
51.4915 5.365 0.236
51.5119 5.177 0.232
51.5324 5.521 0.240
51.5529 5.115 0.231
51.5733 5.177 0.232
51.5938 4.948 0.227
51.6143 5.656 0.243
51.6347 5.281 0.235
51.6552 6.063 0.251
51.6757 6.177 0.254
51.6961 6.010 0.250
51.7166 6.917 0.268
51.7370 6.271 0.256
51.7575 5.885 0.248
51.7780 5.844 0.247
51.7984 5.677 0.243
51.8189 5.615 0.242
51.8394 5.615 0.242
51.8598 6.042 0.251
51.8803 5.719 0.244
51.9007 5.865 0.247
51.9212 5.417 0.238
51.9417 5.125 0.231
51.9621 5.510 0.240
51.9826 5.104 0.231
52.0031 5.104 0.231
52.0235 5.188 0.232
52.0440 5.063 0.230
52.0644 5.385 0.237
52.0849 4.792 0.223
52.1054 5.094 0.230
52.1258 5.000 0.228
52.1463 5.479 0.239
52.1668 5.250 0.234
52.1872 4.969 0.228
52.2077 4.854 0.225
52.2281 4.656 0.220
52.2486 4.938 0.227
52.2691 5.083 0.230
52.2895 5.156 0.232
52.3100 5.219 0.233
52.3305 5.146 0.232
52.3509 5.323 0.235
52.3714 4.729 0.222
52.3918 5.010 0.228
52.4123 5.031 0.229
52.4328 4.656 0.220
52.4532 4.875 0.225
52.4737 5.010 0.228
52.4942 5.396 0.237
52.5146 4.760 0.223
52.5351 5.104 0.231
52.5556 5.333 0.236
52.5760 4.781 0.223
52.5965 5.146 0.232
52.6169 5.250 0.234
52.6374 4.948 0.227
52.6579 4.938 0.227
52.6783 4.677 0.221
52.6988 5.021 0.229
52.7193 4.813 0.224
52.7397 4.896 0.226
52.7602 5.229 0.233
52.7806 5.031 0.229
52.8011 4.813 0.224
52.8216 5.125 0.231
52.8420 4.740 0.222
52.8625 4.844 0.225
52.8830 5.219 0.233
52.9034 5.177 0.232
52.9239 4.448 0.215
52.9443 5.042 0.229
52.9648 4.656 0.220
52.9853 5.188 0.232
53.0057 5.010 0.228
53.0262 5.104 0.231
53.0467 5.010 0.228
53.0671 5.167 0.232
53.0876 4.896 0.226
53.1080 5.031 0.229
53.1285 5.000 0.228
53.1490 5.146 0.232
53.1694 4.885 0.226
53.1899 4.677 0.221
53.2104 4.729 0.222
53.2308 5.146 0.232
53.2513 5.406 0.237
53.2717 4.990 0.228
53.2922 4.875 0.225
53.3127 4.583 0.219
53.3331 5.021 0.229
53.3536 5.031 0.229
53.3741 5.271 0.234
53.3945 4.792 0.223
53.4150 4.802 0.224
53.4355 4.927 0.227
53.4559 5.208 0.233
53.4764 5.156 0.232
53.4968 4.417 0.214
53.5173 4.688 0.221
53.5378 5.010 0.228
53.5582 4.844 0.225
53.5787 4.635 0.220
53.5992 4.844 0.225
53.6196 4.531 0.217
53.6401 4.677 0.221
53.6605 4.760 0.223
53.6810 4.583 0.219
53.7015 4.823 0.224
53.7219 5.010 0.228
53.7424 4.865 0.225
53.7629 5.323 0.235
53.7833 4.875 0.225
53.8038 4.917 0.226
53.8242 5.156 0.232
53.8447 4.802 0.224
53.8652 5.010 0.228
53.8856 5.000 0.228
53.9061 5.240 0.234
53.9266 4.667 0.220
53.9470 4.833 0.224
53.9675 4.438 0.215
53.9879 4.719 0.222
54.0084 4.802 0.224
54.0289 4.844 0.225
54.0493 4.802 0.224
54.0698 4.667 0.220
54.0903 4.406 0.214
54.1107 4.552 0.218
54.1312 4.375 0.213
54.1516 4.698 0.221
54.1721 5.125 0.231
54.1926 5.083 0.230
54.2130 4.719 0.222
54.2335 4.781 0.223
54.2540 4.760 0.223
54.2744 4.833 0.224
54.2949 4.406 0.214
54.3154 4.708 0.221
54.3358 5.000 0.228
54.3563 4.990 0.228
54.3767 4.719 0.222
54.3972 4.927 0.227
54.4177 4.844 0.225
54.4381 5.219 0.233
54.4586 4.563 0.218
54.4791 4.865 0.225
54.4995 4.542 0.218
54.5200 4.531 0.217
54.5404 4.479 0.216
54.5609 4.583 0.219
54.5814 5.021 0.229
54.6018 5.177 0.232
54.6223 5.292 0.235
54.6428 4.375 0.213
54.6632 4.979 0.228
54.6837 4.958 0.227
54.7041 4.854 0.225
54.7246 4.990 0.228
54.7451 4.771 0.223
54.7655 4.740 0.222
54.7860 4.792 0.223
54.8065 4.938 0.227
54.8269 4.667 0.220
54.8474 4.625 0.219
54.8678 4.927 0.227
54.8883 4.563 0.218
54.9088 4.677 0.221
54.9292 5.156 0.232
54.9497 5.219 0.233
54.9702 4.969 0.228
54.9906 5.063 0.230
55.0111 4.885 0.226
55.0316 5.281 0.235
55.0520 5.083 0.230
55.0725 5.625 0.242
55.0929 6.302 0.256
55.1134 7.031 0.271
55.1339 7.479 0.279
55.1543 8.177 0.292
55.1748 9.448 0.314
55.1953 10.385 0.329
55.2157 11.646 0.348
55.2362 11.188 0.341
55.2566 11.646 0.348
55.2771 11.417 0.345
55.2976 11.323 0.343
55.3180 10.854 0.336
55.3385 11.271 0.343
55.3590 10.042 0.323
55.3794 9.969 0.322
55.3999 9.333 0.312
55.4203 9.063 0.307
55.4408 8.719 0.301
55.4613 8.021 0.289
55.4817 6.667 0.264
55.5022 6.563 0.261
55.5227 6.260 0.255
55.5431 5.563 0.241
55.5636 5.604 0.242
55.5840 5.510 0.240
55.6045 5.656 0.243
55.6250 4.781 0.223
55.6454 5.094 0.230
55.6659 4.854 0.225
55.6864 4.833 0.224
55.7068 4.969 0.228
55.7273 5.229 0.233
55.7477 4.813 0.224
55.7682 5.271 0.234
55.7887 5.510 0.240
55.8091 4.958 0.227
55.8296 5.125 0.231
55.8501 4.844 0.225
55.8705 5.417 0.238
55.8910 5.385 0.237
55.9115 5.229 0.233
55.9319 5.625 0.242
55.9524 5.479 0.239
55.9728 5.677 0.243
55.9933 5.448 0.238
56.0138 5.635 0.242
56.0342 5.740 0.245
56.0547 5.292 0.235
56.0752 5.635 0.242
56.0956 6.188 0.254
56.1161 6.313 0.256
56.1365 6.479 0.260
56.1570 6.927 0.269
56.1775 7.177 0.273
56.1979 7.760 0.284
56.2184 8.813 0.303
56.2389 9.229 0.310
56.2593 8.896 0.304
56.2798 8.979 0.306
56.3002 8.188 0.292
56.3207 7.875 0.286
56.3412 7.531 0.280
56.3616 7.667 0.283
56.3821 7.323 0.276
56.4026 7.104 0.272
56.4230 7.031 0.271
56.4435 6.323 0.257
56.4639 6.000 0.250
56.4844 5.531 0.240
56.5049 5.396 0.237
56.5253 5.448 0.238
56.5458 5.083 0.230
56.5663 4.563 0.218
56.5867 4.792 0.223
56.6072 4.406 0.214
56.6276 4.615 0.219
56.6481 4.948 0.227
56.6686 4.635 0.220
56.6890 4.490 0.216
56.7095 4.865 0.225
56.7300 5.135 0.231
56.7504 5.990 0.250
56.7709 5.552 0.240
56.7914 4.865 0.225
56.8118 4.906 0.226
56.8323 4.490 0.216
56.8527 4.458 0.216
56.8732 4.802 0.224
56.8937 5.135 0.231
56.9141 5.167 0.232
56.9346 4.646 0.220
56.9551 4.313 0.212
56.9755 4.292 0.211
56.9960 4.406 0.214
57.0164 4.167 0.208
57.0369 4.635 0.220
57.0574 4.563 0.218
57.0778 4.990 0.228
57.0983 4.240 0.210
57.1188 4.510 0.217
57.1392 4.177 0.209
57.1597 4.438 0.215
57.1801 4.500 0.217
57.2006 4.219 0.210
57.2211 4.469 0.216
57.2415 4.438 0.215
57.2620 4.594 0.219
57.2825 4.635 0.220
57.3029 4.656 0.220
57.3234 4.375 0.213
57.3438 4.510 0.217
57.3643 4.510 0.217
57.3848 4.885 0.226
57.4052 4.313 0.212
57.4257 4.750 0.222
57.4462 4.427 0.215
57.4666 4.313 0.212
57.4871 4.323 0.212
57.5075 4.365 0.213
57.5280 4.427 0.215
57.5485 4.375 0.213
57.5689 4.990 0.228
57.5894 5.323 0.235
57.6099 5.188 0.232
57.6303 4.521 0.217
57.6508 4.635 0.220
57.6713 4.740 0.222
57.6917 4.854 0.225
57.7122 5.021 0.229
57.7326 4.979 0.228
57.7531 5.000 0.228
57.7736 5.063 0.230
57.7940 4.781 0.223
57.8145 4.917 0.226
57.8350 4.833 0.224
57.8554 5.292 0.235
57.8759 5.240 0.234
57.8963 5.802 0.246
57.9168 5.333 0.236
57.9373 6.646 0.263
57.9577 6.865 0.267
57.9782 7.281 0.275
57.9987 6.604 0.262
58.0191 5.990 0.250
58.0396 6.292 0.256
58.0600 5.542 0.240
58.0805 6.125 0.253
58.1010 6.542 0.261
58.1214 6.010 0.250
58.1419 5.365 0.236
58.1624 5.896 0.248
58.1828 5.354 0.236
58.2033 5.490 0.239
58.2237 5.490 0.239
58.2442 5.667 0.243
58.2647 5.063 0.230
58.2851 5.083 0.230
58.3056 5.417 0.238
58.3261 5.156 0.232
58.3465 4.969 0.228
58.3670 5.146 0.232
58.3874 5.208 0.233
58.4079 5.094 0.230
58.4284 5.208 0.233
58.4488 4.917 0.226
58.4693 5.010 0.228
58.4898 5.042 0.229
58.5102 5.271 0.234
58.5307 5.375 0.237
58.5512 4.927 0.227
58.5716 5.729 0.244
58.5921 5.156 0.232
58.6125 5.333 0.236
58.6330 4.885 0.226
58.6535 4.500 0.217
58.6739 4.917 0.226
58.6944 4.802 0.224
58.7149 4.563 0.218
58.7353 5.167 0.232
58.7558 4.760 0.223
58.7762 5.188 0.232
58.7967 5.375 0.237
58.8172 5.500 0.239
58.8376 5.438 0.238
58.8581 4.979 0.228
58.8786 5.479 0.239
58.8990 5.354 0.236
58.9195 5.688 0.243
58.9399 5.031 0.229
58.9604 5.115 0.231
58.9809 4.594 0.219
59.0013 4.896 0.226
59.0218 5.115 0.231
59.0423 5.354 0.236
59.0627 5.135 0.231
59.0832 5.135 0.231
59.1036 5.042 0.229
59.1241 5.490 0.239
59.1446 5.469 0.239
59.1650 5.438 0.238
59.1855 5.823 0.246
59.2060 6.010 0.250
59.2264 6.010 0.250
59.2469 6.542 0.261
59.2674 6.698 0.264
59.2878 5.677 0.243
59.3083 5.719 0.244
59.3287 5.417 0.238
59.3492 5.188 0.232
59.3697 5.146 0.232
59.3901 5.500 0.239
59.4106 5.344 0.236
59.4311 5.417 0.238
59.4515 4.854 0.225
59.4720 4.490 0.216
59.4924 4.667 0.220
59.5129 5.000 0.228
59.5334 4.625 0.219
59.5538 4.188 0.209
59.5743 4.052 0.205
59.5948 4.573 0.218
59.6152 4.438 0.215
59.6357 4.281 0.211
59.6561 4.073 0.206
59.6766 4.490 0.216
59.6971 4.104 0.207
59.7175 4.448 0.215
59.7380 4.406 0.214
59.7585 4.688 0.221
59.7789 4.469 0.216
59.7994 4.792 0.223
59.8198 5.021 0.229
59.8403 4.719 0.222
59.8608 5.073 0.230
59.8812 5.188 0.232
59.9017 5.563 0.241
59.9222 5.802 0.246
59.9426 5.708 0.244
59.9631 5.583 0.241
59.9835 5.677 0.243
60.0040 5.573 0.241
60.0245 5.240 0.234
60.0449 5.531 0.240
60.0654 4.833 0.224
60.0859 5.281 0.235
60.1063 5.438 0.238
60.1268 5.188 0.232
60.1473 4.729 0.222
60.1677 4.844 0.225
60.1882 4.677 0.221
60.2086 4.698 0.221
60.2291 4.510 0.217
60.2496 4.906 0.226
60.2700 4.813 0.224
60.2905 4.229 0.210
60.3110 4.083 0.206
60.3314 4.115 0.207
60.3519 4.760 0.223
60.3723 4.625 0.219
60.3928 4.417 0.214
60.4133 4.302 0.212
60.4337 4.365 0.213
60.4542 4.458 0.216
60.4747 4.115 0.207
60.4951 4.115 0.207
60.5156 4.250 0.210
60.5360 4.281 0.211
60.5565 4.479 0.216
60.5770 4.219 0.210
60.5974 4.417 0.214
60.6179 4.646 0.220
60.6384 4.427 0.215
60.6588 4.031 0.205
60.6793 4.063 0.206
60.6997 4.260 0.211
60.7202 4.448 0.215
60.7407 4.344 0.213
60.7611 4.063 0.206
60.7816 4.042 0.205
60.8021 4.542 0.218
60.8225 4.115 0.207
60.8430 4.688 0.221
60.8634 4.156 0.208
60.8839 4.510 0.217
60.9044 4.615 0.219
60.9248 4.229 0.210
60.9453 3.771 0.198
60.9658 4.406 0.214
60.9862 4.531 0.217
61.0067 4.458 0.216
61.0272 4.198 0.209
61.0476 4.406 0.214
61.0681 4.167 0.208
61.0885 4.448 0.215
61.1090 4.177 0.209
61.1295 3.771 0.198
61.1499 4.260 0.211
61.1704 4.073 0.206
61.1909 3.844 0.200
61.2113 3.979 0.204
61.2318 4.021 0.205
61.2522 4.188 0.209
61.2727 3.781 0.198
61.2932 3.823 0.200
61.3136 4.021 0.205
61.3341 4.385 0.214
61.3546 4.229 0.210
61.3750 4.031 0.205
61.3955 4.365 0.213
61.4159 4.792 0.223
61.4364 4.417 0.214
61.4569 4.094 0.207
61.4773 4.354 0.213
61.4978 4.115 0.207
61.5183 4.104 0.207
61.5387 3.990 0.204
61.5592 4.083 0.206
61.5796 4.219 0.210
61.6001 4.104 0.207
61.6206 4.104 0.207
61.6410 3.802 0.199
61.6615 3.760 0.198
61.6820 4.417 0.214
61.7024 3.885 0.201
61.7229 3.750 0.198
61.7433 4.146 0.208
61.7638 4.000 0.204
61.7843 3.719 0.197
61.8047 3.750 0.198
61.8252 4.167 0.208
61.8457 3.875 0.201
61.8661 3.875 0.201
61.8866 4.063 0.206
61.9071 3.615 0.194
61.9275 3.948 0.203
61.9480 3.719 0.197
61.9684 4.156 0.208
61.9889 4.406 0.214
62.0094 4.021 0.205
62.0298 3.833 0.200
62.0503 3.813 0.199
62.0708 4.073 0.206
62.0912 4.052 0.205
62.1117 4.052 0.205
62.1321 4.240 0.210
62.1526 4.333 0.212
62.1731 4.479 0.216
62.1935 4.583 0.219
62.2140 4.865 0.225
62.2345 4.240 0.210
62.2549 4.656 0.220
62.2754 4.448 0.215
62.2958 4.365 0.213
62.3163 4.448 0.215
62.3368 4.156 0.208
62.3572 4.563 0.218
62.3777 4.198 0.209
62.3982 3.948 0.203
62.4186 4.250 0.210
62.4391 4.250 0.210
62.4595 4.000 0.204
62.4800 4.260 0.211
62.5005 3.677 0.196
62.5209 3.792 0.199
62.5414 4.156 0.208
62.5619 4.094 0.207
62.5823 4.010 0.204
62.6028 3.677 0.196
62.6232 3.865 0.201
62.6437 3.531 0.192
62.6642 3.844 0.200
62.6846 3.948 0.203
62.7051 3.969 0.203
62.7256 3.750 0.198
62.7460 3.938 0.203
62.7665 3.979 0.204
62.7870 4.115 0.207
62.8074 3.896 0.201
62.8279 4.052 0.205
62.8483 3.719 0.197
62.8688 3.688 0.196
62.8893 3.740 0.197
62.9097 3.885 0.201
62.9302 3.906 0.202
62.9507 3.875 0.201
62.9711 3.792 0.199
62.9916 3.979 0.204
63.0120 3.625 0.194
63.0325 4.208 0.209
63.0530 4.344 0.213
63.0734 4.396 0.214
63.0939 3.969 0.203
63.1144 4.479 0.216
63.1348 3.823 0.200
63.1553 4.073 0.206
63.1757 4.344 0.213
63.1962 4.031 0.205
63.2167 4.031 0.205
63.2371 4.229 0.210
63.2576 4.042 0.205
63.2781 4.260 0.211
63.2985 4.271 0.211
63.3190 4.167 0.208
63.3394 4.198 0.209
63.3599 4.208 0.209
63.3804 4.271 0.211
63.4008 4.115 0.207
63.4213 4.396 0.214
63.4418 4.115 0.207
63.4622 4.177 0.209
63.4827 4.281 0.211
63.5032 4.656 0.220
63.5236 4.365 0.213
63.5441 4.563 0.218
63.5645 4.156 0.208
63.5850 3.854 0.200
63.6055 4.188 0.209
63.6259 4.354 0.213
63.6464 4.271 0.211
63.6669 4.417 0.214
63.6873 4.406 0.214
63.7078 4.385 0.214
63.7282 4.688 0.221
63.7487 4.563 0.218
63.7692 4.490 0.216
63.7896 4.156 0.208
63.8101 4.385 0.214
63.8306 4.427 0.215
63.8510 4.354 0.213
63.8715 4.375 0.213
63.8919 4.333 0.212
63.9124 4.375 0.213
63.9329 4.521 0.217
63.9533 4.521 0.217
63.9738 4.490 0.216
63.9943 4.646 0.220
64.0147 4.313 0.212
64.0352 5.052 0.229
64.0556 4.698 0.221
64.0761 4.792 0.223
64.0966 4.458 0.216
64.1170 4.542 0.218
64.1375 4.583 0.219
64.1580 4.677 0.221
64.1784 4.802 0.224
64.1989 4.708 0.221
64.2193 4.521 0.217
64.2398 4.490 0.216
64.2603 4.635 0.220
64.2807 4.365 0.213
64.3012 4.094 0.207
64.3217 4.479 0.216
64.3421 4.823 0.224
64.3626 4.083 0.206
64.3831 4.063 0.206
64.4035 4.396 0.214
64.4240 4.438 0.215
64.4444 4.740 0.222
64.4649 4.531 0.217
64.4854 4.625 0.219
64.5058 4.250 0.210
64.5263 4.573 0.218
64.5468 4.833 0.224
64.5672 4.333 0.212
64.5877 5.188 0.232
64.6081 4.906 0.226
64.6286 4.958 0.227
64.6491 5.604 0.242
64.6695 5.573 0.241
64.6900 5.177 0.232
64.7105 6.260 0.255
64.7309 6.021 0.250
64.7514 6.260 0.255
64.7718 5.490 0.239
64.7923 5.677 0.243
64.8128 5.646 0.243
64.8332 5.427 0.238
64.8537 5.448 0.238
64.8742 6.021 0.250
64.8946 5.667 0.243
64.9151 5.240 0.234
64.9355 4.948 0.227
64.9560 4.771 0.223
64.9765 4.802 0.224
64.9969 4.479 0.216
65.0174 4.604 0.219
65.0379 4.875 0.225
65.0583 4.552 0.218
65.0788 4.531 0.217
65.0992 4.750 0.222
65.1197 4.542 0.218
65.1402 4.042 0.205
65.1606 3.792 0.199
65.1811 4.125 0.207
65.2016 4.125 0.207
65.2220 4.010 0.204
65.2425 4.271 0.211
65.2630 3.927 0.202
65.2834 4.083 0.206
65.3039 3.990 0.204
65.3243 4.083 0.206
65.3448 3.938 0.203
65.3653 3.719 0.197
65.3857 3.688 0.196
65.4062 3.792 0.199
65.4267 3.813 0.199
65.4471 4.302 0.212
65.4676 3.760 0.198
65.4880 3.938 0.203
65.5085 4.146 0.208
65.5290 4.198 0.209
65.5494 4.594 0.219
65.5699 4.333 0.212
65.5904 4.854 0.225
65.6108 4.938 0.227
65.6313 4.823 0.224
65.6517 4.458 0.216
65.6722 5.000 0.228
65.6927 4.552 0.218
65.7131 4.469 0.216
65.7336 4.365 0.213
65.7541 4.490 0.216
65.7745 4.156 0.208
65.7950 4.479 0.216
65.8154 4.740 0.222
65.8359 4.542 0.218
65.8564 4.146 0.208
65.8768 4.458 0.216
65.8973 4.417 0.214
65.9178 4.448 0.215
65.9382 4.344 0.213
65.9587 4.104 0.207
65.9791 3.802 0.199
65.9996 3.760 0.198
66.0201 4.115 0.207
66.0405 4.063 0.206
66.0610 4.146 0.208
66.0815 3.896 0.201
66.1019 3.594 0.193
66.1224 3.677 0.196
66.1429 4.021 0.205
66.1633 3.802 0.199
66.1838 3.875 0.201
66.2042 3.802 0.199
66.2247 4.010 0.204
66.2452 3.771 0.198
66.2656 3.927 0.202
66.2861 3.906 0.202
66.3066 4.229 0.210
66.3270 3.771 0.198
66.3475 3.750 0.198
66.3679 3.823 0.200
66.3884 3.917 0.202
66.4089 4.031 0.205
66.4293 3.771 0.198
66.4498 3.594 0.193
66.4703 3.469 0.190
66.4907 3.750 0.198
66.5112 3.552 0.192
66.5316 3.760 0.198
66.5521 3.667 0.195
66.5726 3.615 0.194
66.5930 4.083 0.206
66.6135 3.771 0.198
66.6340 3.781 0.198
66.6544 4.125 0.207
66.6749 3.896 0.201
66.6953 4.083 0.206
66.7158 4.177 0.209
66.7363 4.396 0.214
66.7567 3.760 0.198
66.7772 3.948 0.203
66.7977 3.656 0.195
66.8181 4.052 0.205
66.8386 4.073 0.206
66.8590 3.958 0.203
66.8795 4.052 0.205
66.9000 3.938 0.203
66.9204 4.146 0.208
66.9409 4.000 0.204
66.9614 4.104 0.207
66.9818 4.135 0.208
67.0023 4.042 0.205
67.0228 3.990 0.204
67.0432 4.323 0.212
67.0637 4.604 0.219
67.0841 4.458 0.216
67.1046 4.604 0.219
67.1251 5.552 0.240
67.1455 5.479 0.239
67.1660 5.979 0.250
67.1865 6.406 0.258
67.2069 6.260 0.255
67.2274 6.385 0.258
67.2478 5.875 0.247
67.2683 5.583 0.241
67.2888 5.146 0.232
67.3092 5.740 0.245
67.3297 5.354 0.236
67.3502 5.271 0.234
67.3706 5.292 0.235
67.3911 5.521 0.240
67.4115 5.354 0.236
67.4320 5.146 0.232
67.4525 5.021 0.229
67.4729 4.927 0.227
67.4934 4.792 0.223
67.5139 4.740 0.222
67.5343 4.531 0.217
67.5548 4.656 0.220
67.5752 4.115 0.207
67.5957 4.177 0.209
67.6162 4.094 0.207
67.6366 4.531 0.217
67.6571 4.667 0.220
67.6776 4.240 0.210
67.6980 3.917 0.202
67.7185 4.563 0.218
67.7389 4.365 0.213
67.7594 3.938 0.203
67.7799 3.813 0.199
67.8003 4.490 0.216
67.8208 4.354 0.213
67.8413 4.563 0.218
67.8617 4.250 0.210
67.8822 4.188 0.209
67.9027 3.969 0.203
67.9231 3.750 0.198
67.9436 4.354 0.213
67.9640 4.240 0.210
67.9845 4.083 0.206
68.0050 4.094 0.207
68.0254 4.625 0.219
68.0459 4.427 0.215
68.0664 4.469 0.216
68.0868 4.427 0.215
68.1073 4.500 0.217
68.1277 4.521 0.217
68.1482 4.469 0.216
68.1687 4.500 0.217
68.1891 4.385 0.214
68.2096 4.146 0.208
68.2301 4.542 0.218
68.2505 4.552 0.218
68.2710 4.302 0.212
68.2914 4.406 0.214
68.3119 4.823 0.224
68.3324 4.510 0.217
68.3528 5.010 0.228
68.3733 5.052 0.229
68.3938 4.396 0.214
68.4142 4.771 0.223
68.4347 4.302 0.212
68.4551 4.458 0.216
68.4756 4.271 0.211
68.4961 3.969 0.203
68.5165 4.271 0.211
68.5370 4.240 0.210
68.5575 4.302 0.212
68.5779 4.250 0.210
68.5984 4.240 0.210
68.6189 4.000 0.204
68.6393 3.823 0.200
68.6598 4.052 0.205
68.6802 3.969 0.203
68.7007 4.083 0.206
68.7212 3.885 0.201
68.7416 4.031 0.205
68.7621 3.885 0.201
68.7826 3.344 0.187
68.8030 3.625 0.194
68.8235 3.990 0.204
68.8439 3.823 0.200
68.8644 3.865 0.201
68.8849 3.458 0.190
68.9053 3.896 0.201
68.9258 3.990 0.204
68.9463 3.750 0.198
68.9667 3.958 0.203
68.9872 4.000 0.204
69.0076 4.000 0.204
69.0281 4.208 0.209
69.0486 4.021 0.205
69.0690 4.458 0.216
69.0895 4.406 0.214
69.1100 4.302 0.212
69.1304 3.990 0.204
69.1509 3.792 0.199
69.1713 3.802 0.199
69.1918 4.073 0.206
69.2123 3.802 0.199
69.2327 4.021 0.205
69.2532 4.031 0.205
69.2737 4.260 0.211
69.2941 4.542 0.218
69.3146 4.188 0.209
69.3350 4.104 0.207
69.3555 4.438 0.215
69.3760 4.010 0.204
69.3964 3.469 0.190
69.4169 3.729 0.197
69.4374 3.448 0.190
69.4578 4.177 0.209
69.4783 3.667 0.195
69.4988 3.615 0.194
69.5192 3.948 0.203
69.5397 3.646 0.195
69.5601 3.865 0.201
69.5806 3.677 0.196
69.6011 3.302 0.185
69.6215 3.406 0.188
69.6420 3.531 0.192
69.6625 3.677 0.196
69.6829 3.729 0.197
69.7034 3.677 0.196
69.7238 3.729 0.197
69.7443 3.417 0.189
69.7648 3.479 0.190
69.7852 3.313 0.186
69.8057 3.542 0.192
69.8262 3.365 0.187
69.8466 3.302 0.185
69.8671 3.365 0.187
69.8875 3.375 0.188
69.9080 3.656 0.195
69.9285 3.385 0.188
69.9489 3.531 0.192
69.9694 3.354 0.187
69.9899 3.510 0.191
70.0103 3.813 0.199
70.0308 3.646 0.195
70.0512 3.604 0.194
70.0717 3.792 0.199
70.0922 3.396 0.188
70.1126 3.583 0.193
70.1331 3.365 0.187
70.1536 3.146 0.181
70.1740 3.417 0.189
70.1945 3.365 0.187
70.2149 3.677 0.196
70.2354 4.031 0.205
70.2559 3.521 0.192
70.2763 3.563 0.193
70.2968 3.677 0.196
70.3173 3.729 0.197
70.3377 3.365 0.187
70.3582 3.260 0.184
70.3787 3.406 0.188
70.3991 3.458 0.190
70.4196 3.479 0.190
70.4400 3.500 0.191
70.4605 3.698 0.196
70.4810 3.208 0.183
70.5014 3.531 0.192
70.5219 3.427 0.189
70.5424 3.635 0.195
70.5628 3.542 0.192
70.5833 3.354 0.187
70.6037 3.458 0.190
70.6242 3.500 0.191
70.6447 3.083 0.179
70.6651 3.521 0.192
70.6856 3.469 0.190
70.7061 3.167 0.182
70.7265 3.281 0.185
70.7470 3.531 0.192
70.7674 3.313 0.186
70.7879 3.146 0.181
70.8084 2.938 0.175
70.8288 3.542 0.192
70.8493 3.354 0.187
70.8698 3.052 0.178
70.8902 3.094 0.180
70.9107 3.333 0.186
70.9311 3.323 0.186
70.9516 3.167 0.182
70.9721 3.302 0.185
70.9925 3.188 0.182
71.0130 3.396 0.188
71.0335 3.740 0.197
71.0539 3.604 0.194
71.0744 3.302 0.185
71.0948 3.188 0.182
71.1153 3.333 0.186
71.1358 3.333 0.186
71.1562 3.438 0.189
71.1767 3.469 0.190
71.1972 3.125 0.180
71.2176 3.083 0.179
71.2381 3.396 0.188
71.2586 3.188 0.182
71.2790 3.167 0.182
71.2995 3.552 0.192
71.3199 3.427 0.189
71.3404 3.510 0.191
71.3609 3.135 0.181
71.3813 3.229 0.183
71.4018 3.833 0.200
71.4223 3.323 0.186
71.4427 3.375 0.188
71.4632 3.000 0.177
71.4836 3.313 0.186
71.5041 3.156 0.181
71.5246 3.479 0.190
71.5450 3.063 0.179
71.5655 3.406 0.188
71.5860 3.375 0.188
71.6064 3.240 0.184
71.6269 3.208 0.183
71.6473 3.323 0.186
71.6678 3.021 0.177
71.6883 2.979 0.176
71.7087 3.500 0.191
71.7292 3.073 0.179
71.7497 3.219 0.183
71.7701 2.875 0.173
71.7906 3.042 0.178
71.8110 3.521 0.192
71.8315 3.219 0.183
71.8520 3.490 0.191
71.8724 3.083 0.179
71.8929 3.052 0.178
71.9134 3.281 0.185
71.9338 3.021 0.177
71.9543 3.229 0.183
71.9747 3.156 0.181
71.9952 3.229 0.183
72.0157 3.125 0.180
72.0361 3.240 0.184
72.0566 3.469 0.190
72.0771 3.719 0.197
72.0975 3.104 0.180
72.1180 3.146 0.181
72.1385 3.115 0.180
72.1589 3.750 0.198
72.1794 3.250 0.184
72.1998 3.552 0.192
72.2203 3.479 0.190
72.2408 3.802 0.199
72.2612 3.094 0.180
72.2817 3.042 0.178
72.3022 3.104 0.180
72.3226 3.063 0.179
72.3431 3.021 0.177
72.3635 3.281 0.185
72.3840 3.167 0.182
72.4045 3.552 0.192
72.4249 3.104 0.180
72.4454 3.344 0.187
72.4659 3.260 0.184
72.4863 3.448 0.190
72.5068 3.427 0.189
72.5272 3.302 0.185
72.5477 3.396 0.188
72.5682 3.271 0.185
72.5886 3.448 0.190
72.6091 3.052 0.178
72.6296 2.927 0.175
72.6500 3.240 0.184
72.6705 2.844 0.172
72.6909 2.927 0.175
72.7114 3.135 0.181
72.7319 3.292 0.185
72.7523 3.250 0.184
72.7728 3.083 0.179
72.7933 3.156 0.181
72.8137 3.479 0.190
72.8342 3.365 0.187
72.8547 3.115 0.180
72.8751 3.219 0.183
72.8956 3.448 0.190
72.9160 3.552 0.192
72.9365 3.219 0.183
72.9570 3.396 0.188
72.9774 3.615 0.194
72.9979 3.188 0.182
73.0184 3.104 0.180
73.0388 3.240 0.184
73.0593 3.313 0.186
73.0797 3.615 0.194
73.1002 3.135 0.181
73.1207 3.292 0.185
73.1411 3.229 0.183
73.1616 3.344 0.187
73.1821 3.167 0.182
73.2025 3.302 0.185
73.2230 2.938 0.175
73.2434 3.115 0.180
73.2639 3.073 0.179
73.2844 2.896 0.174
73.3048 3.167 0.182
73.3253 2.802 0.171
73.3458 2.948 0.175
73.3662 3.240 0.184
73.3867 3.281 0.185
73.4071 3.146 0.181
73.4276 3.417 0.189
73.4481 3.073 0.179
73.4685 3.000 0.177
73.4890 2.906 0.174
73.5095 3.083 0.179
73.5299 2.802 0.171
73.5504 3.271 0.185
73.5708 2.729 0.169
73.5913 2.958 0.176
73.6118 2.896 0.174
73.6322 2.885 0.173
73.6527 3.010 0.177
73.6732 3.167 0.182
73.6936 3.115 0.180
73.7141 3.010 0.177
73.7346 3.365 0.187
73.7550 3.250 0.184
73.7755 2.677 0.167
73.7959 3.146 0.181
73.8164 3.406 0.188
73.8369 2.927 0.175
73.8573 3.083 0.179
73.8778 2.885 0.173
73.8983 2.927 0.175
73.9187 2.885 0.173
73.9392 3.063 0.179
73.9596 3.063 0.179
73.9801 3.354 0.187
74.0006 3.354 0.187
74.0210 3.385 0.188
74.0415 3.094 0.180
74.0620 3.438 0.189
74.0824 3.458 0.190
74.1029 3.135 0.181
74.1233 3.281 0.185
74.1438 3.344 0.187
74.1643 3.125 0.180
74.1847 3.135 0.181
74.2052 2.729 0.169
74.2257 3.250 0.184
74.2461 3.188 0.182
74.2666 2.938 0.175
74.2870 3.000 0.177
74.3075 3.021 0.177
74.3280 2.854 0.172
74.3484 3.115 0.180
74.3689 3.042 0.178
74.3894 3.156 0.181
74.4098 2.875 0.173
74.4303 2.854 0.172
74.4507 2.917 0.174
74.4712 2.750 0.169
74.4917 3.302 0.185
74.5121 3.000 0.177
74.5326 2.677 0.167
74.5531 3.052 0.178
74.5735 2.573 0.164
74.5940 2.927 0.175
74.6145 3.125 0.180
74.6349 2.583 0.164
74.6554 3.000 0.177
74.6758 2.667 0.167
74.6963 2.802 0.171
74.7168 2.771 0.170
74.7372 2.740 0.169
74.7577 3.021 0.177
74.7782 2.927 0.175
74.7986 3.073 0.179
74.8191 3.302 0.185
74.8395 2.844 0.172
74.8600 2.813 0.171
74.8805 2.969 0.176
74.9009 3.229 0.183
74.9214 3.115 0.180
74.9419 2.781 0.170
74.9623 2.896 0.174
74.9828 3.094 0.180
75.0032 3.229 0.183
75.0237 3.115 0.180
75.0442 3.104 0.180
75.0646 3.125 0.180
75.0851 2.833 0.172
75.1056 3.115 0.180
75.1260 2.760 0.170
75.1465 3.104 0.180
75.1669 3.115 0.180
75.1874 2.771 0.170
75.2079 3.000 0.177
75.2283 2.646 0.166
75.2488 3.156 0.181
75.2693 2.979 0.176
75.2897 3.438 0.189
75.3102 3.281 0.185
75.3306 2.938 0.175
75.3511 3.115 0.180
75.3716 3.229 0.183
75.3920 3.156 0.181
75.4125 3.115 0.180
75.4330 3.208 0.183
75.4534 3.083 0.179
75.4739 3.052 0.178
75.4944 3.385 0.188
75.5148 2.969 0.176
75.5353 2.948 0.175
75.5557 3.375 0.188
75.5762 3.052 0.178
75.5967 3.021 0.177
75.6171 3.135 0.181
75.6376 3.083 0.179
75.6581 3.167 0.182
75.6785 3.104 0.180
75.6990 3.302 0.185
75.7194 3.229 0.183
75.7399 3.677 0.196
75.7604 3.552 0.192
75.7808 3.740 0.197
75.8013 3.469 0.190
75.8218 4.177 0.209
75.8422 4.094 0.207
75.8627 3.750 0.198
75.8831 3.760 0.198
75.9036 3.604 0.194
75.9241 4.156 0.208
75.9445 3.854 0.200
75.9650 4.115 0.207
75.9855 3.292 0.185
76.0059 3.750 0.198
76.0264 3.771 0.198
76.0468 3.677 0.196
76.0673 3.740 0.197
76.0878 4.031 0.205
76.1082 3.469 0.190
76.1287 3.354 0.187
76.1492 3.188 0.182
76.1696 3.271 0.185
76.1901 3.417 0.189
76.2105 3.323 0.186
76.2310 3.250 0.184
76.2515 3.313 0.186
76.2719 3.146 0.181
76.2924 3.406 0.188
76.3129 3.323 0.186
76.3333 3.000 0.177
76.3538 3.510 0.191
76.3743 3.313 0.186
76.3947 3.354 0.187
76.4152 3.365 0.187
76.4356 3.208 0.183
76.4561 3.406 0.188
76.4766 2.938 0.175
76.4970 3.469 0.190
76.5175 3.031 0.178
76.5380 3.219 0.183
76.5584 3.010 0.177
76.5789 3.031 0.178
76.5993 2.885 0.173
76.6198 3.000 0.177
76.6403 3.427 0.189
76.6607 3.198 0.183
76.6812 3.063 0.179
76.7017 2.896 0.174
76.7221 3.052 0.178
76.7426 3.208 0.183
76.7630 2.948 0.175
76.7835 3.469 0.190
76.8040 3.104 0.180
76.8244 3.219 0.183
76.8449 3.219 0.183
76.8654 3.104 0.180
76.8858 3.031 0.178
76.9063 3.219 0.183
76.9267 2.990 0.176
76.9472 3.063 0.179
76.9677 2.979 0.176
76.9881 3.073 0.179
77.0086 2.896 0.174
77.0291 3.302 0.185
77.0495 3.240 0.184
77.0700 3.458 0.190
77.0905 3.135 0.181
77.1109 3.333 0.186
77.1314 2.875 0.173
77.1518 2.990 0.176
77.1723 3.104 0.180
77.1928 3.177 0.182
77.2132 3.365 0.187
77.2337 3.198 0.183
77.2542 3.083 0.179
77.2746 3.365 0.187
77.2951 3.167 0.182
77.3155 3.240 0.184
77.3360 3.167 0.182
77.3565 3.250 0.184
77.3769 3.302 0.185
77.3974 3.000 0.177
77.4179 3.365 0.187
77.4383 3.052 0.178
77.4588 3.250 0.184
77.4792 3.302 0.185
77.4997 3.135 0.181
77.5202 3.469 0.190
77.5406 3.010 0.177
77.5611 3.302 0.185
77.5816 3.469 0.190
77.6020 3.271 0.185
77.6225 3.042 0.178
77.6429 3.229 0.183
77.6634 3.385 0.188
77.6839 3.448 0.190
77.7043 3.177 0.182
77.7248 3.250 0.184
77.7453 3.365 0.187
77.7657 3.281 0.185
77.7862 3.417 0.189
77.8066 3.323 0.186
77.8271 3.396 0.188
77.8476 3.427 0.189
77.8680 3.448 0.190
77.8885 3.365 0.187
77.9090 3.563 0.193
77.9294 3.469 0.190
77.9499 3.073 0.179
77.9704 3.177 0.182
77.9908 3.479 0.190
78.0113 3.219 0.183
78.0317 3.208 0.183
78.0522 3.198 0.183
78.0727 3.375 0.188
78.0931 3.354 0.187
78.1136 3.438 0.189
78.1341 3.552 0.192
78.1545 2.917 0.174
78.1750 3.260 0.184
78.1954 3.385 0.188
78.2159 2.958 0.176
78.2364 3.219 0.183
78.2568 3.031 0.178
78.2773 2.802 0.171
78.2978 3.552 0.192
78.3182 3.250 0.184
78.3387 3.240 0.184
78.3591 3.094 0.180
78.3796 2.938 0.175
78.4001 3.490 0.191
78.4205 3.094 0.180
78.4410 3.594 0.193
78.4615 3.313 0.186
78.4819 3.188 0.182
78.5024 3.104 0.180
78.5228 3.188 0.182
78.5433 2.990 0.176
78.5638 3.333 0.186
78.5842 3.229 0.183
78.6047 3.313 0.186
78.6252 3.073 0.179
78.6456 3.094 0.180
78.6661 3.385 0.188
78.6865 3.552 0.192
78.7070 3.688 0.196
78.7275 3.354 0.187
78.7479 3.156 0.181
78.7684 3.219 0.183
78.7889 3.167 0.182
78.8093 3.073 0.179
78.8298 3.104 0.180
78.8503 3.260 0.184
78.8707 3.302 0.185
78.8912 3.104 0.180
78.9116 3.042 0.178
78.9321 2.927 0.175
78.9526 3.146 0.181
78.9730 2.906 0.174
78.9935 3.313 0.186
79.0140 3.073 0.179
79.0344 3.063 0.179
79.0549 3.052 0.178
79.0753 3.073 0.179
79.0958 3.115 0.180
79.1163 3.115 0.180
79.1367 3.094 0.180
79.1572 3.063 0.179
79.1777 2.604 0.165
79.1981 3.021 0.177
79.2186 3.292 0.185
79.2390 2.927 0.175
79.2595 3.115 0.180
79.2800 3.188 0.182
79.3004 3.031 0.178
79.3209 3.042 0.178
79.3414 2.740 0.169
79.3618 3.146 0.181
79.3823 3.229 0.183
79.4027 3.115 0.180
79.4232 3.000 0.177
79.4437 2.875 0.173
79.4641 3.198 0.183
79.4846 3.031 0.178
79.5051 3.010 0.177
79.5255 3.146 0.181
79.5460 3.125 0.180
79.5664 3.052 0.178
79.5869 3.146 0.181
79.6074 3.198 0.183
79.6278 3.302 0.185
79.6483 3.333 0.186
79.6688 3.260 0.184
79.6892 3.167 0.182
79.7097 3.188 0.182
79.7302 3.073 0.179
79.7506 2.792 0.171
79.7711 2.948 0.175
79.7915 2.885 0.173
79.8120 3.208 0.183
79.8325 3.135 0.181
79.8529 3.167 0.182
79.8734 3.365 0.187
79.8939 2.865 0.173
79.9143 3.021 0.177
79.9348 3.146 0.181
79.9552 3.219 0.183
79.9757 3.063 0.179
79.9962 3.302 0.185
