'Id: "" Comment: "" Operator: "Lab Manager" Anode: "Cu" Scantype: "Locked Coupled" TimePerStep: "96" X: "0" Y: "0" Z: "0" 
5.0000 26.271 0.523
5.0205 27.885 0.539
5.0409 27.573 0.536
5.0614 27.802 0.538
5.0819 26.625 0.527
5.1023 26.760 0.528
5.1228 27.094 0.531
5.1432 26.510 0.525
5.1637 26.750 0.528
5.1842 25.865 0.519
5.2046 26.042 0.521
5.2251 26.219 0.523
5.2456 26.583 0.526
5.2660 26.583 0.526
5.2865 24.948 0.510
5.3069 26.198 0.522
5.3274 25.990 0.520
5.3479 25.250 0.513
5.3683 25.219 0.513
5.3888 25.646 0.517
5.4093 26.021 0.521
5.4297 23.917 0.499
5.4502 25.104 0.511
5.4706 25.198 0.512
5.4911 25.260 0.513
5.5116 24.885 0.509
5.5320 24.531 0.506
5.5525 24.531 0.506
5.5730 24.479 0.505
5.5934 25.844 0.519
5.6139 23.448 0.494
5.6343 23.958 0.500
5.6548 24.302 0.503
5.6753 24.135 0.501
5.6957 24.698 0.507
5.7162 23.771 0.498
5.7367 24.875 0.509
5.7571 24.917 0.509
5.7776 24.875 0.509
5.7980 24.167 0.502
5.8185 24.625 0.506
5.8390 24.802 0.508
5.8594 24.260 0.503
5.8799 23.740 0.497
5.9004 24.260 0.503
5.9208 23.156 0.491
5.9413 24.104 0.501
5.9618 24.854 0.509
5.9822 24.406 0.504
6.0027 22.656 0.486
6.0231 23.615 0.496
6.0436 24.781 0.508
6.0641 24.323 0.503
6.0845 23.708 0.497
6.1050 24.219 0.502
6.1255 23.385 0.494
6.1459 22.729 0.487
6.1664 23.875 0.499
6.1868 23.281 0.492
6.2073 22.469 0.484
6.2278 23.396 0.494
6.2482 22.833 0.488
6.2687 23.771 0.498
6.2892 23.719 0.497
6.3096 23.365 0.493
6.3301 23.177 0.491
6.3505 24.344 0.504
6.3710 23.646 0.496
6.3915 23.313 0.493
6.4119 23.729 0.497
6.4324 22.979 0.489
6.4529 22.708 0.486
6.4733 22.740 0.487
6.4938 23.271 0.492
6.5142 23.792 0.498
6.5347 23.010 0.490
6.5552 23.000 0.489
6.5756 22.604 0.485
6.5961 23.771 0.498
6.6166 22.615 0.485
6.6370 24.229 0.502
6.6575 24.000 0.500
6.6779 22.260 0.482
6.6984 22.438 0.483
6.7189 23.708 0.497
6.7393 23.698 0.497
6.7598 22.583 0.485
6.7803 24.667 0.507
6.8007 23.281 0.492
6.8212 23.979 0.500
6.8417 23.500 0.495
6.8621 23.896 0.499
6.8826 22.813 0.487
6.9030 23.375 0.493
6.9235 23.635 0.496
6.9440 23.323 0.493
6.9644 22.896 0.488
6.9849 23.135 0.491
7.0054 23.115 0.491
7.0258 23.448 0.494
7.0463 22.750 0.487
7.0667 22.500 0.484
7.0872 22.927 0.489
7.1077 23.021 0.490
7.1281 23.500 0.495
7.1486 23.625 0.496
7.1691 22.938 0.489
7.1895 23.375 0.493
7.2100 22.885 0.488
7.2304 23.438 0.494
7.2509 23.469 0.494
7.2714 23.063 0.490
7.2918 24.031 0.500
7.3123 23.448 0.494
7.3328 22.781 0.487
7.3532 22.677 0.486
7.3737 23.906 0.499
7.3941 22.604 0.485
7.4146 23.490 0.495
7.4351 23.688 0.497
7.4555 23.260 0.492
7.4760 23.719 0.497
7.4965 23.917 0.499
7.5169 22.990 0.489
7.5374 23.417 0.494
7.5579 23.406 0.494
7.5783 23.719 0.497
7.5988 22.417 0.483
7.6192 23.719 0.497
7.6397 23.583 0.496
7.6602 23.438 0.494
7.6806 23.813 0.498
7.7011 23.844 0.498
7.7216 22.656 0.486
7.7420 23.250 0.492
7.7625 24.000 0.500
7.7829 22.896 0.488
7.8034 22.875 0.488
7.8239 23.656 0.496
7.8443 22.729 0.487
7.8648 22.823 0.488
7.8853 23.135 0.491
7.9057 24.177 0.502
7.9262 23.469 0.494
7.9466 22.969 0.489
7.9671 24.573 0.506
7.9876 22.375 0.483
8.0080 23.427 0.494
8.0285 24.188 0.502
8.0490 23.604 0.496
8.0694 23.615 0.496
8.0899 23.385 0.494
8.1103 23.885 0.499
8.1308 22.844 0.488
8.1513 23.573 0.496
8.1717 23.625 0.496
8.1922 23.552 0.495
8.2127 23.729 0.497
8.2331 24.146 0.502
8.2536 24.354 0.504
8.2740 23.958 0.500
8.2945 23.219 0.492
8.3150 23.135 0.491
8.3354 23.625 0.496
8.3559 23.885 0.499
8.3764 23.979 0.500
8.3968 24.094 0.501
8.4173 24.073 0.501
8.4378 23.990 0.500
8.4582 23.833 0.498
8.4787 23.594 0.496
8.4991 23.188 0.491
8.5196 24.021 0.500
8.5401 23.833 0.498
8.5605 24.385 0.504
8.5810 23.750 0.497
8.6015 24.448 0.505
8.6219 24.302 0.503
8.6424 24.375 0.504
8.6628 24.240 0.502
8.6833 24.969 0.510
8.7038 25.240 0.513
8.7242 25.271 0.513
8.7447 25.469 0.515
8.7652 26.531 0.526
8.7856 29.021 0.550
8.8061 29.677 0.556
8.8265 30.469 0.563
8.8470 31.469 0.573
8.8675 31.729 0.575
8.8879 32.115 0.578
8.9084 32.563 0.582
8.9289 31.958 0.577
8.9493 33.156 0.588
8.9698 32.708 0.584
8.9902 33.969 0.595
9.0107 37.917 0.628
9.0312 50.458 0.725
9.0516 77.344 0.898
9.0721 127.927 1.154
9.0926 158.177 1.284
9.1130 135.281 1.187
9.1335 93.792 0.988
9.1539 64.260 0.818
9.1744 44.042 0.677
9.1949 34.646 0.601
9.2153 36.344 0.615
9.2358 36.375 0.616
9.2563 37.344 0.624
9.2767 38.677 0.635
9.2972 47.208 0.701
9.3177 48.563 0.711
9.3381 41.948 0.661
9.3586 35.479 0.608
9.3790 35.563 0.609
9.3995 34.552 0.600
9.4200 33.802 0.593
9.4404 34.563 0.600
9.4609 35.448 0.608
9.4814 35.563 0.609
9.5018 36.844 0.620
9.5223 39.792 0.644
9.5427 39.188 0.639
9.5632 42.573 0.666
9.5837 44.406 0.680
9.6041 46.010 0.692
9.6246 48.990 0.714
9.6451 50.385 0.724
9.6655 54.000 0.750
9.6860 56.906 0.770
9.7064 64.010 0.817
9.7269 68.823 0.847
9.7474 79.385 0.909
9.7678 98.229 1.012
9.7883 134.250 1.183
9.8088 174.781 1.349
9.8292 213.229 1.490
9.8497 280.917 1.711
9.8701 391.875 2.020
9.8906 525.479 2.340
9.9111 414.469 2.078
9.9315 228.104 1.541
9.9520 101.521 1.028
9.9725 61.583 0.801
9.9929 46.479 0.696
10.0134 43.708 0.675
10.0338 40.844 0.652
10.0543 38.073 0.630
10.0748 36.292 0.615
10.0952 35.271 0.606
10.1157 34.573 0.600
10.1362 31.844 0.576
10.1566 28.802 0.548
10.1771 28.229 0.542
10.1976 27.302 0.533
10.2180 26.927 0.530
10.2385 26.240 0.523
10.2589 25.240 0.513
10.2794 25.969 0.520
10.2999 25.354 0.514
10.3203 25.708 0.517
10.3408 24.625 0.506
10.3613 24.625 0.506
10.3817 24.583 0.506
10.4022 23.552 0.495
10.4226 25.083 0.511
10.4431 24.490 0.505
10.4636 23.313 0.493
10.4840 24.396 0.504
10.5045 23.781 0.498
10.5250 23.406 0.494
10.5454 24.542 0.506
10.5659 23.042 0.490
10.5863 23.521 0.495
10.6068 23.458 0.494
10.6273 22.760 0.487
10.6477 23.417 0.494
10.6682 23.177 0.491
10.6887 23.771 0.498
10.7091 24.177 0.502
10.7296 23.104 0.491
10.7500 22.417 0.483
10.7705 22.844 0.488
10.7910 22.885 0.488
10.8114 22.635 0.486
10.8319 22.313 0.482
10.8524 22.677 0.486
10.8728 22.240 0.481
10.8933 22.115 0.480
10.9137 21.948 0.478
10.9342 22.135 0.480
10.9547 21.708 0.476
10.9751 22.281 0.482
10.9956 21.625 0.475
11.0161 21.229 0.470
11.0365 21.906 0.478
11.0570 22.188 0.481
11.0775 21.417 0.472
11.0979 21.135 0.469
11.1184 20.531 0.462
11.1388 21.000 0.468
11.1593 20.958 0.467
11.1798 20.333 0.460
11.2002 20.833 0.466
11.2207 20.990 0.468
11.2412 20.531 0.462
11.2616 20.958 0.467
11.2821 20.156 0.458
11.3025 20.750 0.465
11.3230 19.698 0.453
11.3435 20.313 0.460
11.3639 20.563 0.463
11.3844 20.635 0.464
11.4049 21.760 0.476
11.4253 19.833 0.455
11.4458 20.458 0.462
11.4662 19.708 0.453
11.4867 19.635 0.452
11.5072 19.365 0.449
11.5276 18.615 0.440
11.5481 19.760 0.454
11.5686 19.448 0.450
11.5890 20.281 0.460
11.6095 19.917 0.455
11.6299 18.646 0.441
11.6504 19.375 0.449
11.6709 19.323 0.449
11.6913 18.938 0.444
11.7118 18.500 0.439
11.7323 18.688 0.441
11.7527 18.938 0.444
11.7732 18.563 0.440
11.7937 18.458 0.438
11.8141 18.885 0.444
11.8346 19.198 0.447
11.8550 19.198 0.447
11.8755 19.031 0.445
11.8960 18.427 0.438
11.9164 17.990 0.433
11.9369 17.677 0.429
11.9574 17.458 0.426
11.9778 17.031 0.421
11.9983 17.250 0.424
12.0187 17.406 0.426
12.0392 17.885 0.432
12.0597 16.969 0.420
12.0801 17.292 0.424
12.1006 17.344 0.425
12.1211 15.875 0.407
12.1415 16.604 0.416
12.1620 17.156 0.423
12.1824 17.896 0.432
12.2029 17.406 0.426
12.2234 17.125 0.422
12.2438 17.271 0.424
12.2643 16.094 0.409
12.2848 17.125 0.422
12.3052 16.656 0.417
12.3257 16.510 0.415
12.3461 16.385 0.413
12.3666 16.375 0.413
12.3871 16.896 0.420
12.4075 17.094 0.422
12.4280 16.385 0.413
12.4485 16.271 0.412
12.4689 15.625 0.403
12.4894 16.896 0.420
12.5098 16.260 0.412
12.5303 16.104 0.410
12.5508 15.917 0.407
12.5712 15.615 0.403
12.5917 15.646 0.404
12.6122 15.885 0.407
12.6326 15.813 0.406
12.6531 15.615 0.403
12.6736 16.208 0.411
12.6940 15.833 0.406
12.7145 15.813 0.406
12.7349 15.635 0.404
12.7554 15.969 0.408
12.7759 15.750 0.405
12.7963 15.760 0.405
12.8168 14.813 0.393
12.8373 14.771 0.392
12.8577 15.833 0.406
12.8782 15.250 0.399
12.8986 15.406 0.401
12.9191 15.385 0.400
12.9396 15.281 0.399
12.9600 15.344 0.400
12.9805 14.667 0.391
13.0010 14.948 0.395
13.0214 14.760 0.392
13.0419 15.125 0.397
13.0623 14.844 0.393
13.0828 14.625 0.390
13.1033 14.917 0.394
13.1237 14.156 0.384
13.1442 14.260 0.385
13.1647 14.729 0.392
13.1851 14.667 0.391
13.2056 14.135 0.384
13.2260 14.625 0.390
13.2465 14.208 0.385
13.2670 15.281 0.399
13.2874 15.208 0.398
13.3079 14.188 0.384
13.3284 14.146 0.384
13.3488 14.333 0.386
13.3693 14.500 0.389
13.3897 14.719 0.392
13.4102 14.646 0.391
13.4307 15.344 0.400
13.4511 14.042 0.382
13.4716 14.323 0.386
13.4921 15.115 0.397
13.5125 14.917 0.394
13.5330 14.552 0.389
13.5535 14.583 0.390
13.5739 14.458 0.388
13.5944 14.625 0.390
13.6148 14.833 0.393
13.6353 14.823 0.393
13.6558 14.656 0.391
13.6762 14.760 0.392
13.6967 14.458 0.388
13.7172 13.958 0.381
13.7376 15.188 0.398
13.7581 14.979 0.395
13.7785 14.573 0.390
13.7990 14.938 0.394
13.8195 14.875 0.394
13.8399 14.542 0.389
13.8604 14.698 0.391
13.8809 13.938 0.381
13.9013 14.177 0.384
13.9218 14.771 0.392
13.9422 14.823 0.393
13.9627 14.615 0.390
13.9832 14.375 0.387
14.0036 13.948 0.381
14.0241 14.833 0.393
14.0446 14.552 0.389
14.0650 14.896 0.394
14.0855 15.000 0.395
14.1059 14.844 0.393
14.1264 15.177 0.398
14.1469 14.823 0.393
14.1673 14.479 0.388
14.1878 14.854 0.393
14.2083 14.823 0.393
14.2287 14.052 0.383
14.2492 14.104 0.383
14.2696 14.115 0.383
14.2901 13.938 0.381
14.3106 14.885 0.394
14.3310 14.240 0.385
14.3515 14.333 0.386
14.3720 14.219 0.385
14.3924 14.469 0.388
14.4129 14.583 0.390
14.4334 14.313 0.386
14.4538 14.333 0.386
14.4743 13.948 0.381
14.4947 13.688 0.378
14.5152 14.156 0.384
14.5357 13.656 0.377
14.5561 14.458 0.388
14.5766 13.854 0.380
14.5971 13.844 0.380
14.6175 14.323 0.386
14.6380 14.177 0.384
14.6584 13.354 0.373
14.6789 13.688 0.378
14.6994 13.573 0.376
14.7198 13.875 0.380
14.7403 13.625 0.377
14.7608 13.656 0.377
14.7812 13.219 0.371
14.8017 14.365 0.387
14.8221 13.417 0.374
14.8426 13.490 0.375
14.8631 13.333 0.373
14.8835 13.146 0.370
14.9040 13.406 0.374
14.9245 13.760 0.379
14.9449 12.948 0.367
14.9654 12.542 0.361
14.9858 13.250 0.372
15.0063 12.583 0.362
15.0268 12.875 0.366
15.0472 12.833 0.366
15.0677 13.000 0.368
15.0882 13.396 0.374
15.1086 12.750 0.364
15.1291 12.813 0.365
15.1495 12.958 0.367
15.1700 12.031 0.354
15.1905 12.906 0.367
15.2109 12.240 0.357
15.2314 12.729 0.364
15.2519 13.094 0.369
15.2723 12.458 0.360
15.2928 13.323 0.373
15.3133 12.156 0.356
15.3337 12.313 0.358
15.3542 12.427 0.360
15.3746 12.583 0.362
15.3951 12.292 0.358
15.4156 12.625 0.363
15.4360 12.531 0.361
15.4565 11.844 0.351
15.4770 12.896 0.367
15.4974 12.833 0.366
15.5179 12.406 0.359
15.5383 12.698 0.364
15.5588 12.656 0.363
15.5793 12.438 0.360
15.5997 12.448 0.360
15.6202 12.344 0.359
15.6407 13.177 0.370
15.6611 14.417 0.388
15.6816 16.875 0.419
15.7020 21.771 0.476
15.7225 32.219 0.579
15.7430 48.458 0.710
15.7634 54.396 0.753
15.7839 52.104 0.737
15.8044 37.448 0.625
15.8248 25.594 0.516
15.8453 17.052 0.421
15.8657 13.594 0.376
15.8862 13.031 0.368
15.9067 12.313 0.358
15.9271 12.302 0.358
15.9476 12.531 0.361
15.9681 11.354 0.344
15.9885 12.146 0.356
16.0090 11.844 0.351
16.0295 12.229 0.357
16.0499 11.271 0.343
16.0704 11.208 0.342
16.0908 11.417 0.345
16.1113 11.000 0.339
16.1318 10.979 0.338
16.1522 11.135 0.341
16.1727 11.438 0.345
16.1932 11.667 0.349
16.2136 11.344 0.344
16.2341 11.000 0.339
16.2545 11.354 0.344
16.2750 11.281 0.343
16.2955 10.510 0.331
16.3159 10.906 0.337
16.3364 10.990 0.338
16.3569 11.490 0.346
16.3773 10.938 0.338
16.3978 10.958 0.338
16.4182 10.229 0.326
16.4387 10.552 0.332
16.4592 10.135 0.325
16.4796 10.583 0.332
16.5001 11.750 0.350
16.5206 10.896 0.337
16.5410 11.031 0.339
16.5615 10.875 0.337
16.5819 10.552 0.332
16.6024 10.750 0.335
16.6229 10.479 0.330
16.6433 10.740 0.334
16.6638 10.938 0.338
16.6843 11.396 0.345
16.7047 10.573 0.332
16.7252 10.135 0.325
16.7456 10.510 0.331
16.7661 10.521 0.331
16.7866 10.875 0.337
16.8070 10.365 0.329
16.8275 10.479 0.330
16.8480 10.479 0.330
16.8684 10.594 0.332
16.8889 10.677 0.333
16.9094 10.792 0.335
16.9298 10.417 0.329
16.9503 10.896 0.337
16.9707 10.490 0.331
16.9912 10.510 0.331
17.0117 10.917 0.337
17.0321 11.469 0.346
17.0526 11.031 0.339
17.0731 11.313 0.343
17.0935 10.542 0.331
17.1140 11.323 0.343
17.1344 11.063 0.339
17.1549 11.635 0.348
17.1754 11.594 0.348
17.1958 11.021 0.339
17.2163 11.042 0.339
17.2368 11.167 0.341
17.2572 11.906 0.352
17.2777 11.500 0.346
17.2981 12.375 0.359
17.3186 11.604 0.348
17.3391 11.490 0.346
17.3595 12.417 0.360
17.3800 11.667 0.349
17.4005 12.396 0.359
17.4209 13.219 0.371
17.4414 13.865 0.380
17.4618 14.292 0.386
17.4823 15.250 0.399
17.5028 16.615 0.416
17.5232 17.229 0.424
17.5437 21.208 0.470
17.5642 25.802 0.518
17.5846 31.240 0.570
17.6051 34.406 0.599
17.6255 33.750 0.593
17.6460 31.615 0.574
17.6665 26.469 0.525
17.6869 22.990 0.489
17.7074 19.521 0.451
17.7279 18.094 0.434
17.7483 17.417 0.426
17.7688 17.833 0.431
17.7893 17.760 0.430
17.8097 18.208 0.436
17.8302 17.729 0.430
17.8506 16.031 0.409
17.8711 15.948 0.408
17.8916 16.000 0.408
17.9120 15.323 0.400
17.9325 14.344 0.387
17.9530 15.563 0.403
17.9734 15.073 0.396
17.9939 15.427 0.401
18.0143 16.000 0.408
18.0348 15.792 0.406
18.0553 17.625 0.428
18.0757 17.823 0.431
18.0962 18.125 0.435
18.1167 17.281 0.424
18.1371 17.417 0.426
18.1576 18.125 0.435
18.1780 18.729 0.442
18.1985 20.719 0.465
18.2190 21.854 0.477
18.2394 22.313 0.482
18.2599 21.156 0.469
18.2804 20.125 0.458
18.3008 19.771 0.454
18.3213 20.448 0.462
18.3417 20.344 0.460
18.3622 20.865 0.466
18.3827 21.281 0.471
18.4031 22.781 0.487
18.4236 23.125 0.491
18.4441 24.104 0.501
18.4645 26.563 0.526
18.4850 27.573 0.536
18.5054 28.906 0.549
18.5259 30.094 0.560
18.5464 28.094 0.541
18.5668 28.625 0.546
18.5873 27.719 0.537
18.6078 27.781 0.538
18.6282 27.698 0.537
18.6487 33.844 0.594
18.6692 26.292 0.523
18.6896 27.281 0.533
18.7101 25.073 0.511
18.7305 22.104 0.480
18.7510 21.802 0.477
18.7715 22.542 0.485
18.7919 22.885 0.488
18.8124 23.104 0.491
18.8329 23.156 0.491
18.8533 20.490 0.462
18.8738 20.052 0.457
18.8942 18.781 0.442
18.9147 16.313 0.412
18.9352 16.490 0.414
18.9556 15.854 0.406
18.9761 15.354 0.400
18.9966 14.708 0.391
19.0170 14.646 0.391
19.0375 13.583 0.376
19.0579 13.563 0.376
19.0784 13.594 0.376
19.0989 14.802 0.393
19.1193 14.031 0.382
19.1398 13.719 0.378
19.1603 13.813 0.379
19.1807 14.260 0.385
19.2012 14.563 0.389
19.2216 13.865 0.380
19.2421 13.677 0.377
19.2626 13.979 0.382
19.2830 14.344 0.387
19.3035 14.302 0.386
19.3240 13.969 0.381
19.3444 13.813 0.379
19.3649 14.646 0.391
19.3853 14.927 0.394
19.4058 14.531 0.389
19.4263 14.344 0.387
19.4467 14.969 0.395
19.4672 15.229 0.398
19.4877 16.042 0.409
19.5081 16.969 0.420
19.5286 16.719 0.417
19.5491 17.438 0.426
19.5695 18.969 0.445
19.5900 19.917 0.455
19.6104 19.844 0.455
19.6309 21.302 0.471
19.6514 22.615 0.485
19.6718 24.510 0.505
19.6923 25.760 0.518
19.7128 29.250 0.552
19.7332 34.615 0.600
19.7537 44.750 0.683
19.7741 65.427 0.826
19.7946 101.813 1.030
19.8151 147.823 1.241
19.8355 201.542 1.449
19.8560 147.625 1.240
19.8765 113.333 1.087
19.8969 89.990 0.968
19.9174 45.604 0.689
19.9378 27.896 0.539
19.9583 23.698 0.497
19.9788 20.625 0.464
19.9992 19.510 0.451
20.0197 19.094 0.446
20.0402 17.208 0.423
20.0606 16.667 0.417
20.0811 17.198 0.423
20.1015 16.188 0.411
20.1220 15.854 0.406
20.1425 16.698 0.417
20.1629 16.521 0.415
20.1834 16.885 0.419
20.2039 18.531 0.439
20.2243 19.188 0.447
20.2448 19.198 0.447
20.2653 20.677 0.464
20.2857 21.667 0.475
20.3062 23.927 0.499
20.3266 27.906 0.539
20.3471 30.875 0.567
20.3676 29.802 0.557
20.3880 29.417 0.554
20.4085 26.010 0.521
20.4290 24.115 0.501
20.4494 22.198 0.481
20.4699 20.938 0.467
20.4903 18.563 0.440
20.5108 19.063 0.446
20.5313 18.469 0.439
20.5517 18.354 0.437
20.5722 17.615 0.428
20.5927 15.375 0.400
20.6131 15.542 0.402
20.6336 16.167 0.410
20.6540 15.156 0.397
20.6745 13.615 0.377
20.6950 14.844 0.393
20.7154 13.313 0.372
20.7359 12.917 0.367
20.7564 12.292 0.358
20.7768 12.990 0.368
20.7973 12.615 0.362
20.8177 12.354 0.359
20.8382 11.896 0.352
20.8587 12.667 0.363
20.8791 12.688 0.364
20.8996 11.833 0.351
20.9201 12.177 0.356
20.9405 12.208 0.357
20.9610 12.135 0.356
20.9814 12.146 0.356
21.0019 12.031 0.354
21.0224 12.208 0.357
21.0428 12.260 0.357
21.0633 12.135 0.356
21.0838 12.542 0.361
21.1042 12.344 0.359
21.1247 12.198 0.356
21.1452 11.823 0.351
21.1656 12.167 0.356
21.1861 12.313 0.358
21.2065 11.906 0.352
21.2270 11.938 0.353
21.2475 11.604 0.348
21.2679 11.760 0.350
21.2884 12.292 0.358
21.3089 12.271 0.358
21.3293 11.969 0.353
21.3498 11.917 0.352
21.3702 11.948 0.353
21.3907 11.479 0.346
21.4112 11.927 0.352
21.4316 11.125 0.340
21.4521 11.344 0.344
21.4726 11.406 0.345
21.4930 10.813 0.336
21.5135 10.688 0.334
21.5339 10.323 0.328
21.5544 10.427 0.330
21.5749 10.104 0.324
21.5953 11.052 0.339
21.6158 10.448 0.330
21.6363 10.938 0.338
21.6567 10.750 0.335
21.6772 11.208 0.342
21.6976 10.438 0.330
21.7181 10.396 0.329
21.7386 11.250 0.342
21.7590 10.583 0.332
21.7795 10.031 0.323
21.8000 11.125 0.340
21.8204 10.198 0.326
21.8409 10.500 0.331
21.8613 11.094 0.340
21.8818 10.750 0.335
21.9023 11.333 0.344
21.9227 10.313 0.328
21.9432 10.917 0.337
21.9637 11.344 0.344
21.9841 11.344 0.344
22.0046 11.760 0.350
22.0251 11.792 0.350
22.0455 12.271 0.358
22.0660 12.833 0.366
22.0864 13.854 0.380
22.1069 15.563 0.403
22.1274 17.906 0.432
22.1478 22.927 0.489
22.1683 29.156 0.551
22.1888 32.469 0.582
22.2092 30.573 0.564
22.2297 26.521 0.526
22.2501 24.042 0.500
22.2706 20.292 0.460
22.2911 16.177 0.411
22.3115 14.750 0.392
22.3320 13.906 0.381
22.3525 13.167 0.370
22.3729 12.229 0.357
22.3934 11.729 0.350
22.4138 11.802 0.351
22.4343 12.135 0.356
22.4548 11.458 0.345
22.4752 11.427 0.345
22.4957 11.583 0.347
22.5162 11.438 0.345
22.5366 10.490 0.331
22.5571 10.760 0.335
22.5775 10.667 0.333
22.5980 10.833 0.336
22.6185 11.073 0.340
22.6389 10.365 0.329
22.6594 10.708 0.334
22.6799 10.594 0.332
22.7003 10.000 0.323
22.7208 10.563 0.332
22.7412 10.688 0.334
22.7617 11.219 0.342
22.7822 10.948 0.338
22.8026 10.906 0.337
22.8231 11.229 0.342
22.8436 10.927 0.337
22.8640 12.375 0.359
22.8845 13.521 0.375
22.9050 13.125 0.370
22.9254 12.667 0.363
22.9459 11.708 0.349
22.9663 11.646 0.348
22.9868 10.615 0.333
23.0073 10.844 0.336
23.0277 10.698 0.334
23.0482 10.146 0.325
23.0687 10.146 0.325
23.0891 9.823 0.320
23.1096 10.083 0.324
23.1300 9.792 0.319
23.1505 9.969 0.322
23.1710 9.583 0.316
23.1914 9.573 0.316
23.2119 9.417 0.313
23.2324 9.219 0.310
23.2528 9.313 0.311
23.2733 10.031 0.323
23.2937 10.146 0.325
23.3142 9.531 0.315
23.3347 10.021 0.323
23.3551 9.823 0.320
23.3756 9.823 0.320
23.3961 9.323 0.312
23.4165 9.667 0.317
23.4370 9.833 0.320
23.4574 9.531 0.315
23.4779 9.552 0.315
23.4984 9.552 0.315
23.5188 10.000 0.323
23.5393 9.531 0.315
23.5598 9.458 0.314
23.5802 9.635 0.317
23.6007 9.781 0.319
23.6211 9.354 0.312
23.6416 9.813 0.320
23.6621 9.406 0.313
23.6825 9.927 0.322
23.7030 9.948 0.322
23.7235 10.083 0.324
23.7439 9.573 0.316
23.7644 9.094 0.308
23.7849 9.063 0.307
23.8053 9.125 0.308
23.8258 8.990 0.306
23.8462 9.500 0.315
23.8667 9.333 0.312
23.8872 10.000 0.323
23.9076 9.177 0.309
23.9281 9.573 0.316
23.9486 9.177 0.309
23.9690 9.208 0.310
23.9895 9.427 0.313
24.0099 9.948 0.322
24.0304 9.458 0.314
24.0509 9.073 0.307
24.0713 9.219 0.310
24.0918 9.073 0.307
24.1123 10.156 0.325
24.1327 9.250 0.310
24.1532 9.844 0.320
24.1736 11.188 0.341
24.1941 11.458 0.345
24.2146 10.385 0.329
24.2350 10.396 0.329
24.2555 10.583 0.332
24.2760 10.260 0.327
24.2964 11.115 0.340
24.3169 10.448 0.330
24.3373 10.927 0.337
24.3578 10.583 0.332
24.3783 10.219 0.326
24.3987 9.979 0.322
24.4192 9.188 0.309
24.4397 9.500 0.315
24.4601 9.427 0.313
24.4806 9.167 0.309
24.5011 9.844 0.320
24.5215 9.583 0.316
24.5420 9.490 0.314
24.5624 9.510 0.315
24.5829 9.188 0.309
24.6034 9.417 0.313
24.6238 9.198 0.310
24.6443 9.750 0.319
24.6648 10.344 0.328
24.6852 9.865 0.321
24.7057 9.875 0.321
24.7261 9.667 0.317
24.7466 9.604 0.316
24.7671 8.667 0.300
24.7875 9.146 0.309
24.8080 8.625 0.300
24.8285 9.385 0.313
24.8489 9.115 0.308
24.8694 9.229 0.310
24.8898 8.958 0.305
24.9103 8.573 0.299
24.9308 8.417 0.296
24.9512 8.688 0.301
24.9717 8.823 0.303
24.9922 9.313 0.311
25.0126 9.271 0.311
25.0331 9.250 0.310
25.0535 8.958 0.305
25.0740 10.146 0.325
25.0945 9.083 0.308
25.1149 9.448 0.314
25.1354 8.594 0.299
25.1559 9.375 0.313
25.1763 9.229 0.310
25.1968 9.188 0.309
25.2172 9.260 0.311
25.2377 8.990 0.306
25.2582 9.115 0.308
25.2786 8.729 0.302
25.2991 9.906 0.321
25.3196 8.729 0.302
25.3400 8.729 0.302
25.3605 9.198 0.310
25.3810 8.635 0.300
25.4014 8.500 0.298
25.4219 8.510 0.298
25.4423 9.438 0.314
25.4628 9.010 0.306
25.4833 9.479 0.314
25.5037 9.188 0.309
25.5242 9.833 0.320
25.5447 10.021 0.323
25.5651 11.698 0.349
25.5856 11.104 0.340
25.6060 10.698 0.334
25.6265 10.073 0.324
25.6470 10.125 0.325
25.6674 9.771 0.319
25.6879 9.104 0.308
25.7084 8.927 0.305
25.7288 8.844 0.304
25.7493 8.469 0.297
25.7697 8.823 0.303
25.7902 9.031 0.307
25.8107 8.958 0.305
25.8311 8.719 0.301
25.8516 9.563 0.316
25.8721 8.792 0.303
25.8925 9.271 0.311
25.9130 8.729 0.302
25.9334 8.792 0.303
25.9539 9.490 0.314
25.9744 8.469 0.297
25.9948 9.104 0.308
26.0153 9.219 0.310
26.0358 8.802 0.303
26.0562 9.083 0.308
26.0767 9.406 0.313
26.0971 8.969 0.306
26.1176 8.917 0.305
26.1381 9.042 0.307
26.1585 9.042 0.307
26.1790 9.563 0.316
26.1995 9.167 0.309
26.2199 9.000 0.306
26.2404 8.604 0.299
26.2609 8.479 0.297
26.2813 9.208 0.310
26.3018 8.573 0.299
26.3222 9.208 0.310
26.3427 9.094 0.308
26.3632 9.354 0.312
26.3836 8.938 0.305
26.4041 9.542 0.315
26.4246 8.729 0.302
26.4450 8.479 0.297
26.4655 8.792 0.303
26.4859 8.448 0.297
26.5064 9.083 0.308
26.5269 9.521 0.315
26.5473 9.240 0.310
26.5678 8.948 0.305
26.5883 9.042 0.307
26.6087 9.385 0.313
26.6292 9.594 0.316
26.6496 9.542 0.315
26.6701 9.125 0.308
26.6906 9.219 0.310
26.7110 9.510 0.315
26.7315 9.490 0.314
26.7520 9.135 0.308
26.7724 10.146 0.325
26.7929 9.740 0.319
26.8133 9.792 0.319
26.8338 10.427 0.330
26.8543 10.198 0.326
26.8747 10.302 0.328
26.8952 10.656 0.333
26.9157 10.833 0.336
26.9361 10.865 0.336
26.9566 12.323 0.358
26.9770 13.490 0.375
26.9975 15.927 0.407
27.0180 17.240 0.424
27.0384 18.083 0.434
27.0589 17.219 0.424
27.0794 17.688 0.429
27.0998 15.854 0.406
27.1203 13.854 0.380
27.1408 13.396 0.374
27.1612 12.365 0.359
27.1817 11.844 0.351
27.2021 10.990 0.338
27.2226 10.750 0.335
27.2431 10.188 0.326
27.2635 10.802 0.335
27.2840 9.802 0.320
27.3045 11.000 0.339
27.3249 10.656 0.333
27.3454 9.948 0.322
27.3658 10.719 0.334
27.3863 11.219 0.342
27.4068 10.990 0.338
27.4272 13.688 0.378
27.4477 19.792 0.454
27.4682 22.333 0.482
27.4886 25.917 0.520
27.5091 19.896 0.455
27.5295 18.000 0.433
27.5500 17.917 0.432
27.5705 15.865 0.407
27.5909 11.885 0.352
27.6114 10.844 0.336
27.6319 11.063 0.339
27.6523 10.302 0.328
27.6728 10.427 0.330
27.6932 10.938 0.338
27.7137 10.656 0.333
27.7342 11.250 0.342
27.7546 11.583 0.347
27.7751 10.938 0.338
27.7956 11.458 0.345
27.8160 11.323 0.343
27.8365 11.385 0.344
27.8569 11.656 0.348
27.8774 10.865 0.336
27.8979 11.448 0.345
27.9183 11.375 0.344
27.9388 11.427 0.345
27.9593 11.073 0.340
27.9797 10.760 0.335
28.0002 11.188 0.341
28.0207 11.219 0.342
28.0411 11.219 0.342
28.0616 10.938 0.338
28.0820 11.260 0.342
28.1025 11.219 0.342
28.1230 11.125 0.340
28.1434 10.833 0.336
28.1639 11.458 0.345
28.1844 11.479 0.346
28.2048 10.646 0.333
28.2253 11.073 0.340
28.2457 10.750 0.335
28.2662 10.885 0.337
28.2867 10.656 0.333
28.3071 11.052 0.339
28.3276 10.813 0.336
28.3481 10.833 0.336
28.3685 10.469 0.330
28.3890 10.677 0.333
28.4094 10.656 0.333
28.4299 9.906 0.321
28.4504 9.875 0.321
28.4708 9.885 0.321
28.4913 9.979 0.322
28.5118 9.896 0.321
28.5322 10.292 0.327
28.5527 9.854 0.320
28.5731 9.979 0.322
28.5936 10.854 0.336
28.6141 10.406 0.329
28.6345 10.469 0.330
28.6550 10.302 0.328
28.6755 11.292 0.343
28.6959 10.260 0.327
28.7164 10.656 0.333
28.7368 11.073 0.340
28.7573 11.438 0.345
28.7778 11.313 0.343
28.7982 12.104 0.355
28.8187 12.219 0.357
28.8392 12.542 0.361
28.8596 14.688 0.391
28.8801 17.167 0.423
28.9006 21.469 0.473
28.9210 25.396 0.514
28.9415 27.156 0.532
28.9619 25.094 0.511
28.9824 23.875 0.499
29.0029 22.250 0.481
29.0233 20.208 0.459
29.0438 18.052 0.434
29.0643 15.698 0.404
29.0847 13.104 0.369
29.1052 12.531 0.361
29.1256 12.229 0.357
29.1461 11.271 0.343
29.1666 10.750 0.335
29.1870 10.354 0.328
29.2075 11.031 0.339
29.2280 9.656 0.317
29.2484 10.177 0.326
29.2689 11.250 0.342
29.2893 10.698 0.334
29.3098 11.271 0.343
29.3303 11.073 0.340
29.3507 11.135 0.341
29.3712 11.292 0.343
29.3917 11.375 0.344
29.4121 10.677 0.333
29.4326 10.125 0.325
29.4530 9.604 0.316
29.4735 8.979 0.306
29.4940 9.510 0.315
29.5144 8.958 0.305
29.5349 8.823 0.303
29.5554 8.958 0.305
29.5758 9.063 0.307
29.5963 9.198 0.310
29.6168 8.490 0.297
29.6372 8.083 0.290
29.6577 8.698 0.301
29.6781 8.844 0.304
29.6986 8.604 0.299
29.7191 8.885 0.304
29.7395 8.417 0.296
29.7600 8.938 0.305
29.7805 8.646 0.300
29.8009 8.500 0.298
29.8214 8.344 0.295
29.8418 8.729 0.302
29.8623 8.417 0.296
29.8828 8.323 0.294
29.9032 8.427 0.296
29.9237 8.677 0.301
29.9442 8.542 0.298
29.9646 8.344 0.295
29.9851 8.792 0.303
30.0055 8.729 0.302
30.0260 8.104 0.291
30.0465 7.906 0.287
30.0669 8.802 0.303
30.0874 8.490 0.297
30.1079 8.115 0.291
30.1283 8.271 0.294
30.1488 8.500 0.298
30.1692 8.469 0.297
30.1897 8.021 0.289
30.2102 8.281 0.294
30.2306 7.979 0.288
30.2511 7.885 0.287
30.2716 8.094 0.290
30.2920 8.365 0.295
30.3125 8.323 0.294
30.3329 8.365 0.295
30.3534 8.031 0.289
30.3739 8.823 0.303
30.3943 7.708 0.283
30.4148 8.688 0.301
30.4353 8.250 0.293
30.4557 8.406 0.296
30.4762 7.792 0.285
30.4967 7.771 0.285
30.5171 8.052 0.290
30.5376 7.990 0.288
30.5580 8.719 0.301
30.5785 8.198 0.292
30.5990 7.833 0.286
30.6194 8.156 0.291
30.6399 8.094 0.290
30.6604 8.042 0.289
30.6808 8.302 0.294
30.7013 8.427 0.296
30.7217 8.938 0.305
30.7422 8.281 0.294
30.7627 8.906 0.305
30.7831 8.563 0.299
30.8036 9.063 0.307
30.8241 9.271 0.311
30.8445 9.490 0.314
30.8650 9.865 0.321
30.8854 9.688 0.318
30.9059 11.146 0.341
30.9264 11.771 0.350
30.9468 13.167 0.370
30.9673 17.125 0.422
30.9878 24.344 0.504
31.0082 29.604 0.555
31.0287 33.167 0.588
31.0491 31.781 0.575
31.0696 28.875 0.548
31.0901 28.615 0.546
31.1105 25.490 0.515
31.1310 20.125 0.458
31.1515 16.698 0.417
31.1719 14.313 0.386
31.1924 12.802 0.365
31.2128 11.521 0.346
31.2333 10.771 0.335
31.2538 10.135 0.325
31.2742 9.917 0.321
31.2947 9.354 0.312
31.3152 10.500 0.331
31.3356 9.635 0.317
31.3561 9.458 0.314
31.3766 9.063 0.307
31.3970 9.281 0.311
31.4175 9.021 0.307
31.4379 8.990 0.306
31.4584 8.396 0.296
31.4789 8.010 0.289
31.4993 8.229 0.293
31.5198 8.219 0.293
31.5403 8.656 0.300
31.5607 8.854 0.304
31.5812 8.542 0.298
31.6016 7.792 0.285
31.6221 8.240 0.293
31.6426 8.594 0.299
31.6630 8.271 0.294
31.6835 8.667 0.300
31.7040 8.406 0.296
31.7244 7.896 0.287
31.7449 8.406 0.296
31.7653 8.260 0.293
31.7858 9.708 0.318
31.8063 9.219 0.310
31.8267 9.927 0.322
31.8472 9.510 0.315
31.8677 8.823 0.303
31.8881 9.438 0.314
31.9086 9.042 0.307
31.9290 8.927 0.305
31.9495 8.260 0.293
31.9700 8.760 0.302
31.9904 8.760 0.302
32.0109 8.958 0.305
32.0314 8.865 0.304
32.0518 9.021 0.307
32.0723 9.313 0.311
32.0927 10.177 0.326
32.1132 10.344 0.328
32.1337 10.323 0.328
32.1541 10.458 0.330
32.1746 11.802 0.351
32.1951 13.781 0.379
32.2155 12.865 0.366
32.2360 12.167 0.356
32.2565 11.958 0.353
32.2769 13.083 0.369
32.2974 13.240 0.371
32.3178 13.792 0.379
32.3383 15.042 0.396
32.3588 18.083 0.434
32.3792 22.260 0.482
32.3997 28.125 0.541
32.4202 32.885 0.585
32.4406 36.510 0.617
32.4611 36.458 0.616
32.4815 34.698 0.601
32.5020 33.688 0.592
32.5225 31.990 0.577
32.5429 29.240 0.552
32.5634 25.927 0.520
32.5839 23.542 0.495
32.6043 23.240 0.492
32.6248 23.083 0.490
32.6452 21.240 0.470
32.6657 18.031 0.433
32.6862 16.938 0.420
32.7066 16.250 0.411
32.7271 13.927 0.381
32.7476 12.563 0.362
32.7680 11.281 0.343
32.7885 10.063 0.324
32.8089 9.573 0.316
32.8294 9.708 0.318
32.8499 9.365 0.312
32.8703 9.010 0.306
32.8908 9.552 0.315
32.9113 9.021 0.307
32.9317 8.698 0.301
32.9522 8.531 0.298
32.9726 8.844 0.304
32.9931 9.354 0.312
33.0136 8.521 0.298
33.0340 8.625 0.300
33.0545 8.635 0.300
33.0750 8.729 0.302
33.0954 8.521 0.298
33.1159 8.333 0.295
33.1364 9.323 0.312
33.1568 10.677 0.333
33.1773 10.000 0.323
33.1977 9.271 0.311
33.2182 9.094 0.308
33.2387 9.302 0.311
33.2591 8.906 0.305
33.2796 8.781 0.302
33.3001 8.427 0.296
33.3205 8.594 0.299
33.3410 8.281 0.294
33.3614 8.698 0.301
33.3819 7.969 0.288
33.4024 8.052 0.290
33.4228 8.344 0.295
33.4433 8.302 0.294
33.4638 8.021 0.289
33.4842 7.865 0.286
33.5047 7.823 0.285
33.5251 7.563 0.281
33.5456 7.885 0.287
33.5661 8.031 0.289
33.5865 7.781 0.285
33.6070 7.198 0.274
33.6275 8.229 0.293
33.6479 8.083 0.290
33.6684 8.063 0.290
33.6888 7.885 0.287
33.7093 7.854 0.286
33.7298 7.875 0.286
33.7502 7.990 0.288
33.7707 8.052 0.290
33.7912 7.740 0.284
33.8116 7.719 0.284
33.8321 7.760 0.284
33.8526 7.948 0.288
33.8730 7.885 0.287
33.8935 7.594 0.281
33.9139 8.406 0.296
33.9344 7.792 0.285
33.9549 7.646 0.282
33.9753 8.104 0.291
33.9958 8.260 0.293
34.0163 8.500 0.298
34.0367 9.302 0.311
34.0572 9.073 0.307
34.0776 9.458 0.314
34.0981 9.510 0.315
34.1186 9.073 0.307
34.1390 9.917 0.321
34.1595 9.500 0.315
34.1800 9.969 0.322
34.2004 10.865 0.336
34.2209 11.500 0.346
34.2413 10.083 0.324
34.2618 9.250 0.310
34.2823 9.802 0.320
34.3027 9.448 0.314
34.3232 10.021 0.323
34.3437 8.490 0.297
34.3641 8.375 0.295
34.3846 8.313 0.294
34.4050 8.365 0.295
34.4255 7.906 0.287
34.4460 8.240 0.293
34.4664 7.990 0.288
34.4869 7.427 0.278
34.5074 7.656 0.282
34.5278 8.042 0.289
34.5483 7.479 0.279
34.5687 7.771 0.285
34.5892 7.781 0.285
34.6097 8.083 0.290
34.6301 7.594 0.281
34.6506 7.990 0.288
34.6711 7.719 0.284
34.6915 7.677 0.283
34.7120 8.135 0.291
34.7325 8.250 0.293
34.7529 7.979 0.288
34.7734 7.656 0.282
34.7938 8.219 0.293
34.8143 7.333 0.276
34.8348 7.740 0.284
34.8552 7.542 0.280
34.8757 7.917 0.287
34.8962 7.958 0.288
34.9166 8.552 0.298
34.9371 9.427 0.313
34.9575 8.823 0.303
34.9780 8.458 0.297
34.9985 8.271 0.294
35.0189 8.094 0.290
35.0394 8.188 0.292
35.0599 7.948 0.288
35.0803 8.240 0.293
35.1008 7.500 0.280
35.1212 8.104 0.291
35.1417 7.813 0.285
35.1622 7.469 0.279
35.1826 7.875 0.286
35.2031 7.802 0.285
35.2236 7.740 0.284
35.2440 7.885 0.287
35.2645 7.135 0.273
35.2849 8.354 0.295
35.3054 8.042 0.289
35.3259 7.490 0.279
35.3463 7.781 0.285
35.3668 8.042 0.289
35.3873 8.000 0.289
35.4077 7.938 0.288
35.4282 8.521 0.298
35.4486 8.813 0.303
35.4691 8.802 0.303
35.4896 9.135 0.308
35.5100 9.073 0.307
35.5305 9.938 0.322
35.5510 9.927 0.322
35.5714 11.271 0.343
35.5919 12.719 0.364
35.6124 13.729 0.378
35.6328 14.448 0.388
35.6533 13.969 0.381
35.6737 13.385 0.373
35.6942 12.656 0.363
35.7147 13.052 0.369
35.7351 13.052 0.369
35.7556 11.979 0.353
35.7761 11.167 0.341
35.7965 10.260 0.327
35.8170 9.917 0.321
35.8374 9.219 0.310
35.8579 8.823 0.303
35.8784 9.677 0.317
35.8988 9.271 0.311
35.9193 9.833 0.320
35.9398 9.958 0.322
35.9602 9.813 0.320
35.9807 10.104 0.324
36.0011 10.250 0.327
36.0216 10.271 0.327
36.0421 10.781 0.335
36.0625 11.219 0.342
36.0830 11.573 0.347
36.1035 12.292 0.358
36.1239 11.833 0.351
36.1444 13.156 0.370
36.1648 12.385 0.359
36.1853 12.656 0.363
36.2058 12.219 0.357
36.2262 11.219 0.342
36.2467 11.865 0.352
36.2672 11.302 0.343
36.2876 12.031 0.354
36.3081 11.083 0.340
36.3285 10.823 0.336
36.3490 11.719 0.349
36.3695 11.917 0.352
36.3899 11.396 0.345
36.4104 11.635 0.348
36.4309 11.635 0.348
36.4513 12.250 0.357
36.4718 12.948 0.367
36.4923 12.688 0.364
36.5127 13.010 0.368
36.5332 13.938 0.381
36.5536 15.417 0.401
36.5741 17.010 0.421
36.5946 19.271 0.448
36.6150 20.677 0.464
36.6355 18.354 0.437
36.6560 16.531 0.415
36.6764 17.302 0.425
36.6969 15.719 0.405
36.7173 15.906 0.407
36.7378 14.010 0.382
36.7583 12.625 0.363
36.7787 12.313 0.358
36.7992 12.302 0.358
36.8197 13.167 0.370
36.8401 13.260 0.372
36.8606 12.719 0.364
36.8810 13.740 0.378
36.9015 13.510 0.375
36.9220 15.031 0.396
36.9424 14.240 0.385
36.9629 15.594 0.403
36.9834 16.021 0.409
37.0038 18.427 0.438
37.0243 20.500 0.462
37.0447 23.563 0.495
37.0652 28.448 0.544
37.0857 31.229 0.570
37.1061 29.573 0.555
37.1266 26.208 0.522
37.1471 26.094 0.521
37.1675 25.271 0.513
37.1880 25.229 0.513
37.2084 21.438 0.473
37.2289 19.385 0.449
37.2494 17.708 0.429
37.2698 15.958 0.408
37.2903 13.823 0.379
37.3108 13.396 0.374
37.3312 12.438 0.360
37.3517 12.365 0.359
37.3722 11.417 0.345
37.3926 11.292 0.343
37.4131 11.510 0.346
37.4335 11.521 0.346
37.4540 11.031 0.339
37.4745 10.573 0.332
37.4949 11.594 0.348
37.5154 11.510 0.346
37.5359 11.031 0.339
37.5563 11.823 0.351
37.5768 11.198 0.342
37.5972 10.948 0.338
37.6177 11.240 0.342
37.6382 10.656 0.333
37.6586 10.677 0.333
37.6791 10.792 0.335
37.6996 10.760 0.335
37.7200 10.844 0.336
37.7405 10.990 0.338
37.7609 10.927 0.337
37.7814 10.729 0.334
37.8019 10.646 0.333
37.8223 10.448 0.330
37.8428 10.250 0.327
37.8633 10.896 0.337
37.8837 10.760 0.335
37.9042 11.333 0.344
37.9246 11.458 0.345
37.9451 11.781 0.350
37.9656 12.510 0.361
37.9860 13.177 0.370
38.0065 14.563 0.389
38.0270 15.833 0.406
38.0474 14.958 0.395
38.0679 14.510 0.389
38.0884 13.844 0.380
38.1088 14.156 0.384
38.1293 14.125 0.384
38.1497 13.094 0.369
38.1702 12.302 0.358
38.1907 11.917 0.352
38.2111 11.563 0.347
38.2316 12.052 0.354
38.2521 12.146 0.356
38.2725 11.542 0.347
38.2930 11.750 0.350
38.3134 11.240 0.342
38.3339 11.500 0.346
38.3544 11.021 0.339
38.3748 11.219 0.342
38.3953 11.292 0.343
38.4158 11.854 0.351
38.4362 12.917 0.367
38.4567 13.417 0.374
38.4771 13.188 0.371
38.4976 13.365 0.373
38.5181 12.333 0.358
38.5385 12.948 0.367
38.5590 12.208 0.357
38.5795 11.604 0.348
38.5999 10.625 0.333
38.6204 10.594 0.332
38.6408 11.177 0.341
38.6613 10.021 0.323
38.6818 10.708 0.334
38.7022 10.406 0.329
38.7227 10.302 0.328
38.7432 9.854 0.320
38.7636 9.875 0.321
38.7841 9.708 0.318
38.8045 9.198 0.310
38.8250 9.802 0.320
38.8455 9.740 0.319
38.8659 9.365 0.312
38.8864 8.969 0.306
38.9069 9.313 0.311
38.9273 9.521 0.315
38.9478 9.094 0.308
38.9683 9.115 0.308
38.9887 9.813 0.320
39.0092 9.083 0.308
39.0296 8.969 0.306
39.0501 8.979 0.306
39.0706 9.969 0.322
39.0910 9.208 0.310
39.1115 9.146 0.309
39.1320 9.250 0.310
39.1524 9.063 0.307
39.1729 8.844 0.304
39.1933 9.010 0.306
39.2138 8.448 0.297
39.2343 9.000 0.306
39.2547 9.208 0.310
39.2752 9.375 0.313
39.2957 9.083 0.308
39.3161 8.667 0.300
39.3366 9.292 0.311
39.3570 9.281 0.311
39.3775 9.604 0.316
39.3980 9.740 0.319
39.4184 9.740 0.319
39.4389 9.500 0.315
39.4594 9.042 0.307
39.4798 9.781 0.319
39.5003 9.521 0.315
39.5207 9.844 0.320
39.5412 9.031 0.307
39.5617 9.156 0.309
39.5821 9.396 0.313
39.6026 9.698 0.318
39.6231 9.552 0.315
39.6435 9.802 0.320
39.6640 10.344 0.328
39.6844 10.323 0.328
39.7049 10.750 0.335
39.7254 11.708 0.349
39.7458 11.760 0.350
39.7663 12.240 0.357
39.7868 12.979 0.368
39.8072 13.885 0.380
39.8277 12.625 0.363
39.8482 12.844 0.366
39.8686 13.240 0.371
39.8891 13.833 0.380
39.9095 15.156 0.397
39.9300 16.885 0.419
39.9505 19.510 0.451
39.9709 22.344 0.482
39.9914 23.833 0.498
40.0119 24.802 0.508
40.0323 24.063 0.501
40.0528 23.583 0.496
40.0732 22.198 0.481
40.0937 21.417 0.472
40.1142 20.438 0.461
40.1346 18.094 0.434
40.1551 16.656 0.417
40.1756 15.615 0.403
40.1960 14.323 0.386
40.2165 14.479 0.388
40.2369 15.438 0.401
40.2574 17.229 0.424
40.2779 19.271 0.448
40.2983 16.740 0.418
40.3188 15.479 0.402
40.3393 16.625 0.416
40.3597 20.146 0.458
40.3802 18.615 0.440
40.4006 15.260 0.399
40.4211 13.260 0.372
40.4416 13.417 0.374
40.4620 14.073 0.383
40.4825 13.302 0.372
40.5030 11.667 0.349
40.5234 11.552 0.347
40.5439 11.750 0.350
40.5643 10.646 0.333
40.5848 11.010 0.339
40.6053 10.302 0.328
40.6257 10.458 0.330
40.6462 10.667 0.333
40.6667 10.750 0.335
40.6871 10.260 0.327
40.7076 9.917 0.321
40.7281 9.823 0.320
40.7485 9.906 0.321
40.7690 10.552 0.332
40.7894 10.354 0.328
40.8099 10.292 0.327
40.8304 9.979 0.322
40.8508 8.708 0.301
40.8713 9.104 0.308
40.8918 9.448 0.314
40.9122 9.021 0.307
40.9327 8.969 0.306
40.9531 8.833 0.303
40.9736 8.531 0.298
40.9941 8.708 0.301
41.0145 8.990 0.306
41.0350 9.500 0.315
41.0555 8.750 0.302
41.0759 10.219 0.326
41.0964 10.302 0.328
41.1168 11.750 0.350
41.1373 11.635 0.348
41.1578 11.198 0.342
41.1782 10.979 0.338
41.1987 9.927 0.322
41.2192 11.177 0.341
41.2396 11.219 0.342
41.2601 11.427 0.345
41.2805 10.667 0.333
41.3010 10.031 0.323
41.3215 9.073 0.307
41.3419 9.885 0.321
41.3624 9.146 0.309
41.3829 9.688 0.318
41.4033 8.615 0.300
41.4238 8.292 0.294
41.4442 8.625 0.300
41.4647 8.844 0.304
41.4852 8.156 0.291
41.5056 8.615 0.300
41.5261 7.990 0.288
41.5466 7.833 0.286
41.5670 8.021 0.289
41.5875 7.573 0.281
41.6080 7.865 0.286
41.6284 7.990 0.288
41.6489 8.240 0.293
41.6693 7.313 0.276
41.6898 7.281 0.275
41.7103 7.500 0.280
41.7307 7.313 0.276
41.7512 7.375 0.277
41.7717 7.458 0.279
41.7921 7.833 0.286
41.8126 8.104 0.291
41.8330 7.677 0.283
41.8535 8.104 0.291
41.8740 8.344 0.295
41.8944 7.771 0.285
41.9149 8.021 0.289
41.9354 7.792 0.285
41.9558 8.115 0.291
41.9763 7.813 0.285
41.9967 7.604 0.281
42.0172 7.875 0.286
42.0377 7.750 0.284
42.0581 7.667 0.283
42.0786 7.031 0.271
42.0991 7.302 0.276
42.1195 7.333 0.276
42.1400 7.292 0.276
42.1604 7.104 0.272
42.1809 7.552 0.280
42.2014 7.406 0.278
42.2218 7.604 0.281
42.2423 7.563 0.281
42.2628 7.927 0.287
42.2832 7.271 0.275
42.3037 7.594 0.281
42.3242 8.177 0.292
42.3446 8.135 0.291
42.3651 8.156 0.291
42.3855 8.125 0.291
42.4060 7.698 0.283
42.4265 8.021 0.289
42.4469 8.146 0.291
42.4674 8.281 0.294
42.4879 7.948 0.288
42.5083 8.510 0.298
42.5288 9.042 0.307
42.5492 8.667 0.300
42.5697 8.229 0.293
42.5902 8.083 0.290
42.6106 8.208 0.292
42.6311 8.260 0.293
42.6516 8.250 0.293
42.6720 8.573 0.299
42.6925 7.698 0.283
42.7129 8.156 0.291
42.7334 8.146 0.291
42.7539 8.375 0.295
42.7743 8.656 0.300
42.7948 8.552 0.298
42.8153 7.917 0.287
42.8357 7.865 0.286
42.8562 8.396 0.296
42.8766 7.729 0.284
42.8971 8.479 0.297
42.9176 7.969 0.288
42.9380 7.521 0.280
42.9585 8.104 0.291
42.9790 7.750 0.284
42.9994 8.521 0.298
43.0199 7.844 0.286
43.0403 7.760 0.284
43.0608 7.490 0.279
43.0813 7.958 0.288
43.1017 7.656 0.282
43.1222 8.146 0.291
43.1427 8.135 0.291
43.1631 8.167 0.292
43.1836 8.854 0.304
43.2041 8.438 0.296
43.2245 9.198 0.310
43.2450 8.927 0.305
43.2654 8.781 0.302
43.2859 9.135 0.308
43.3064 9.031 0.307
43.3268 9.219 0.310
43.3473 9.604 0.316
43.3678 9.865 0.321
43.3882 9.552 0.315
43.4087 9.146 0.309
43.4291 9.000 0.306
43.4496 9.240 0.310
43.4701 9.698 0.318
43.4905 10.333 0.328
43.5110 10.927 0.337
43.5315 10.990 0.338
43.5519 11.594 0.348
43.5724 12.844 0.366
43.5928 14.240 0.385
43.6133 15.469 0.401
43.6338 16.344 0.413
43.6542 15.708 0.405
43.6747 14.656 0.391
43.6952 12.813 0.365
43.7156 12.531 0.361
43.7361 12.844 0.366
43.7565 12.073 0.355
43.7770 11.635 0.348
43.7975 10.698 0.334
43.8179 9.656 0.317
43.8384 9.021 0.307
43.8589 8.719 0.301
43.8793 8.802 0.303
43.8998 8.885 0.304
43.9202 8.500 0.298
43.9407 8.302 0.294
43.9612 8.000 0.289
43.9816 7.458 0.279
44.0021 8.385 0.296
44.0226 7.990 0.288
44.0430 8.219 0.293
44.0635 7.198 0.274
44.0840 7.792 0.285
44.1044 7.583 0.281
44.1249 7.385 0.277
44.1453 7.802 0.285
44.1658 7.479 0.279
44.1863 7.552 0.280
44.2067 7.594 0.281
44.2272 7.406 0.278
44.2477 7.333 0.276
44.2681 7.563 0.281
44.2886 7.135 0.273
44.3090 7.615 0.282
44.3295 7.292 0.276
44.3500 7.313 0.276
44.3704 7.531 0.280
44.3909 7.438 0.278
44.4114 7.073 0.271
44.4318 7.927 0.287
44.4523 7.385 0.277
44.4727 7.740 0.284
44.4932 7.260 0.275
44.5137 7.313 0.276
44.5341 8.094 0.290
44.5546 7.708 0.283
44.5751 7.573 0.281
44.5955 7.698 0.283
44.6160 7.510 0.280
44.6364 7.573 0.281
44.6569 7.771 0.285
44.6774 7.750 0.284
44.6978 7.188 0.274
44.7183 7.854 0.286
44.7388 8.354 0.295
44.7592 8.229 0.293
44.7797 8.313 0.294
44.8001 8.458 0.297
44.8206 8.313 0.294
44.8411 9.031 0.307
44.8615 8.708 0.301
44.8820 9.333 0.312
44.9025 9.656 0.317
44.9229 8.865 0.304
44.9434 9.469 0.314
44.9639 9.740 0.319
44.9843 9.667 0.317
45.0048 9.313 0.311
45.0252 9.260 0.311
45.0457 9.708 0.318
45.0662 9.333 0.312
45.0866 9.177 0.309
45.1071 9.865 0.321
45.1276 10.552 0.332
45.1480 10.938 0.338
45.1685 12.229 0.357
45.1889 14.313 0.386
45.2094 16.469 0.414
45.2299 19.188 0.447
45.2503 22.635 0.486
45.2708 22.990 0.489
45.2913 23.479 0.495
45.3117 21.708 0.476
45.3322 20.573 0.463
45.3526 21.000 0.468
45.3731 19.854 0.455
45.3936 19.188 0.447
45.4140 17.448 0.426
45.4345 15.646 0.404
45.4550 13.708 0.378
45.4754 13.167 0.370
45.4959 11.969 0.353
45.5163 11.260 0.342
45.5368 10.323 0.328
45.5573 10.052 0.324
45.5777 9.625 0.317
45.5982 8.990 0.306
45.6187 8.250 0.293
45.6391 8.260 0.293
45.6596 7.875 0.286
45.6800 8.198 0.292
45.7005 7.844 0.286
45.7210 7.823 0.285
45.7414 7.333 0.276
45.7619 7.479 0.279
45.7824 7.823 0.285
45.8028 7.875 0.286
45.8233 7.875 0.286
45.8438 7.323 0.276
45.8642 7.500 0.280
45.8847 7.792 0.285
45.9051 7.438 0.278
45.9256 7.698 0.283
45.9461 7.146 0.273
45.9665 6.917 0.268
45.9870 7.719 0.284
46.0075 7.448 0.279
46.0279 7.281 0.275
46.0484 7.417 0.278
46.0688 7.198 0.274
46.0893 7.146 0.273
46.1098 7.010 0.270
46.1302 7.115 0.272
46.1507 7.042 0.271
46.1712 7.302 0.276
46.1916 7.021 0.270
46.2121 7.427 0.278
46.2325 6.802 0.266
46.2530 7.427 0.278
46.2735 7.094 0.272
46.2939 7.104 0.272
46.3144 6.865 0.267
46.3349 6.917 0.268
46.3553 7.021 0.270
46.3758 7.302 0.276
46.3962 7.281 0.275
46.4167 7.198 0.274
46.4372 7.135 0.273
46.4576 7.927 0.287
46.4781 8.010 0.289
46.4986 7.708 0.283
46.5190 7.563 0.281
46.5395 8.344 0.295
46.5600 8.375 0.295
46.5804 9.906 0.321
46.6009 11.292 0.343
46.6213 15.729 0.405
46.6418 17.604 0.428
46.6623 12.250 0.357
46.6827 9.406 0.313
46.7032 9.250 0.310
46.7237 9.833 0.320
46.7441 11.771 0.350
46.7646 11.760 0.350
46.7850 9.156 0.309
46.8055 8.375 0.295
46.8260 8.313 0.294
46.8464 7.542 0.280
46.8669 6.938 0.269
46.8874 6.990 0.270
46.9078 6.531 0.261
46.9283 7.000 0.270
46.9487 7.042 0.271
46.9692 6.906 0.268
46.9897 6.625 0.263
47.0101 6.896 0.268
47.0306 6.854 0.267
47.0511 6.917 0.268
47.0715 7.354 0.277
47.0920 7.042 0.271
47.1124 7.073 0.271
47.1329 7.240 0.275
47.1534 7.083 0.272
47.1738 7.146 0.273
47.1943 6.948 0.269
47.2148 6.979 0.270
47.2352 7.740 0.284
47.2557 7.292 0.276
47.2761 6.948 0.269
47.2966 7.438 0.278
47.3171 7.417 0.278
47.3375 7.625 0.282
47.3580 6.969 0.269
47.3785 7.417 0.278
47.3989 7.135 0.273
47.4194 7.302 0.276
47.4399 7.667 0.283
47.4603 7.740 0.284
47.4808 8.021 0.289
47.5012 7.865 0.286
47.5217 8.167 0.292
47.5422 8.229 0.293
47.5626 9.719 0.318
47.5831 10.823 0.336
47.6036 11.219 0.342
47.6240 10.469 0.330
47.6445 9.615 0.316
47.6649 9.469 0.314
47.6854 9.760 0.319
47.7059 9.875 0.321
47.7263 9.823 0.320
47.7468 10.625 0.333
47.7673 8.479 0.297
47.7877 8.833 0.303
47.8082 8.854 0.304
47.8286 8.385 0.296
47.8491 8.354 0.295
47.8696 8.604 0.299
47.8900 7.979 0.288
47.9105 8.094 0.290
47.9310 7.635 0.282
47.9514 7.677 0.283
47.9719 7.969 0.288
47.9923 8.521 0.298
48.0128 7.375 0.277
48.0333 7.146 0.273
48.0537 8.010 0.289
48.0742 7.844 0.286
48.0947 7.635 0.282
48.1151 7.521 0.280
48.1356 7.521 0.280
48.1560 7.625 0.282
48.1765 7.927 0.287
48.1970 8.063 0.290
48.2174 7.417 0.278
48.2379 8.510 0.298
48.2584 7.719 0.284
48.2788 7.667 0.283
48.2993 7.969 0.288
48.3198 8.260 0.293
48.3402 8.667 0.300
48.3607 8.188 0.292
48.3811 8.417 0.296
48.4016 9.010 0.306
48.4221 8.396 0.296
48.4425 8.094 0.290
48.4630 8.552 0.298
48.4835 8.104 0.291
48.5039 8.229 0.293
48.5244 8.219 0.293
48.5448 7.990 0.288
48.5653 7.969 0.288
48.5858 8.094 0.290
48.6062 7.760 0.284
48.6267 7.615 0.282
48.6472 8.365 0.295
48.6676 8.271 0.294
48.6881 9.000 0.306
48.7085 8.615 0.300
48.7290 8.490 0.297
48.7495 8.156 0.291
48.7699 8.031 0.289
48.7904 8.031 0.289
48.8109 8.469 0.297
48.8313 8.385 0.296
48.8518 8.729 0.302
48.8722 8.542 0.298
48.8927 8.125 0.291
48.9132 8.094 0.290
48.9336 8.198 0.292
48.9541 8.135 0.291
48.9746 7.917 0.287
48.9950 8.375 0.295
49.0155 7.573 0.281
49.0359 8.750 0.302
49.0564 8.365 0.295
49.0769 8.958 0.305
49.0973 8.146 0.291
49.1178 8.500 0.298
49.1383 8.688 0.301
49.1587 8.208 0.292
49.1792 8.323 0.294
49.1997 8.635 0.300
49.2201 9.031 0.307
49.2406 8.573 0.299
49.2610 8.750 0.302
49.2815 8.458 0.297
49.3020 8.396 0.296
49.3224 8.802 0.303
49.3429 9.344 0.312
49.3634 9.813 0.320
49.3838 7.990 0.288
49.4043 8.479 0.297
49.4247 8.604 0.299
49.4452 8.604 0.299
49.4657 9.260 0.311
49.4861 8.771 0.302
49.5066 8.490 0.297
49.5271 7.979 0.288
49.5475 8.094 0.290
49.5680 7.938 0.288
49.5884 7.979 0.288
49.6089 8.229 0.293
49.6294 8.219 0.293
49.6498 7.917 0.287
49.6703 8.625 0.300
49.6908 8.250 0.293
49.7112 9.031 0.307
49.7317 8.646 0.300
49.7521 9.594 0.316
49.7726 9.521 0.315
49.7931 10.000 0.323
49.8135 11.990 0.353
49.8340 12.344 0.359
49.8545 12.698 0.364
49.8749 12.302 0.358
49.8954 11.833 0.351
49.9158 11.073 0.340
49.9363 10.490 0.331
49.9568 11.271 0.343
49.9772 10.094 0.324
49.9977 10.021 0.323
50.0182 9.896 0.321
50.0386 9.698 0.318
50.0591 8.552 0.298
50.0796 8.719 0.301
50.1000 8.677 0.301
50.1205 8.594 0.299
50.1409 8.344 0.295
50.1614 9.177 0.309
50.1819 9.104 0.308
50.2023 8.563 0.299
50.2228 8.917 0.305
50.2433 8.677 0.301
50.2637 8.927 0.305
50.2842 8.458 0.297
50.3046 8.281 0.294
50.3251 8.646 0.300
50.3456 8.354 0.295
50.3660 7.656 0.282
50.3865 7.500 0.280
50.4070 7.656 0.282
50.4274 7.083 0.272
50.4479 7.375 0.277
50.4683 7.458 0.279
50.4888 6.781 0.266
50.5093 7.250 0.275
50.5297 7.281 0.275
50.5502 7.260 0.275
50.5707 7.010 0.270
50.5911 6.927 0.269
50.6116 7.323 0.276
50.6320 6.958 0.269
50.6525 6.646 0.263
50.6730 6.896 0.268
50.6934 6.969 0.269
50.7139 6.823 0.267
50.7344 7.042 0.271
50.7548 7.281 0.275
50.7753 7.365 0.277
50.7958 7.458 0.279
50.8162 6.698 0.264
50.8367 6.854 0.267
50.8571 7.458 0.279
50.8776 7.677 0.283
50.8981 7.750 0.284
50.9185 7.729 0.284
50.9390 9.104 0.308
50.9595 9.698 0.318
50.9799 10.469 0.330
51.0004 10.010 0.323
51.0208 7.990 0.288
51.0413 8.719 0.301
51.0618 7.521 0.280
51.0822 8.458 0.297
51.1027 8.781 0.302
51.1232 9.271 0.311
51.1436 8.490 0.297
51.1641 8.063 0.290
51.1845 8.281 0.294
51.2050 9.021 0.307
51.2255 8.698 0.301
51.2459 9.500 0.315
51.2664 8.875 0.304
51.2869 9.729 0.318
51.3073 9.594 0.316
51.3278 9.844 0.320
51.3482 9.042 0.307
51.3687 9.281 0.311
51.3892 8.917 0.305
51.4096 9.604 0.316
51.4301 8.052 0.290
51.4506 8.448 0.297
51.4710 7.885 0.287
51.4915 7.719 0.284
51.5119 6.865 0.267
51.5324 7.208 0.274
51.5529 7.521 0.280
51.5733 7.240 0.275
51.5938 7.406 0.278
51.6143 7.427 0.278
51.6347 8.010 0.289
51.6552 7.885 0.287
51.6757 7.573 0.281
51.6961 7.552 0.280
51.7166 7.677 0.283
51.7370 7.000 0.270
51.7575 7.198 0.274
51.7780 6.906 0.268
51.7984 7.094 0.272
51.8189 7.292 0.276
51.8394 7.031 0.271
51.8598 7.240 0.275
51.8803 6.802 0.266
51.9007 6.719 0.265
51.9212 6.979 0.270
51.9417 6.844 0.267
51.9621 6.656 0.263
51.9826 6.583 0.262
52.0031 6.375 0.258
52.0235 6.333 0.257
52.0440 6.177 0.254
52.0644 6.646 0.263
52.0849 6.927 0.269
52.1054 6.510 0.260
52.1258 6.594 0.262
52.1463 6.438 0.259
52.1668 6.427 0.259
52.1872 6.615 0.262
52.2077 6.219 0.255
52.2281 6.750 0.265
52.2486 6.688 0.264
52.2691 6.823 0.267
52.2895 7.344 0.277
52.3100 7.521 0.280
52.3305 6.979 0.270
52.3509 6.688 0.264
52.3714 7.177 0.273
52.3918 7.135 0.273
52.4123 7.031 0.271
52.4328 6.948 0.269
52.4532 7.083 0.272
52.4737 6.719 0.265
52.4942 6.698 0.264
52.5146 6.458 0.259
52.5351 6.865 0.267
52.5556 6.604 0.262
52.5760 6.458 0.259
52.5965 6.448 0.259
52.6169 6.125 0.253
52.6374 6.333 0.257
52.6579 6.448 0.259
52.6783 6.083 0.252
52.6988 6.563 0.261
52.7193 5.854 0.247
52.7397 6.563 0.261
52.7602 6.125 0.253
52.7806 6.323 0.257
52.8011 6.344 0.257
52.8216 5.979 0.250
52.8420 6.885 0.268
52.8625 6.885 0.268
52.8830 6.563 0.261
52.9034 6.208 0.254
52.9239 6.396 0.258
52.9443 6.875 0.268
52.9648 6.573 0.262
52.9853 6.917 0.268
53.0057 6.656 0.263
53.0262 7.083 0.272
53.0467 7.115 0.272
53.0671 6.906 0.268
53.0876 7.115 0.272
53.1080 7.042 0.271
53.1285 7.385 0.277
53.1490 6.990 0.270
53.1694 7.156 0.273
53.1899 7.188 0.274
53.2104 7.365 0.277
53.2308 7.177 0.273
53.2513 7.177 0.273
53.2717 7.521 0.280
53.2922 7.479 0.279
53.3127 7.323 0.276
53.3331 7.198 0.274
53.3536 7.250 0.275
53.3741 8.031 0.289
53.3945 8.177 0.292
53.4150 7.573 0.281
53.4355 9.073 0.307
53.4559 9.313 0.311
53.4764 10.365 0.329
53.4968 11.094 0.340
53.5173 11.531 0.347
53.5378 11.875 0.352
53.5582 12.021 0.354
53.5787 11.115 0.340
53.5992 11.229 0.342
53.6196 11.115 0.340
53.6401 10.938 0.338
53.6605 10.927 0.337
53.6810 10.521 0.331
53.7015 9.396 0.313
53.7219 9.333 0.312
53.7424 8.552 0.298
53.7629 8.542 0.298
53.7833 7.458 0.279
53.8038 7.406 0.278
53.8242 7.531 0.280
53.8447 6.969 0.269
53.8652 7.073 0.271
53.8856 7.042 0.271
53.9061 7.396 0.278
53.9266 6.323 0.257
53.9470 6.375 0.258
53.9675 6.323 0.257
53.9879 6.302 0.256
54.0084 6.208 0.254
54.0289 6.042 0.251
54.0493 5.885 0.248
54.0698 6.500 0.260
54.0903 6.448 0.259
54.1107 6.208 0.254
54.1312 6.740 0.265
54.1516 6.479 0.260
54.1721 6.292 0.256
54.1926 6.177 0.254
54.2130 6.396 0.258
54.2335 6.271 0.256
54.2540 6.531 0.261
54.2744 6.469 0.260
54.2949 6.479 0.260
54.3154 5.990 0.250
54.3358 6.281 0.256
54.3563 6.417 0.259
54.3767 6.427 0.259
54.3972 6.698 0.264
54.4177 6.063 0.251
54.4381 6.552 0.261
54.4586 6.781 0.266
54.4791 6.406 0.258
54.4995 6.906 0.268
54.5200 7.427 0.278
54.5404 7.281 0.275
54.5609 7.469 0.279
54.5814 7.365 0.277
54.6018 8.406 0.296
54.6223 8.240 0.293
54.6428 8.042 0.289
54.6632 7.708 0.283
54.6837 7.740 0.284
54.7041 8.219 0.293
54.7246 7.427 0.278
54.7451 7.510 0.280
54.7655 7.344 0.277
54.7860 7.490 0.279
54.8065 7.542 0.280
54.8269 7.219 0.274
54.8474 7.542 0.280
54.8678 7.344 0.277
54.8883 6.906 0.268
54.9088 7.125 0.272
54.9292 6.813 0.266
54.9497 7.094 0.272
54.9702 7.042 0.271
54.9906 7.146 0.273
55.0111 7.042 0.271
55.0316 7.823 0.285
55.0520 7.688 0.283
55.0725 8.208 0.292
55.0929 8.500 0.298
55.1134 9.833 0.320
55.1339 10.198 0.326
55.1543 11.406 0.345
55.1748 11.646 0.348
55.1953 12.063 0.354
55.2157 11.938 0.353
55.2362 11.146 0.341
55.2566 10.542 0.331
55.2771 11.104 0.340
55.2976 10.604 0.332
55.3180 10.438 0.330
55.3385 11.031 0.339
55.3590 9.240 0.310
55.3794 8.990 0.306
55.3999 9.219 0.310
55.4203 8.677 0.301
55.4408 8.333 0.295
55.4613 8.240 0.293
55.4817 7.750 0.284
55.5022 8.031 0.289
55.5227 8.719 0.301
55.5431 8.375 0.295
55.5636 8.333 0.295
55.5840 8.490 0.297
55.6045 9.760 0.319
55.6250 10.208 0.326
55.6454 11.740 0.350
55.6659 12.813 0.365
55.6864 14.021 0.382
55.7068 14.917 0.394
55.7273 15.563 0.403
55.7477 14.250 0.385
55.7682 14.438 0.388
55.7887 13.531 0.375
55.8091 13.719 0.378
55.8296 13.510 0.375
55.8501 14.115 0.383
55.8705 13.073 0.369
55.8910 12.635 0.363
55.9115 11.000 0.339
55.9319 11.438 0.345
55.9524 10.708 0.334
55.9728 9.729 0.318
55.9933 9.042 0.307
56.0138 8.750 0.302
56.0342 9.031 0.307
56.0547 8.469 0.297
56.0752 8.344 0.295
56.0956 8.688 0.301
56.1161 8.115 0.291
56.1365 9.302 0.311
56.1570 9.354 0.312
56.1775 9.688 0.318
56.1979 10.385 0.329
56.2184 9.792 0.319
56.2389 9.656 0.317
56.2593 8.802 0.303
56.2798 8.333 0.295
56.3002 7.802 0.285
56.3207 8.354 0.295
56.3412 8.417 0.296
56.3616 8.396 0.296
56.3821 7.927 0.287
56.4026 7.448 0.279
56.4230 6.771 0.266
56.4435 6.615 0.262
56.4639 6.917 0.268
56.4844 6.031 0.251
56.5049 6.521 0.261
56.5253 6.177 0.254
56.5458 6.573 0.262
56.5663 6.083 0.252
56.5867 5.677 0.243
56.6072 6.104 0.252
56.6276 6.292 0.256
56.6481 6.542 0.261
56.6686 8.052 0.290
56.6890 10.865 0.336
56.7095 14.677 0.391
56.7300 12.094 0.355
56.7504 8.198 0.292
56.7709 7.115 0.272
56.7914 6.479 0.260
56.8118 6.854 0.267
56.8323 7.250 0.275
56.8527 9.406 0.313
56.8732 9.969 0.322
56.8937 7.490 0.279
56.9141 6.635 0.263
56.9346 5.969 0.249
56.9551 5.885 0.248
56.9755 5.906 0.248
56.9960 5.792 0.246
57.0164 5.594 0.241
57.0369 5.156 0.232
57.0574 6.042 0.251
57.0778 5.542 0.240
57.0983 5.229 0.233
57.1188 5.052 0.229
57.1392 5.573 0.241
57.1597 5.313 0.235
57.1801 5.583 0.241
57.2006 5.615 0.242
57.2211 5.583 0.241
57.2415 5.469 0.239
57.2620 5.979 0.250
57.2825 5.677 0.243
57.3029 5.875 0.247
57.3234 5.375 0.237
57.3438 5.729 0.244
57.3643 5.354 0.236
57.3848 5.896 0.248
57.4052 5.604 0.242
57.4257 5.698 0.244
57.4462 5.833 0.247
57.4666 6.063 0.251
57.4871 5.927 0.248
57.5075 6.271 0.256
57.5280 6.667 0.264
57.5485 7.104 0.272
57.5689 6.469 0.260
57.5894 6.271 0.256
57.6099 5.615 0.242
57.6303 5.604 0.242
57.6508 6.073 0.252
57.6713 6.302 0.256
57.6917 6.313 0.256
57.7122 6.229 0.255
57.7326 6.115 0.252
57.7531 6.135 0.253
57.7736 6.385 0.258
57.7940 6.469 0.260
57.8145 6.625 0.263
57.8350 6.885 0.268
57.8554 7.208 0.274
57.8759 7.135 0.273
57.8963 7.510 0.280
57.9168 7.583 0.281
57.9373 7.604 0.281
57.9577 7.135 0.273
57.9782 6.896 0.268
57.9987 6.990 0.270
58.0191 6.979 0.270
58.0396 7.073 0.271
58.0600 6.865 0.267
58.0805 6.917 0.268
58.1010 6.656 0.263
58.1214 6.573 0.262
58.1419 6.073 0.252
58.1624 5.875 0.247
58.1828 6.719 0.265
58.2033 6.188 0.254
58.2237 6.042 0.251
58.2442 5.490 0.239
58.2647 5.771 0.245
58.2851 5.760 0.245
58.3056 6.281 0.256
58.3261 6.260 0.255
58.3465 5.646 0.243
58.3670 5.542 0.240
58.3874 5.958 0.249
58.4079 5.750 0.245
58.4284 6.104 0.252
58.4488 6.104 0.252
58.4693 5.740 0.245
58.4898 5.969 0.249
58.5102 6.063 0.251
58.5307 5.490 0.239
58.5512 5.969 0.249
58.5716 5.938 0.249
58.5921 5.677 0.243
58.6125 6.073 0.252
58.6330 6.292 0.256
58.6535 6.031 0.251
58.6739 6.125 0.253
58.6944 6.104 0.252
58.7149 6.219 0.255
58.7353 6.115 0.252
58.7558 6.198 0.254
58.7762 6.031 0.251
58.7967 6.083 0.252
58.8172 6.229 0.255
58.8376 6.646 0.263
58.8581 6.646 0.263
58.8786 6.979 0.270
58.8990 6.740 0.265
58.9195 7.031 0.271
58.9399 6.917 0.268
58.9604 6.885 0.268
58.9809 6.542 0.261
59.0013 6.479 0.260
59.0218 6.844 0.267
59.0423 7.083 0.272
59.0627 7.156 0.273
59.0832 7.156 0.273
59.1036 7.063 0.271
59.1241 7.469 0.279
59.1446 6.927 0.269
59.1650 7.438 0.278
59.1855 7.760 0.284
59.2060 7.708 0.283
59.2264 7.448 0.279
59.2469 7.271 0.275
59.2674 7.167 0.273
59.2878 6.510 0.260
59.3083 6.229 0.255
59.3287 6.604 0.262
59.3492 6.635 0.263
59.3697 6.615 0.262
59.3901 6.729 0.265
59.4106 6.333 0.257
59.4311 5.771 0.245
59.4515 6.021 0.250
59.4720 5.292 0.235
59.4924 5.750 0.245
59.5129 5.885 0.248
59.5334 5.823 0.246
59.5538 5.740 0.245
59.5743 6.010 0.250
59.5948 6.000 0.250
59.6152 5.708 0.244
59.6357 5.979 0.250
59.6561 5.688 0.243
59.6766 6.052 0.251
59.6971 5.844 0.247
59.7175 6.000 0.250
59.7380 5.583 0.241
59.7585 6.240 0.255
59.7789 5.969 0.249
59.7994 6.646 0.263
59.8198 7.188 0.274
59.8403 7.156 0.273
59.8608 7.938 0.288
59.8812 8.240 0.293
59.9017 8.802 0.303
59.9222 8.073 0.290
59.9426 8.344 0.295
59.9631 7.781 0.285
59.9835 7.177 0.273
60.0040 7.573 0.281
60.0245 7.667 0.283
60.0449 7.927 0.287
60.0654 7.625 0.282
60.0859 7.479 0.279
60.1063 7.490 0.279
60.1268 7.135 0.273
60.1473 6.667 0.264
60.1677 6.813 0.266
60.1882 6.438 0.259
60.2086 6.021 0.250
60.2291 6.000 0.250
60.2496 5.781 0.245
60.2700 5.500 0.239
60.2905 5.938 0.249
60.3110 5.521 0.240
60.3314 5.490 0.239
60.3519 5.302 0.235
60.3723 5.865 0.247
60.3928 5.406 0.237
60.4133 5.396 0.237
60.4337 5.198 0.233
60.4542 5.167 0.232
60.4747 5.865 0.247
60.4951 4.958 0.227
60.5156 5.240 0.234
60.5360 5.240 0.234
60.5565 5.385 0.237
60.5770 5.219 0.233
60.5974 5.552 0.240
60.6179 5.135 0.231
60.6384 5.729 0.244
60.6588 5.635 0.242
60.6793 5.208 0.233
60.6997 5.333 0.236
60.7202 5.833 0.247
60.7407 5.406 0.237
60.7611 5.104 0.231
60.7816 5.750 0.245
60.8021 5.563 0.241
60.8225 5.396 0.237
60.8430 5.458 0.238
60.8634 5.698 0.244
60.8839 5.750 0.245
60.9044 5.302 0.235
60.9248 5.938 0.249
60.9453 5.198 0.233
60.9658 5.500 0.239
60.9862 5.604 0.242
61.0067 5.365 0.236
61.0272 5.198 0.233
61.0476 5.406 0.237
61.0681 5.563 0.241
61.0885 5.521 0.240
61.1090 5.573 0.241
61.1295 5.323 0.235
61.1499 5.469 0.239
61.1704 5.167 0.232
61.1909 4.990 0.228
61.2113 4.958 0.227
61.2318 5.323 0.235
61.2522 5.646 0.243
61.2727 4.990 0.228
61.2932 5.031 0.229
61.3136 5.406 0.237
61.3341 5.271 0.234
61.3546 5.177 0.232
61.3750 5.490 0.239
61.3955 4.906 0.226
61.4159 5.104 0.231
61.4364 5.240 0.234
61.4569 4.979 0.228
61.4773 4.990 0.228
61.4978 5.021 0.229
61.5183 4.813 0.224
61.5387 4.656 0.220
61.5592 4.667 0.220
61.5796 5.052 0.229
61.6001 5.000 0.228
61.6206 4.833 0.224
61.6410 4.552 0.218
61.6615 5.375 0.237
61.6820 4.875 0.225
61.7024 5.188 0.232
61.7229 5.073 0.230
61.7433 5.344 0.236
61.7638 4.844 0.225
61.7843 4.969 0.228
61.8047 4.865 0.225
61.8252 4.406 0.214
61.8457 4.781 0.223
61.8661 5.229 0.233
61.8866 5.073 0.230
61.9071 5.313 0.235
61.9275 5.563 0.241
61.9480 5.104 0.231
61.9684 4.771 0.223
61.9889 5.167 0.232
62.0094 5.167 0.232
62.0298 5.250 0.234
62.0503 5.427 0.238
62.0708 5.469 0.239
62.0912 5.365 0.236
62.1117 5.854 0.247
62.1321 6.167 0.253
62.1526 5.885 0.248
62.1731 5.927 0.248
62.1935 5.740 0.245
62.2140 5.302 0.235
62.2345 5.156 0.232
62.2549 5.104 0.231
62.2754 5.292 0.235
62.2958 5.625 0.242
62.3163 5.469 0.239
62.3368 5.458 0.238
62.3572 5.146 0.232
62.3777 5.542 0.240
62.3982 4.969 0.228
62.4186 5.021 0.229
62.4391 4.948 0.227
62.4595 4.688 0.221
62.4800 4.656 0.220
62.5005 4.969 0.228
62.5209 4.802 0.224
62.5414 5.094 0.230
62.5619 5.104 0.231
62.5823 4.604 0.219
62.6028 4.833 0.224
62.6232 4.948 0.227
62.6437 4.990 0.228
62.6642 4.990 0.228
62.6846 4.969 0.228
62.7051 5.125 0.231
62.7256 5.271 0.234
62.7460 5.167 0.232
62.7665 5.240 0.234
62.7870 5.188 0.232
62.8074 5.417 0.238
62.8279 4.875 0.225
62.8483 4.958 0.227
62.8688 5.240 0.234
62.8893 4.563 0.218
62.9097 4.844 0.225
62.9302 5.063 0.230
62.9507 5.229 0.233
62.9711 4.969 0.228
62.9916 4.802 0.224
63.0120 5.135 0.231
63.0325 4.990 0.228
63.0530 5.094 0.230
63.0734 4.792 0.223
63.0939 5.240 0.234
63.1144 5.208 0.233
63.1348 5.313 0.235
63.1553 5.271 0.234
63.1757 5.469 0.239
63.1962 5.635 0.242
63.2167 5.104 0.231
63.2371 5.167 0.232
63.2576 4.927 0.227
63.2781 5.573 0.241
63.2985 5.208 0.233
63.3190 4.948 0.227
63.3394 5.500 0.239
63.3599 5.146 0.232
63.3804 5.417 0.238
63.4008 4.958 0.227
63.4213 5.260 0.234
63.4418 5.417 0.238
63.4622 5.677 0.243
63.4827 5.469 0.239
63.5032 5.510 0.240
63.5236 5.854 0.247
63.5441 5.750 0.245
63.5645 5.583 0.241
63.5850 5.417 0.238
63.6055 6.031 0.251
63.6259 5.146 0.232
63.6464 6.125 0.253
63.6669 5.979 0.250
63.6873 5.740 0.245
63.7078 5.958 0.249
63.7282 6.073 0.252
63.7487 5.344 0.236
63.7692 6.115 0.252
63.7896 5.833 0.247
63.8101 6.104 0.252
63.8306 6.479 0.260
63.8510 6.073 0.252
63.8715 6.073 0.252
63.8919 6.302 0.256
63.9124 6.219 0.255
63.9329 6.146 0.253
63.9533 6.354 0.257
63.9738 6.438 0.259
63.9943 6.146 0.253
64.0147 6.344 0.257
64.0352 6.677 0.264
64.0556 6.104 0.252
64.0761 6.240 0.255
64.0966 6.156 0.253
64.1170 6.010 0.250
64.1375 5.667 0.243
64.1580 6.479 0.260
64.1784 6.729 0.265
64.1989 6.010 0.250
64.2193 5.990 0.250
64.2398 6.365 0.257
64.2603 6.250 0.255
64.2807 5.896 0.248
64.3012 6.385 0.258
64.3217 6.021 0.250
64.3421 5.740 0.245
64.3626 6.031 0.251
64.3831 5.969 0.249
64.4035 6.177 0.254
64.4240 5.885 0.248
64.4444 5.813 0.246
64.4649 6.083 0.252
64.4854 6.250 0.255
64.5058 6.188 0.254
64.5263 7.052 0.271
64.5468 6.729 0.265
64.5672 7.229 0.274
64.5877 7.042 0.271
64.6081 7.281 0.275
64.6286 7.771 0.285
64.6491 8.354 0.295
64.6695 8.802 0.303
64.6900 7.979 0.288
64.7105 7.823 0.285
64.7309 6.969 0.269
64.7514 7.271 0.275
64.7718 7.344 0.277
64.7923 6.896 0.268
64.8128 7.271 0.275
64.8332 7.563 0.281
64.8537 7.344 0.277
64.8742 7.250 0.275
64.8946 6.896 0.268
64.9151 6.573 0.262
64.9355 6.625 0.263
64.9560 5.979 0.250
64.9765 6.427 0.259
64.9969 5.948 0.249
65.0174 5.802 0.246
65.0379 5.885 0.248
65.0583 5.698 0.244
65.0788 5.625 0.242
65.0992 5.500 0.239
65.1197 5.260 0.234
65.1402 5.198 0.233
65.1606 5.823 0.246
65.1811 5.365 0.236
65.2016 5.458 0.238
65.2220 5.417 0.238
65.2425 5.021 0.229
65.2630 4.990 0.228
65.2834 4.865 0.225
65.3039 5.552 0.240
65.3243 5.115 0.231
65.3448 5.094 0.230
65.3653 5.302 0.235
65.3857 4.542 0.218
65.4062 4.990 0.228
65.4267 5.365 0.236
65.4471 5.521 0.240
65.4676 5.281 0.235
65.4880 5.000 0.228
65.5085 5.094 0.230
65.5290 5.500 0.239
65.5494 5.438 0.238
65.5699 5.396 0.237
65.5904 5.990 0.250
65.6108 5.406 0.237
65.6313 5.365 0.236
65.6517 5.927 0.248
65.6722 5.750 0.245
65.6927 4.865 0.225
65.7131 5.479 0.239
65.7336 5.625 0.242
65.7541 5.313 0.235
65.7745 5.469 0.239
65.7950 5.552 0.240
65.8154 5.521 0.240
65.8359 5.031 0.229
65.8564 4.927 0.227
65.8768 5.104 0.231
65.8973 4.927 0.227
65.9178 4.729 0.222
65.9382 4.854 0.225
65.9587 4.656 0.220
65.9791 5.260 0.234
65.9996 5.125 0.231
66.0201 4.469 0.216
66.0405 4.635 0.220
66.0610 4.875 0.225
66.0815 4.729 0.222
66.1019 4.906 0.226
66.1224 4.917 0.226
66.1429 4.708 0.221
66.1633 5.052 0.229
66.1838 4.844 0.225
66.2042 4.583 0.219
66.2247 5.021 0.229
66.2452 4.958 0.227
66.2656 4.771 0.223
66.2861 4.760 0.223
66.3066 4.750 0.222
66.3270 4.344 0.213
66.3475 4.781 0.223
66.3679 4.771 0.223
66.3884 4.948 0.227
66.4089 5.313 0.235
66.4293 4.615 0.219
66.4498 4.750 0.222
66.4703 4.760 0.223
66.4907 4.917 0.226
66.5112 4.354 0.213
66.5316 5.063 0.230
66.5521 4.990 0.228
66.5726 4.646 0.220
66.5930 4.885 0.226
66.6135 4.615 0.219
66.6340 4.854 0.225
66.6544 5.188 0.232
66.6749 4.906 0.226
66.6953 4.854 0.225
66.7158 4.927 0.227
66.7363 4.677 0.221
66.7567 5.302 0.235
66.7772 4.958 0.227
66.7977 4.750 0.222
66.8181 4.760 0.223
66.8386 5.042 0.229
66.8590 5.188 0.232
66.8795 4.906 0.226
66.9000 5.458 0.238
66.9204 5.490 0.239
66.9409 4.615 0.219
66.9614 5.115 0.231
66.9818 5.146 0.232
67.0023 5.500 0.239
67.0228 5.552 0.240
67.0432 5.917 0.248
67.0637 6.406 0.258
67.0841 6.823 0.267
67.1046 6.896 0.268
67.1251 6.979 0.270
67.1455 7.125 0.272
67.1660 7.385 0.277
67.1865 7.177 0.273
67.2069 6.760 0.265
67.2274 5.885 0.248
67.2478 6.031 0.251
67.2683 6.531 0.261
67.2888 6.646 0.263
67.3092 7.115 0.272
67.3297 6.250 0.255
67.3502 6.250 0.255
67.3706 6.542 0.261
67.3911 6.688 0.264
67.4115 5.479 0.239
67.4320 5.792 0.246
67.4525 5.781 0.245
67.4729 5.406 0.237
67.4934 5.302 0.235
67.5139 5.177 0.232
67.5343 5.469 0.239
67.5548 5.385 0.237
67.5752 5.271 0.234
67.5957 5.177 0.232
67.6162 5.333 0.236
67.6366 5.771 0.245
67.6571 5.552 0.240
67.6776 5.406 0.237
67.6980 4.844 0.225
67.7185 5.542 0.240
67.7389 5.729 0.244
67.7594 5.333 0.236
67.7799 5.646 0.243
67.8003 6.344 0.257
67.8208 5.927 0.248
67.8413 6.365 0.257
67.8617 6.427 0.259
67.8822 6.635 0.263
67.9027 6.771 0.266
67.9231 5.958 0.249
67.9436 7.052 0.271
67.9640 6.094 0.252
67.9845 6.260 0.255
68.0050 7.010 0.270
68.0254 6.490 0.260
68.0459 6.385 0.258
68.0664 6.719 0.265
68.0868 6.958 0.269
68.1073 5.719 0.244
68.1277 5.781 0.245
68.1482 5.771 0.245
68.1687 6.021 0.250
68.1891 5.906 0.248
68.2096 6.031 0.251
68.2301 5.813 0.246
68.2505 5.646 0.243
68.2710 5.438 0.238
68.2914 5.948 0.249
68.3119 6.115 0.252
68.3324 5.750 0.245
68.3528 6.219 0.255
68.3733 5.802 0.246
68.3938 6.021 0.250
68.4142 5.333 0.236
68.4347 5.531 0.240
68.4551 5.313 0.235
68.4756 5.135 0.231
68.4961 5.094 0.230
68.5165 5.125 0.231
68.5370 5.000 0.228
68.5575 5.375 0.237
68.5779 5.156 0.232
68.5984 5.031 0.229
68.6189 4.667 0.220
68.6393 4.802 0.224
68.6598 4.500 0.217
68.6802 4.792 0.223
68.7007 4.667 0.220
68.7212 4.729 0.222
68.7416 4.917 0.226
68.7621 4.698 0.221
68.7826 4.594 0.219
68.8030 4.771 0.223
68.8235 5.292 0.235
68.8439 4.563 0.218
68.8644 4.896 0.226
68.8849 4.740 0.222
68.9053 4.802 0.224
68.9258 4.573 0.218
68.9463 4.865 0.225
68.9667 4.854 0.225
68.9872 5.073 0.230
69.0076 5.500 0.239
69.0281 4.958 0.227
69.0486 5.438 0.238
69.0690 4.635 0.220
69.0895 4.865 0.225
69.1100 4.917 0.226
69.1304 5.208 0.233
69.1509 5.146 0.232
69.1713 4.958 0.227
69.1918 5.219 0.233
69.2123 4.969 0.228
69.2327 5.573 0.241
69.2532 5.552 0.240
69.2737 5.302 0.235
69.2941 5.760 0.245
69.3146 4.760 0.223
69.3350 4.615 0.219
69.3555 4.677 0.221
69.3760 4.740 0.222
69.3964 4.760 0.223
69.4169 5.010 0.228
69.4374 4.990 0.228
69.4578 4.865 0.225
69.4783 4.552 0.218
69.4988 4.458 0.216
69.5192 4.875 0.225
69.5397 4.656 0.220
69.5601 4.833 0.224
69.5806 4.604 0.219
69.6011 4.813 0.224
69.6215 4.813 0.224
69.6420 4.865 0.225
69.6625 4.552 0.218
69.6829 5.302 0.235
69.7034 4.865 0.225
69.7238 5.323 0.235
69.7443 5.396 0.237
69.7648 5.292 0.235
69.7852 5.781 0.245
69.8057 5.260 0.234
69.8262 5.698 0.244
69.8466 5.667 0.243
69.8671 5.271 0.234
69.8875 5.385 0.237
69.9080 5.781 0.245
69.9285 5.375 0.237
69.9489 4.990 0.228
69.9694 5.542 0.240
69.9899 5.573 0.241
70.0103 5.250 0.234
70.0308 5.010 0.228
70.0512 5.229 0.233
70.0717 5.271 0.234
70.0922 5.260 0.234
70.1126 4.719 0.222
70.1331 4.917 0.226
70.1536 5.500 0.239
70.1740 5.000 0.228
70.1945 5.094 0.230
70.2149 4.813 0.224
70.2354 4.896 0.226
70.2559 4.729 0.222
70.2763 4.917 0.226
70.2968 4.302 0.212
70.3173 4.802 0.224
70.3377 4.427 0.215
70.3582 4.844 0.225
70.3787 4.510 0.217
70.3991 4.906 0.226
70.4196 4.833 0.224
70.4400 4.531 0.217
70.4605 4.750 0.222
70.4810 4.594 0.219
70.5014 4.583 0.219
70.5219 4.646 0.220
70.5424 4.615 0.219
70.5628 4.813 0.224
70.5833 4.802 0.224
70.6037 4.896 0.226
70.6242 4.500 0.217
70.6447 4.833 0.224
70.6651 5.042 0.229
70.6856 4.854 0.225
70.7061 4.625 0.219
70.7265 5.125 0.231
70.7470 4.792 0.223
70.7674 4.719 0.222
70.7879 4.750 0.222
70.8084 4.802 0.224
70.8288 4.938 0.227
70.8493 4.833 0.224
70.8698 5.229 0.233
70.8902 4.458 0.216
70.9107 4.563 0.218
70.9311 4.885 0.226
70.9516 4.865 0.225
70.9721 4.448 0.215
70.9925 4.917 0.226
71.0130 4.802 0.224
71.0335 4.719 0.222
71.0539 4.677 0.221
71.0744 4.667 0.220
71.0948 4.708 0.221
71.1153 4.938 0.227
71.1358 4.604 0.219
71.1562 4.188 0.209
71.1767 4.958 0.227
71.1972 4.573 0.218
71.2176 4.458 0.216
71.2381 4.813 0.224
71.2586 4.313 0.212
71.2790 4.281 0.211
71.2995 4.844 0.225
71.3199 4.854 0.225
71.3404 4.406 0.214
71.3609 4.552 0.218
71.3813 4.208 0.209
71.4018 4.719 0.222
71.4223 4.031 0.205
71.4427 4.667 0.220
71.4632 4.667 0.220
71.4836 4.292 0.211
71.5041 4.813 0.224
71.5246 4.677 0.221
71.5450 4.615 0.219
71.5655 5.146 0.232
71.5860 5.260 0.234
71.6064 5.333 0.236
71.6269 5.438 0.238
71.6473 5.104 0.231
71.6678 5.521 0.240
71.6883 5.479 0.239
71.7087 5.458 0.238
71.7292 5.292 0.235
71.7497 5.750 0.245
71.7701 5.354 0.236
71.7906 5.615 0.242
71.8110 5.198 0.233
71.8315 5.375 0.237
71.8520 5.406 0.237
71.8724 5.219 0.233
71.8929 5.594 0.241
71.9134 5.135 0.231
71.9338 6.010 0.250
71.9543 5.240 0.234
71.9747 5.031 0.229
71.9952 4.802 0.224
72.0157 5.219 0.233
72.0361 5.146 0.232
72.0566 4.604 0.219
72.0771 5.000 0.228
72.0975 4.604 0.219
72.1180 5.021 0.229
72.1385 4.854 0.225
72.1589 4.490 0.216
72.1794 5.063 0.230
72.1998 4.938 0.227
72.2203 4.854 0.225
72.2408 4.729 0.222
72.2612 4.448 0.215
72.2817 4.458 0.216
72.3022 4.792 0.223
72.3226 4.510 0.217
72.3431 4.344 0.213
72.3635 4.896 0.226
72.3840 4.698 0.221
72.4045 4.542 0.218
72.4249 4.771 0.223
72.4454 4.115 0.207
72.4659 4.885 0.226
72.4863 4.313 0.212
72.5068 4.542 0.218
72.5272 4.792 0.223
72.5477 4.365 0.213
72.5682 4.906 0.226
72.5886 4.677 0.221
72.6091 4.292 0.211
72.6296 4.792 0.223
72.6500 4.031 0.205
72.6705 4.063 0.206
72.6909 4.427 0.215
72.7114 4.573 0.218
72.7319 4.604 0.219
72.7523 4.708 0.221
72.7728 4.313 0.212
72.7933 4.563 0.218
72.8137 4.385 0.214
72.8342 4.833 0.224
72.8547 4.625 0.219
72.8751 4.740 0.222
72.8956 4.615 0.219
72.9160 4.510 0.217
72.9365 4.417 0.214
72.9570 4.375 0.213
72.9774 4.427 0.215
72.9979 4.552 0.218
73.0184 4.115 0.207
73.0388 4.375 0.213
73.0593 4.333 0.212
73.0797 4.333 0.212
73.1002 4.135 0.208
73.1207 4.219 0.210
73.1411 4.344 0.213
73.1616 4.198 0.209
73.1821 4.125 0.207
73.2025 4.000 0.204
73.2230 4.031 0.205
73.2434 4.188 0.209
73.2639 4.250 0.210
73.2844 3.948 0.203
73.3048 3.875 0.201
73.3253 3.948 0.203
73.3458 4.375 0.213
73.3662 3.969 0.203
73.3867 4.219 0.210
73.4071 3.844 0.200
73.4276 3.948 0.203
73.4481 4.240 0.210
73.4685 3.865 0.201
73.4890 3.760 0.198
73.5095 4.052 0.205
73.5299 4.052 0.205
73.5504 3.927 0.202
73.5708 3.719 0.197
73.5913 4.104 0.207
73.6118 3.667 0.195
73.6322 4.063 0.206
73.6527 3.833 0.200
73.6732 3.823 0.200
73.6936 4.010 0.204
73.7141 3.573 0.193
73.7346 3.604 0.194
73.7550 4.052 0.205
73.7755 3.813 0.199
73.7959 4.135 0.208
73.8164 4.531 0.217
73.8369 4.042 0.205
73.8573 4.042 0.205
73.8778 4.167 0.208
73.8983 4.427 0.215
73.9187 4.094 0.207
73.9392 3.823 0.200
73.9596 4.094 0.207
73.9801 4.417 0.214
74.0006 4.615 0.219
74.0210 4.292 0.211
74.0415 4.365 0.213
74.0620 4.271 0.211
74.0824 4.042 0.205
74.1029 4.417 0.214
74.1233 4.375 0.213
74.1438 3.677 0.196
74.1643 4.250 0.210
74.1847 4.354 0.213
74.2052 4.271 0.211
74.2257 3.906 0.202
74.2461 4.000 0.204
74.2666 4.073 0.206
74.2870 3.771 0.198
74.3075 4.271 0.211
74.3280 3.948 0.203
74.3484 3.906 0.202
74.3689 3.823 0.200
74.3894 3.885 0.201
74.4098 3.708 0.197
74.4303 4.385 0.214
74.4507 4.563 0.218
74.4712 4.073 0.206
74.4917 4.375 0.213
74.5121 3.760 0.198
74.5326 3.990 0.204
74.5531 4.052 0.205
74.5735 4.406 0.214
74.5940 3.854 0.200
74.6145 4.260 0.211
74.6349 4.250 0.210
74.6554 4.365 0.213
74.6758 4.083 0.206
74.6963 3.927 0.202
74.7168 3.844 0.200
74.7372 4.198 0.209
74.7577 4.115 0.207
74.7782 4.292 0.211
74.7986 3.833 0.200
74.8191 3.688 0.196
74.8395 3.948 0.203
74.8600 4.240 0.210
74.8805 3.802 0.199
74.9009 4.073 0.206
74.9214 4.146 0.208
74.9419 4.167 0.208
74.9623 3.677 0.196
74.9828 3.990 0.204
75.0032 4.021 0.205
75.0237 3.917 0.202
75.0442 3.781 0.198
75.0646 3.802 0.199
75.0851 3.750 0.198
75.1056 3.771 0.198
75.1260 3.802 0.199
75.1465 3.469 0.190
75.1669 3.927 0.202
75.1874 4.063 0.206
75.2079 4.010 0.204
75.2283 3.990 0.204
75.2488 3.792 0.199
75.2693 3.698 0.196
75.2897 4.167 0.208
75.3102 3.708 0.197
75.3306 4.010 0.204
75.3511 3.990 0.204
75.3716 3.865 0.201
75.3920 3.854 0.200
75.4125 3.823 0.200
75.4330 4.229 0.210
75.4534 3.885 0.201
75.4739 4.302 0.212
75.4944 3.656 0.195
75.5148 4.323 0.212
75.5353 3.854 0.200
75.5557 3.563 0.193
75.5762 3.875 0.201
75.5967 4.250 0.210
75.6171 3.948 0.203
75.6376 4.771 0.223
75.6581 3.813 0.199
75.6785 4.500 0.217
75.6990 4.375 0.213
75.7194 4.427 0.215
75.7399 4.104 0.207
75.7604 4.781 0.223
75.7808 4.990 0.228
75.8013 5.354 0.236
75.8218 5.271 0.234
75.8422 5.260 0.234
75.8627 5.031 0.229
75.8831 5.021 0.229
75.9036 4.500 0.217
75.9241 4.417 0.214
75.9445 4.292 0.211
75.9650 4.365 0.213
75.9855 4.760 0.223
76.0059 4.813 0.224
76.0264 4.708 0.221
76.0468 5.125 0.231
76.0673 4.604 0.219
76.0878 3.896 0.201
76.1082 4.156 0.208
76.1287 4.344 0.213
76.1492 4.333 0.212
76.1696 4.073 0.206
76.1901 3.833 0.200
76.2105 4.563 0.218
76.2310 4.406 0.214
76.2515 4.104 0.207
76.2719 4.167 0.208
76.2924 4.188 0.209
76.3129 4.354 0.213
76.3333 4.302 0.212
76.3538 4.365 0.213
76.3743 4.760 0.223
76.3947 4.375 0.213
76.4152 4.281 0.211
76.4356 4.406 0.214
76.4561 4.375 0.213
76.4766 4.406 0.214
76.4970 4.396 0.214
76.5175 4.219 0.210
76.5380 3.979 0.204
76.5584 4.469 0.216
76.5789 3.990 0.204
76.5993 4.115 0.207
76.6198 4.188 0.209
76.6403 4.146 0.208
76.6607 3.906 0.202
76.6812 4.042 0.205
76.7017 3.844 0.200
76.7221 3.771 0.198
76.7426 3.750 0.198
76.7630 4.052 0.205
76.7835 4.354 0.213
76.8040 4.250 0.210
76.8244 3.604 0.194
76.8449 4.094 0.207
76.8654 3.760 0.198
76.8858 4.042 0.205
76.9063 3.865 0.201
76.9267 3.646 0.195
76.9472 4.021 0.205
76.9677 4.219 0.210
76.9881 4.063 0.206
77.0086 3.656 0.195
77.0291 3.740 0.197
77.0495 3.802 0.199
77.0700 3.479 0.190
77.0905 3.969 0.203
77.1109 3.802 0.199
77.1314 4.063 0.206
77.1518 3.906 0.202
77.1723 3.833 0.200
77.1928 3.958 0.203
77.2132 3.917 0.202
77.2337 3.875 0.201
77.2542 3.802 0.199
77.2746 3.677 0.196
77.2951 3.573 0.193
77.3155 3.938 0.203
77.3360 3.844 0.200
77.3565 3.885 0.201
77.3769 3.948 0.203
77.3974 3.542 0.192
77.4179 4.052 0.205
77.4383 4.104 0.207
77.4588 3.990 0.204
77.4792 4.344 0.213
77.4997 4.146 0.208
77.5202 4.010 0.204
77.5406 4.240 0.210
77.5611 4.458 0.216
77.5816 4.635 0.220
77.6020 4.156 0.208
77.6225 4.167 0.208
77.6429 4.344 0.213
77.6634 4.083 0.206
77.6839 4.365 0.213
77.7043 4.073 0.206
77.7248 4.688 0.221
77.7453 4.563 0.218
77.7657 4.677 0.221
77.7862 5.000 0.228
77.8066 5.240 0.234
77.8271 5.083 0.230
77.8476 5.042 0.229
77.8680 4.490 0.216
77.8885 4.188 0.209
77.9090 4.094 0.207
77.9294 4.188 0.209
77.9499 4.438 0.215
77.9704 4.240 0.210
77.9908 4.458 0.216
78.0113 4.635 0.220
78.0317 4.885 0.226
78.0522 4.719 0.222
78.0727 4.073 0.206
78.0931 4.260 0.211
78.1136 4.010 0.204
78.1341 4.438 0.215
78.1545 4.042 0.205
78.1750 4.344 0.213
78.1954 4.177 0.209
78.2159 3.802 0.199
78.2364 4.646 0.220
78.2568 3.740 0.197
78.2773 4.156 0.208
78.2978 4.302 0.212
78.3182 3.896 0.201
78.3387 3.969 0.203
78.3591 4.656 0.220
78.3796 4.385 0.214
78.4001 4.323 0.212
78.4205 4.385 0.214
78.4410 3.854 0.200
78.4615 4.208 0.209
78.4819 4.417 0.214
78.5024 3.906 0.202
78.5228 3.969 0.203
78.5433 3.938 0.203
78.5638 3.823 0.200
78.5842 4.292 0.211
78.6047 4.042 0.205
78.6252 4.250 0.210
78.6456 4.021 0.205
78.6661 4.188 0.209
78.6865 4.667 0.220
78.7070 4.135 0.208
78.7275 3.917 0.202
78.7479 3.927 0.202
78.7684 3.865 0.201
78.7889 3.740 0.197
78.8093 4.458 0.216
78.8298 4.156 0.208
78.8503 3.760 0.198
78.8707 4.021 0.205
78.8912 4.125 0.207
78.9116 4.198 0.209
78.9321 3.938 0.203
78.9526 4.240 0.210
78.9730 4.281 0.211
78.9935 3.823 0.200
79.0140 3.958 0.203
79.0344 3.885 0.201
79.0549 4.271 0.211
79.0753 4.083 0.206
79.0958 4.010 0.204
79.1163 3.698 0.196
79.1367 4.010 0.204
79.1572 3.938 0.203
79.1777 3.854 0.200
79.1981 3.958 0.203
79.2186 3.635 0.195
79.2390 3.760 0.198
79.2595 4.188 0.209
79.2800 4.167 0.208
79.3004 4.000 0.204
79.3209 3.792 0.199
79.3414 4.073 0.206
79.3618 4.281 0.211
79.3823 3.917 0.202
79.4027 3.979 0.204
79.4232 3.802 0.199
79.4437 3.635 0.195
79.4641 4.260 0.211
79.4846 4.229 0.210
79.5051 3.927 0.202
79.5255 4.344 0.213
79.5460 4.302 0.212
79.5664 4.031 0.205
79.5869 4.313 0.212
79.6074 3.729 0.197
79.6278 3.740 0.197
79.6483 4.083 0.206
79.6688 4.281 0.211
79.6892 3.927 0.202
79.7097 3.865 0.201
79.7302 3.688 0.196
79.7506 4.000 0.204
79.7711 4.146 0.208
79.7915 4.333 0.212
79.8120 4.292 0.211
79.8325 4.323 0.212
79.8529 3.750 0.198
79.8734 3.906 0.202
79.8939 4.229 0.210
79.9143 4.083 0.206
79.9348 4.167 0.208
79.9552 3.708 0.197
79.9757 3.604 0.194
79.9962 3.740 0.197
