'Id: "" Comment: "" Operator: "Lab Manager" Anode: "Cu" Scantype: "Locked Coupled" TimePerStep: "96" X: "0" Y: "0" Z: "0" 
5.0000 24.281 0.503
5.0205 23.990 0.500
5.0409 23.063 0.490
5.0614 23.198 0.492
5.0819 23.365 0.493
5.1023 22.792 0.487
5.1228 23.740 0.497
5.1432 23.417 0.494
5.1637 23.177 0.491
5.1842 23.198 0.492
5.2046 22.938 0.489
5.2251 23.521 0.495
5.2456 23.448 0.494
5.2660 23.510 0.495
5.2865 23.167 0.491
5.3069 22.344 0.482
5.3274 22.854 0.488
5.3479 23.188 0.491
5.3683 23.073 0.490
5.3888 23.104 0.491
5.4093 22.250 0.481
5.4297 22.781 0.487
5.4502 21.542 0.474
5.4706 22.490 0.484
5.4911 22.896 0.488
5.5116 22.521 0.484
5.5320 22.823 0.488
5.5525 22.583 0.485
5.5730 22.010 0.479
5.5934 22.146 0.480
5.6139 23.292 0.493
5.6343 22.490 0.484
5.6548 22.156 0.480
5.6753 22.219 0.481
5.6957 21.500 0.473
5.7162 22.042 0.479
5.7367 22.188 0.481
5.7571 21.833 0.477
5.7776 23.000 0.489
5.7980 21.688 0.475
5.8185 22.208 0.481
5.8390 21.802 0.477
5.8594 21.042 0.468
5.8799 21.646 0.475
5.9004 22.219 0.481
5.9208 22.406 0.483
5.9413 22.833 0.488
5.9618 21.302 0.471
5.9822 20.646 0.464
6.0027 22.427 0.483
6.0231 22.083 0.480
6.0436 21.896 0.478
6.0641 21.865 0.477
6.0845 22.333 0.482
6.1050 22.292 0.482
6.1255 21.083 0.469
6.1459 21.146 0.469
6.1664 21.500 0.473
6.1868 21.594 0.474
6.2073 21.438 0.473
6.2278 22.042 0.479
6.2482 21.615 0.475
6.2687 20.813 0.466
6.2892 21.354 0.472
6.3096 21.292 0.471
6.3301 21.531 0.474
6.3505 21.260 0.471
6.3710 20.667 0.464
6.3915 21.677 0.475
6.4119 20.750 0.465
6.4324 21.333 0.471
6.4529 21.510 0.473
6.4733 21.594 0.474
6.4938 21.302 0.471
6.5142 21.167 0.470
6.5347 21.594 0.474
6.5552 20.969 0.467
6.5756 21.740 0.476
6.5961 21.302 0.471
6.6166 20.750 0.465
6.6370 22.479 0.484
6.6575 21.615 0.475
6.6779 22.771 0.487
6.6984 21.313 0.471
6.7189 22.094 0.480
6.7393 21.875 0.477
6.7598 22.156 0.480
6.7803 20.656 0.464
6.8007 21.521 0.473
6.8212 21.375 0.472
6.8417 20.833 0.466
6.8621 20.583 0.463
6.8826 22.115 0.480
6.9030 20.938 0.467
6.9235 20.385 0.461
6.9440 21.667 0.475
6.9644 21.229 0.470
6.9849 21.938 0.478
7.0054 20.885 0.466
7.0258 21.313 0.471
7.0463 21.208 0.470
7.0667 21.240 0.470
7.0872 21.573 0.474
7.1077 20.948 0.467
7.1281 21.781 0.476
7.1486 21.042 0.468
7.1691 21.885 0.477
7.1895 21.406 0.472
7.2100 21.229 0.470
7.2304 21.188 0.470
7.2509 21.917 0.478
7.2714 21.375 0.472
7.2918 22.208 0.481
7.3123 21.729 0.476
7.3328 21.083 0.469
7.3532 20.771 0.465
7.3737 21.260 0.471
7.3941 21.969 0.478
7.4146 21.875 0.477
7.4351 20.708 0.464
7.4555 21.094 0.469
7.4760 21.573 0.474
7.4965 21.229 0.470
7.5169 21.188 0.470
7.5374 21.385 0.472
7.5579 21.833 0.477
7.5783 21.604 0.474
7.5988 21.042 0.468
7.6192 21.542 0.474
7.6397 20.552 0.463
7.6602 22.292 0.482
7.6806 21.438 0.473
7.7011 22.073 0.480
7.7216 21.927 0.478
7.7420 22.177 0.481
7.7625 21.927 0.478
7.7829 21.271 0.471
7.8034 21.990 0.479
7.8239 21.604 0.474
7.8443 22.073 0.480
7.8648 20.677 0.464
7.8853 21.948 0.478
7.9057 22.135 0.480
7.9262 21.927 0.478
7.9466 21.917 0.478
7.9671 22.229 0.481
7.9876 21.656 0.475
8.0080 22.000 0.479
8.0285 21.479 0.473
8.0490 21.938 0.478
8.0694 22.927 0.489
8.0899 21.479 0.473
8.1103 21.813 0.477
8.1308 22.438 0.483
8.1513 23.146 0.491
8.1717 22.479 0.484
8.1922 23.094 0.490
8.2127 22.229 0.481
8.2331 23.156 0.491
8.2536 22.510 0.484
8.2740 22.573 0.485
8.2945 21.927 0.478
8.3150 22.094 0.480
8.3354 21.354 0.472
8.3559 21.583 0.474
8.3764 22.490 0.484
8.3968 22.083 0.480
8.4173 21.854 0.477
8.4378 22.198 0.481
8.4582 22.000 0.479
8.4787 22.552 0.485
8.4991 22.469 0.484
8.5196 22.188 0.481
8.5401 22.594 0.485
8.5605 22.115 0.480
8.5810 21.604 0.474
8.6015 22.781 0.487
8.6219 23.844 0.498
8.6424 25.156 0.512
8.6628 24.188 0.502
8.6833 24.375 0.504
8.7038 25.417 0.515
8.7242 26.490 0.525
8.7447 27.500 0.535
8.7652 28.708 0.547
8.7856 31.896 0.576
8.8061 36.156 0.614
8.8265 40.646 0.651
8.8470 43.875 0.676
8.8675 44.125 0.678
8.8879 44.229 0.679
8.9084 43.990 0.677
8.9289 43.250 0.671
8.9493 46.875 0.699
8.9698 48.646 0.712
8.9902 57.188 0.772
9.0107 67.333 0.837
9.0312 83.094 0.930
9.0516 101.344 1.027
9.0721 108.604 1.064
9.0926 92.260 0.980
9.1130 63.771 0.815
9.1335 46.240 0.694
9.1539 39.531 0.642
9.1744 32.313 0.580
9.1949 32.729 0.584
9.2153 30.927 0.568
9.2358 29.750 0.557
9.2563 30.125 0.560
9.2767 29.083 0.550
9.2972 29.979 0.559
9.3177 29.542 0.555
9.3381 27.615 0.536
9.3586 27.781 0.538
9.3790 27.583 0.536
9.3995 28.115 0.541
9.4200 26.802 0.528
9.4404 27.490 0.535
9.4609 27.469 0.535
9.4814 27.708 0.537
9.5018 28.625 0.546
9.5223 27.458 0.535
9.5427 26.896 0.529
9.5632 27.875 0.539
9.5837 27.969 0.540
9.6041 28.594 0.546
9.6246 29.813 0.557
9.6451 29.302 0.552
9.6655 29.625 0.556
9.6860 29.979 0.559
9.7064 30.125 0.560
9.7269 32.021 0.578
9.7474 32.042 0.578
9.7678 34.354 0.598
9.7883 36.802 0.619
9.8088 40.667 0.651
9.8292 43.208 0.671
9.8497 42.385 0.664
9.8701 40.698 0.651
9.8906 37.042 0.621
9.9111 34.604 0.600
9.9315 31.531 0.573
9.9520 31.365 0.572
9.9725 30.594 0.565
9.9929 27.865 0.539
10.0134 26.958 0.530
10.0338 24.885 0.509
10.0543 24.323 0.503
10.0748 22.688 0.486
10.0952 23.073 0.490
10.1157 21.906 0.478
10.1362 22.594 0.485
10.1566 22.146 0.480
10.1771 21.094 0.469
10.1976 20.979 0.467
10.2180 20.729 0.465
10.2385 21.010 0.468
10.2589 20.563 0.463
10.2794 21.208 0.470
10.2999 20.729 0.465
10.3203 20.229 0.459
10.3408 20.813 0.466
10.3613 19.698 0.453
10.3817 20.844 0.466
10.4022 20.823 0.466
10.4226 20.052 0.457
10.4431 20.115 0.458
10.4636 20.729 0.465
10.4840 19.167 0.447
10.5045 19.500 0.451
10.5250 19.469 0.450
10.5454 19.146 0.447
10.5659 19.500 0.451
10.5863 20.646 0.464
10.6068 19.083 0.446
10.6273 19.833 0.455
10.6477 19.344 0.449
10.6682 19.490 0.451
10.6887 18.260 0.436
10.7091 18.792 0.442
10.7296 18.323 0.437
10.7500 19.302 0.448
10.7705 19.229 0.448
10.7910 18.833 0.443
10.8114 18.792 0.442
10.8319 17.823 0.431
10.8524 18.042 0.434
10.8728 18.490 0.439
10.8933 18.490 0.439
10.9137 17.927 0.432
10.9342 18.208 0.436
10.9547 17.427 0.426
10.9751 19.052 0.445
10.9956 17.990 0.433
11.0161 17.927 0.432
11.0365 17.656 0.429
11.0570 17.229 0.424
11.0775 17.375 0.425
11.0979 17.458 0.426
11.1184 17.354 0.425
11.1388 17.594 0.428
11.1593 17.271 0.424
11.1798 16.958 0.420
11.2002 17.354 0.425
11.2207 17.010 0.421
11.2412 17.021 0.421
11.2616 17.740 0.430
11.2821 16.948 0.420
11.3025 16.802 0.418
11.3230 16.990 0.421
11.3435 16.281 0.412
11.3639 16.271 0.412
11.3844 16.281 0.412
11.4049 15.677 0.404
11.4253 16.375 0.413
11.4458 16.135 0.410
11.4662 16.542 0.415
11.4867 16.448 0.414
11.5072 16.010 0.408
11.5276 15.896 0.407
11.5481 15.333 0.400
11.5686 16.458 0.414
11.5890 16.979 0.421
11.6095 14.958 0.395
11.6299 16.302 0.412
11.6504 15.125 0.397
11.6709 15.156 0.397
11.6913 15.802 0.406
11.7118 15.115 0.397
11.7323 15.156 0.397
11.7527 15.688 0.404
11.7732 15.260 0.399
11.7937 14.771 0.392
11.8141 16.115 0.410
11.8346 15.188 0.398
11.8550 14.469 0.388
11.8755 14.906 0.394
11.8960 15.271 0.399
11.9164 15.240 0.398
11.9369 14.333 0.386
11.9574 14.063 0.383
11.9778 13.719 0.378
11.9983 14.458 0.388
12.0187 14.740 0.392
12.0392 14.125 0.384
12.0597 14.010 0.382
12.0801 15.281 0.399
12.1006 14.875 0.394
12.1211 14.927 0.394
12.1415 14.854 0.393
12.1620 14.615 0.390
12.1824 14.781 0.392
12.2029 15.615 0.403
12.2234 15.542 0.402
12.2438 16.135 0.410
12.2643 15.010 0.395
12.2848 14.448 0.388
12.3052 14.438 0.388
12.3257 15.083 0.396
12.3461 14.083 0.383
12.3666 13.771 0.379
12.3871 13.865 0.380
12.4075 14.000 0.382
12.4280 13.854 0.380
12.4485 12.958 0.367
12.4689 13.531 0.375
12.4894 13.385 0.373
12.5098 13.385 0.373
12.5303 13.990 0.382
12.5508 14.135 0.384
12.5712 13.510 0.375
12.5917 13.260 0.372
12.6122 13.750 0.378
12.6326 13.500 0.375
12.6531 13.104 0.369
12.6736 14.052 0.383
12.6940 13.083 0.369
12.7145 13.760 0.379
12.7349 13.958 0.381
12.7554 13.313 0.372
12.7759 12.813 0.365
12.7963 12.823 0.365
12.8168 12.542 0.361
12.8373 13.042 0.369
12.8577 13.490 0.375
12.8782 13.990 0.382
12.8986 13.135 0.370
12.9191 12.833 0.366
12.9396 13.479 0.375
12.9600 13.323 0.373
12.9805 13.438 0.374
13.0010 12.542 0.361
13.0214 12.875 0.366
13.0419 13.208 0.371
13.0623 12.542 0.361
13.0828 12.760 0.365
13.1033 12.146 0.356
13.1237 12.719 0.364
13.1442 12.719 0.364
13.1647 12.781 0.365
13.1851 12.771 0.365
13.2056 12.865 0.366
13.2260 13.250 0.372
13.2465 12.719 0.364
13.2670 12.667 0.363
13.2874 12.156 0.356
13.3079 12.823 0.365
13.3284 13.167 0.370
13.3488 12.542 0.361
13.3693 13.438 0.374
13.3897 13.594 0.376
13.4102 12.885 0.366
13.4307 13.177 0.370
13.4511 12.667 0.363
13.4716 12.792 0.365
13.4921 13.917 0.381
13.5125 12.813 0.365
13.5330 12.979 0.368
13.5535 13.010 0.368
13.5739 14.146 0.384
13.5944 13.344 0.373
13.6148 13.219 0.371
13.6353 13.865 0.380
13.6558 14.323 0.386
13.6762 13.771 0.379
13.6967 13.979 0.382
13.7172 14.448 0.388
13.7376 15.188 0.398
13.7581 14.719 0.392
13.7785 15.115 0.397
13.7990 15.469 0.401
13.8195 16.344 0.413
13.8399 16.250 0.411
13.8604 16.792 0.418
13.8809 16.135 0.410
13.9013 17.177 0.423
13.9218 16.781 0.418
13.9422 18.021 0.433
13.9627 17.948 0.432
13.9832 18.552 0.440
14.0036 19.583 0.452
14.0241 20.531 0.462
14.0446 21.375 0.472
14.0650 21.302 0.471
14.0855 22.521 0.484
14.1059 22.938 0.489
14.1264 23.354 0.493
14.1469 23.906 0.499
14.1673 24.667 0.507
14.1878 24.781 0.508
14.2083 26.552 0.526
14.2287 27.156 0.532
14.2492 27.365 0.534
14.2696 28.271 0.543
14.2901 27.302 0.533
14.3106 29.594 0.555
14.3310 29.979 0.559
14.3515 29.813 0.557
14.3720 29.656 0.556
14.3924 30.510 0.564
14.4129 29.854 0.558
14.4334 30.479 0.563
14.4538 31.115 0.569
14.4743 30.969 0.568
14.4947 30.500 0.564
14.5152 31.927 0.577
14.5357 30.708 0.566
14.5561 29.229 0.552
14.5766 28.677 0.547
14.5971 29.000 0.550
14.6175 26.375 0.524
14.6380 26.302 0.523
14.6584 26.427 0.525
14.6789 24.635 0.507
14.6994 24.552 0.506
14.7198 24.354 0.504
14.7403 23.208 0.492
14.7608 23.021 0.490
14.7812 21.573 0.474
14.8017 20.698 0.464
14.8221 20.615 0.463
14.8426 19.083 0.446
14.8631 18.438 0.438
14.8835 17.979 0.433
14.9040 17.313 0.425
14.9245 16.552 0.415
14.9449 16.667 0.417
14.9654 17.125 0.422
14.9858 15.417 0.401
15.0063 15.021 0.396
15.0268 14.635 0.390
15.0472 14.156 0.384
15.0677 14.510 0.389
15.0882 14.042 0.382
15.1086 13.354 0.373
15.1291 13.521 0.375
15.1495 13.510 0.375
15.1700 12.406 0.359
15.1905 12.979 0.368
15.2109 12.646 0.363
15.2314 13.510 0.375
15.2519 12.906 0.367
15.2723 13.802 0.379
15.2928 14.271 0.386
15.3133 14.615 0.390
15.3337 15.104 0.397
15.3542 14.375 0.387
15.3746 13.979 0.382
15.3951 13.094 0.369
15.4156 12.896 0.367
15.4360 12.854 0.366
15.4565 11.813 0.351
15.4770 12.542 0.361
15.4974 11.521 0.346
15.5179 13.188 0.371
15.5383 11.958 0.353
15.5588 12.677 0.363
15.5793 13.021 0.368
15.5997 13.344 0.373
15.6202 14.896 0.394
15.6407 16.552 0.415
15.6611 19.083 0.446
15.6816 24.760 0.508
15.7020 33.500 0.591
15.7225 46.031 0.692
15.7430 58.281 0.779
15.7634 52.542 0.740
15.7839 40.885 0.653
15.8044 28.052 0.541
15.8248 19.979 0.456
15.8453 15.490 0.402
15.8657 13.365 0.373
15.8862 12.802 0.365
15.9067 12.385 0.359
15.9271 12.052 0.354
15.9476 11.625 0.348
15.9681 11.677 0.349
15.9885 11.698 0.349
16.0090 11.135 0.341
16.0295 11.635 0.348
16.0499 10.615 0.333
16.0704 10.625 0.333
16.0908 10.552 0.332
16.1113 10.125 0.325
16.1318 10.438 0.330
16.1522 10.406 0.329
16.1727 11.021 0.339
16.1932 10.094 0.324
16.2136 10.677 0.333
16.2341 9.865 0.321
16.2545 10.542 0.331
16.2750 10.500 0.331
16.2955 9.979 0.322
16.3159 10.313 0.328
16.3364 10.604 0.332
16.3569 9.990 0.323
16.3773 10.229 0.326
16.3978 9.885 0.321
16.4182 10.177 0.326
16.4387 9.958 0.322
16.4592 10.208 0.326
16.4796 10.500 0.331
16.5001 10.240 0.327
16.5206 10.354 0.328
16.5410 10.948 0.338
16.5615 10.250 0.327
16.5819 9.625 0.317
16.6024 9.667 0.317
16.6229 10.240 0.327
16.6433 9.427 0.313
16.6638 10.052 0.324
16.6843 9.979 0.322
16.7047 9.885 0.321
16.7252 10.135 0.325
16.7456 10.302 0.328
16.7661 10.573 0.332
16.7866 10.552 0.332
16.8070 10.010 0.323
16.8275 9.865 0.321
16.8480 10.458 0.330
16.8684 10.396 0.329
16.8889 10.448 0.330
16.9094 11.010 0.339
16.9298 10.552 0.332
16.9503 11.063 0.339
16.9707 10.604 0.332
16.9912 10.740 0.334
17.0117 10.656 0.333
17.0321 10.677 0.333
17.0526 11.177 0.341
17.0731 11.177 0.341
17.0935 11.292 0.343
17.1140 11.656 0.348
17.1344 11.271 0.343
17.1549 12.188 0.356
17.1754 12.573 0.362
17.1958 12.865 0.366
17.2163 13.083 0.369
17.2368 14.063 0.383
17.2572 15.292 0.399
17.2777 17.052 0.421
17.2981 20.229 0.459
17.3186 24.729 0.508
17.3391 28.885 0.549
17.3595 30.781 0.566
17.3800 34.000 0.595
17.4005 36.469 0.616
17.4209 40.229 0.647
17.4414 43.260 0.671
17.4618 44.531 0.681
17.4823 45.281 0.687
17.5028 44.188 0.678
17.5232 38.073 0.630
17.5437 31.219 0.570
17.5642 25.083 0.511
17.5846 21.563 0.474
17.6051 19.208 0.447
17.6255 19.563 0.451
17.6460 20.844 0.466
17.6665 23.313 0.493
17.6869 25.219 0.513
17.7074 28.260 0.543
17.7279 32.198 0.579
17.7483 32.333 0.580
17.7688 34.740 0.602
17.7893 33.844 0.594
17.8097 33.708 0.593
17.8302 28.719 0.547
17.8506 25.760 0.518
17.8711 23.802 0.498
17.8916 20.896 0.467
17.9120 19.906 0.455
17.9325 19.240 0.448
17.9530 17.063 0.422
17.9734 17.406 0.426
17.9939 16.896 0.420
18.0143 15.948 0.408
18.0348 15.490 0.402
18.0553 14.740 0.392
18.0757 14.802 0.393
18.0962 14.906 0.394
18.1167 14.292 0.386
18.1371 14.156 0.384
18.1576 14.323 0.386
18.1780 14.938 0.394
18.1985 15.417 0.401
18.2190 16.042 0.409
18.2394 14.010 0.382
18.2599 13.250 0.372
18.2804 12.594 0.362
18.3008 13.135 0.370
18.3213 11.917 0.352
18.3417 11.552 0.347
18.3622 11.479 0.346
18.3827 12.396 0.359
18.4031 12.302 0.358
18.4236 11.865 0.352
18.4441 12.635 0.363
18.4645 11.552 0.347
18.4850 12.698 0.364
18.5054 12.052 0.354
18.5259 11.281 0.343
18.5464 11.438 0.345
18.5668 11.802 0.351
18.5873 12.302 0.358
18.6078 11.990 0.353
18.6282 12.104 0.355
18.6487 12.208 0.357
18.6692 13.052 0.369
18.6896 12.354 0.359
18.7101 13.021 0.368
18.7305 13.354 0.373
18.7510 12.948 0.367
18.7715 16.188 0.411
18.7919 18.542 0.439
18.8124 22.969 0.489
18.8329 29.865 0.558
18.8533 32.313 0.580
18.8738 28.385 0.544
18.8942 23.750 0.497
18.9147 18.802 0.443
18.9352 14.385 0.387
18.9556 14.125 0.384
18.9761 12.563 0.362
18.9966 12.802 0.365
19.0170 11.521 0.346
19.0375 10.896 0.337
19.0579 11.010 0.339
19.0784 10.958 0.338
19.0989 10.625 0.333
19.1193 10.719 0.334
19.1398 11.240 0.342
19.1603 10.104 0.324
19.1807 10.948 0.338
19.2012 10.854 0.336
19.2216 10.750 0.335
19.2421 11.052 0.339
19.2626 10.625 0.333
19.2830 11.063 0.339
19.3035 10.021 0.323
19.3240 10.573 0.332
19.3444 10.198 0.326
19.3649 10.333 0.328
19.3853 10.813 0.336
19.4058 11.333 0.344
19.4263 10.573 0.332
19.4467 10.365 0.329
19.4672 10.448 0.330
19.4877 10.833 0.336
19.5081 10.854 0.336
19.5286 10.969 0.338
19.5491 11.031 0.339
19.5695 11.427 0.345
19.5900 11.375 0.344
19.6104 11.073 0.340
19.6309 12.229 0.357
19.6514 12.188 0.356
19.6718 11.833 0.351
19.6923 12.677 0.363
19.7128 13.750 0.378
19.7332 14.417 0.388
19.7537 15.094 0.397
19.7741 14.490 0.389
19.7946 14.479 0.388
19.8151 14.031 0.382
19.8355 13.635 0.377
19.8560 12.760 0.365
19.8765 12.031 0.354
19.8969 11.563 0.347
19.9174 11.438 0.345
19.9378 11.500 0.346
19.9583 11.990 0.353
19.9788 13.135 0.370
19.9992 13.854 0.380
20.0197 14.594 0.390
20.0402 16.948 0.420
20.0606 18.844 0.443
20.0811 19.469 0.450
20.1015 20.615 0.463
20.1220 20.823 0.466
20.1425 22.219 0.481
20.1629 23.302 0.493
20.1834 24.448 0.505
20.2039 25.917 0.520
20.2243 26.146 0.522
20.2448 25.125 0.512
20.2653 23.198 0.492
20.2857 18.781 0.442
20.3062 16.177 0.411
20.3266 13.719 0.378
20.3471 11.583 0.347
20.3676 10.656 0.333
20.3880 9.896 0.321
20.4085 9.740 0.319
20.4290 10.417 0.329
20.4494 9.635 0.317
20.4699 9.521 0.315
20.4903 9.521 0.315
20.5108 9.938 0.322
20.5313 9.760 0.319
20.5517 9.406 0.313
20.5722 9.396 0.313
20.5927 9.271 0.311
20.6131 9.271 0.311
20.6336 8.844 0.304
20.6540 8.865 0.304
20.6745 8.917 0.305
20.6950 8.219 0.293
20.7154 8.844 0.304
20.7359 8.167 0.292
20.7564 8.552 0.298
20.7768 8.896 0.304
20.7973 8.844 0.304
20.8177 9.031 0.307
20.8382 9.104 0.308
20.8587 8.729 0.302
20.8791 9.094 0.308
20.8996 8.740 0.302
20.9201 8.823 0.303
20.9405 8.354 0.295
20.9610 8.448 0.297
20.9814 8.719 0.301
21.0019 8.615 0.300
21.0224 8.604 0.299
21.0428 8.708 0.301
21.0633 8.438 0.296
21.0838 8.010 0.289
21.1042 8.490 0.297
21.1247 9.229 0.310
21.1452 8.542 0.298
21.1656 8.708 0.301
21.1861 8.531 0.298
21.2065 8.906 0.305
21.2270 8.729 0.302
21.2475 8.313 0.294
21.2679 8.417 0.296
21.2884 8.708 0.301
21.3089 8.719 0.301
21.3293 8.906 0.305
21.3498 8.635 0.300
21.3702 8.333 0.295
21.3907 8.583 0.299
21.4112 8.740 0.302
21.4316 8.875 0.304
21.4521 8.219 0.293
21.4726 8.479 0.297
21.4930 8.010 0.289
21.5135 8.021 0.289
21.5339 8.438 0.296
21.5544 8.646 0.300
21.5749 8.781 0.302
21.5953 8.469 0.297
21.6158 8.365 0.295
21.6363 7.729 0.284
21.6567 8.719 0.301
21.6772 8.781 0.302
21.6976 8.271 0.294
21.7181 8.563 0.299
21.7386 8.229 0.293
21.7590 8.219 0.293
21.7795 7.979 0.288
21.8000 8.760 0.302
21.8204 8.385 0.296
21.8409 8.177 0.292
21.8613 9.042 0.307
21.8818 8.760 0.302
21.9023 8.698 0.301
21.9227 8.802 0.303
21.9432 8.313 0.294
21.9637 9.417 0.313
21.9841 9.188 0.309
22.0046 10.417 0.329
22.0251 10.813 0.336
22.0455 12.135 0.356
22.0660 11.958 0.353
22.0864 11.552 0.347
22.1069 10.885 0.337
22.1274 10.719 0.334
22.1478 9.438 0.314
22.1683 8.729 0.302
22.1888 8.156 0.291
22.2092 8.740 0.302
22.2297 8.927 0.305
22.2501 9.052 0.307
22.2706 8.458 0.297
22.2911 8.052 0.290
22.3115 8.396 0.296
22.3320 8.469 0.297
22.3525 8.000 0.289
22.3729 8.729 0.302
22.3934 8.396 0.296
22.4138 9.000 0.306
22.4343 8.125 0.291
22.4548 7.885 0.287
22.4752 8.354 0.295
22.4957 8.646 0.300
22.5162 7.948 0.288
22.5366 8.594 0.299
22.5571 9.156 0.309
22.5775 8.844 0.304
22.5980 9.573 0.316
22.6185 9.115 0.308
22.6389 9.271 0.311
22.6594 9.438 0.314
22.6799 9.406 0.313
22.7003 10.146 0.325
22.7208 9.594 0.316
22.7412 9.750 0.319
22.7617 11.000 0.339
22.7822 12.313 0.358
22.8026 14.510 0.389
22.8231 19.583 0.452
22.8436 28.854 0.548
22.8640 37.229 0.623
22.8845 38.979 0.637
22.9050 32.458 0.581
22.9254 27.833 0.538
22.9459 24.542 0.506
22.9663 17.896 0.432
22.9868 13.688 0.378
23.0073 12.813 0.365
23.0277 11.583 0.347
23.0482 12.104 0.355
23.0687 10.740 0.334
23.0891 10.854 0.336
23.1096 9.469 0.314
23.1300 9.198 0.310
23.1505 8.958 0.305
23.1710 8.646 0.300
23.1914 8.000 0.289
23.2119 8.563 0.299
23.2324 8.563 0.299
23.2528 8.948 0.305
23.2733 8.583 0.299
23.2937 8.688 0.301
23.3142 8.323 0.294
23.3347 7.771 0.285
23.3551 8.031 0.289
23.3756 8.438 0.296
23.3961 7.750 0.284
23.4165 8.708 0.301
23.4370 8.177 0.292
23.4574 8.229 0.293
23.4779 8.646 0.300
23.4984 8.500 0.298
23.5188 7.990 0.288
23.5393 8.406 0.296
23.5598 7.854 0.286
23.5802 7.688 0.283
23.6007 8.385 0.296
23.6211 8.323 0.294
23.6416 7.844 0.286
23.6621 7.958 0.288
23.6825 8.313 0.294
23.7030 7.438 0.278
23.7235 8.271 0.294
23.7439 8.198 0.292
23.7644 7.875 0.286
23.7849 8.083 0.290
23.8053 8.000 0.289
23.8258 8.521 0.298
23.8462 7.865 0.286
23.8667 8.750 0.302
23.8872 8.177 0.292
23.9076 8.104 0.291
23.9281 8.146 0.291
23.9486 8.740 0.302
23.9690 8.396 0.296
23.9895 7.708 0.283
24.0099 8.354 0.295
24.0304 8.104 0.291
24.0509 8.625 0.300
24.0713 8.208 0.292
24.0918 8.125 0.291
24.1123 8.979 0.306
24.1327 9.615 0.316
24.1532 10.635 0.333
24.1736 10.333 0.328
24.1941 10.438 0.330
24.2146 10.073 0.324
24.2350 9.813 0.320
24.2555 9.365 0.312
24.2760 9.104 0.308
24.2964 8.427 0.296
24.3169 8.708 0.301
24.3373 8.604 0.299
24.3578 8.479 0.297
24.3783 8.635 0.300
24.3987 8.323 0.294
24.4192 8.438 0.296
24.4397 8.042 0.289
24.4601 8.615 0.300
24.4806 8.656 0.300
24.5011 9.073 0.307
24.5215 9.021 0.307
24.5420 9.010 0.306
24.5624 9.063 0.307
24.5829 10.083 0.324
24.6034 11.219 0.342
24.6238 12.073 0.355
24.6443 14.354 0.387
24.6648 13.885 0.380
24.6852 12.781 0.365
24.7057 11.927 0.352
24.7261 10.917 0.337
24.7466 10.292 0.327
24.7671 9.333 0.312
24.7875 8.396 0.296
24.8080 8.010 0.289
24.8285 8.104 0.291
24.8489 8.792 0.303
24.8694 8.677 0.301
24.8898 8.292 0.294
24.9103 8.667 0.300
24.9308 7.948 0.288
24.9512 8.250 0.293
24.9717 8.302 0.294
24.9922 8.167 0.292
25.0126 8.031 0.289
25.0331 8.396 0.296
25.0535 8.250 0.293
25.0740 8.292 0.294
25.0945 8.198 0.292
25.1149 7.635 0.282
25.1354 7.813 0.285
25.1559 8.031 0.289
25.1763 8.396 0.296
25.1968 7.844 0.286
25.2172 7.490 0.279
25.2377 8.292 0.294
25.2582 8.771 0.302
25.2786 8.313 0.294
25.2991 8.781 0.302
25.3196 8.313 0.294
25.3400 8.417 0.296
25.3605 8.000 0.289
25.3810 8.625 0.300
25.4014 8.854 0.304
25.4219 9.073 0.307
25.4423 9.156 0.309
25.4628 10.656 0.333
25.4833 11.031 0.339
25.5037 13.115 0.370
25.5242 16.438 0.414
25.5447 19.698 0.453
25.5651 22.469 0.484
25.5856 19.760 0.454
25.6060 17.948 0.432
25.6265 15.542 0.402
25.6470 13.979 0.382
25.6674 11.438 0.345
25.6879 10.448 0.330
25.7084 9.990 0.323
25.7288 9.427 0.313
25.7493 9.240 0.310
25.7697 8.646 0.300
25.7902 9.479 0.314
25.8107 8.813 0.303
25.8311 8.729 0.302
25.8516 8.438 0.296
25.8721 8.667 0.300
25.8925 8.500 0.298
25.9130 8.219 0.293
25.9334 8.125 0.291
25.9539 8.708 0.301
25.9744 8.573 0.299
25.9948 8.344 0.295
26.0153 8.365 0.295
26.0358 8.396 0.296
26.0562 8.177 0.292
26.0767 7.927 0.287
26.0971 7.865 0.286
26.1176 8.271 0.294
26.1381 8.521 0.298
26.1585 8.427 0.296
26.1790 7.969 0.288
26.1995 8.104 0.291
26.2199 8.417 0.296
26.2404 8.917 0.305
26.2609 8.490 0.297
26.2813 8.740 0.302
26.3018 8.531 0.298
26.3222 8.490 0.297
26.3427 8.271 0.294
26.3632 9.010 0.306
26.3836 8.406 0.296
26.4041 8.656 0.300
26.4246 9.146 0.309
26.4450 9.563 0.316
26.4655 9.240 0.310
26.4859 9.635 0.317
26.5064 10.458 0.330
26.5269 9.656 0.317
26.5473 10.083 0.324
26.5678 10.500 0.331
26.5883 11.344 0.344
26.6087 12.750 0.364
26.6292 13.969 0.381
26.6496 15.073 0.396
26.6701 16.906 0.420
26.6906 16.969 0.420
26.7110 17.458 0.426
26.7315 17.010 0.421
26.7520 18.021 0.433
26.7724 17.333 0.425
26.7929 18.479 0.439
26.8133 19.510 0.451
26.8338 19.646 0.452
26.8543 20.177 0.458
26.8747 20.260 0.459
26.8952 19.792 0.454
26.9157 17.115 0.422
26.9361 15.708 0.405
26.9566 14.354 0.387
26.9770 12.427 0.360
26.9975 11.031 0.339
27.0180 10.792 0.335
27.0384 10.448 0.330
27.0589 9.771 0.319
27.0794 9.875 0.321
27.0998 9.833 0.320
27.1203 9.750 0.319
27.1408 9.646 0.317
27.1612 10.458 0.330
27.1817 10.667 0.333
27.2021 11.396 0.345
27.2226 12.438 0.360
27.2431 11.375 0.344
27.2635 11.021 0.339
27.2840 10.958 0.338
27.3045 10.667 0.333
27.3249 9.917 0.321
27.3454 10.802 0.335
27.3658 9.813 0.320
27.3863 11.073 0.340
27.4068 13.042 0.369
27.4272 14.250 0.385
27.4477 17.531 0.427
27.4682 16.906 0.420
27.4886 16.510 0.415
27.5091 14.344 0.387
27.5295 13.938 0.381
27.5500 12.656 0.363
27.5705 11.146 0.341
27.5909 10.740 0.334
27.6114 10.667 0.333
27.6319 10.104 0.324
27.6523 10.531 0.331
27.6728 10.948 0.338
27.6932 10.625 0.333
27.7137 10.802 0.335
27.7342 11.115 0.340
27.7546 11.510 0.346
27.7751 11.156 0.341
27.7956 11.135 0.341
27.8160 12.490 0.361
27.8365 12.938 0.367
27.8569 12.823 0.365
27.8774 13.177 0.370
27.8979 14.063 0.383
27.9183 15.188 0.398
27.9388 15.563 0.403
27.9593 15.031 0.396
27.9797 15.990 0.408
28.0002 16.917 0.420
28.0207 17.760 0.430
28.0411 19.208 0.447
28.0616 19.115 0.446
28.0820 20.781 0.465
28.1025 20.073 0.457
28.1230 20.708 0.464
28.1434 21.052 0.468
28.1639 21.219 0.470
28.1844 21.146 0.469
28.2048 21.302 0.471
28.2253 20.927 0.467
28.2457 21.635 0.475
28.2662 20.458 0.462
28.2867 20.802 0.465
28.3071 20.240 0.459
28.3276 18.271 0.436
28.3481 18.792 0.442
28.3685 17.510 0.427
28.3890 16.927 0.420
28.4094 16.885 0.419
28.4299 16.323 0.412
28.4504 16.479 0.414
28.4708 17.302 0.425
28.4913 18.375 0.438
28.5118 17.896 0.432
28.5322 18.917 0.444
28.5527 19.177 0.447
28.5731 19.000 0.445
28.5936 19.573 0.452
28.6141 19.250 0.448
28.6345 18.844 0.443
28.6550 19.958 0.456
28.6755 20.625 0.464
28.6959 22.604 0.485
28.7164 23.573 0.496
28.7368 24.188 0.502
28.7573 24.260 0.503
28.7778 23.688 0.497
28.7982 23.000 0.489
28.8187 20.833 0.466
28.8392 18.854 0.443
28.8596 16.010 0.408
28.8801 13.958 0.381
28.9006 12.656 0.363
28.9210 11.438 0.345
28.9415 9.833 0.320
28.9619 10.177 0.326
28.9824 9.865 0.321
29.0029 9.417 0.313
29.0233 9.104 0.308
29.0438 9.677 0.317
29.0643 9.156 0.309
29.0847 9.385 0.313
29.1052 8.698 0.301
29.1256 9.042 0.307
29.1461 9.104 0.308
29.1666 9.042 0.307
29.1870 9.031 0.307
29.2075 8.604 0.299
29.2280 9.698 0.318
29.2484 9.135 0.308
29.2689 10.458 0.330
29.2893 12.583 0.362
29.3098 14.458 0.388
29.3303 17.417 0.426
29.3507 20.031 0.457
29.3712 19.646 0.452
29.3917 17.927 0.432
29.4121 15.365 0.400
29.4326 14.104 0.383
29.4530 14.240 0.385
29.4735 11.688 0.349
29.4940 10.927 0.337
29.5144 10.938 0.338
29.5349 11.656 0.348
29.5554 12.635 0.363
29.5758 10.885 0.337
29.5963 10.635 0.333
29.6168 10.198 0.326
29.6372 10.000 0.323
29.6577 9.427 0.313
29.6781 8.292 0.294
29.6986 7.813 0.285
29.7191 8.365 0.295
29.7395 8.240 0.293
29.7600 7.938 0.288
29.7805 8.167 0.292
29.8009 8.031 0.289
29.8214 7.583 0.281
29.8418 7.510 0.280
29.8623 7.844 0.286
29.8828 7.948 0.288
29.9032 7.823 0.285
29.9237 7.698 0.283
29.9442 7.396 0.278
29.9646 7.750 0.284
29.9851 7.740 0.284
30.0055 7.417 0.278
30.0260 7.698 0.283
30.0465 7.750 0.284
30.0669 7.219 0.274
30.0874 7.823 0.285
30.1079 7.063 0.271
30.1283 7.365 0.277
30.1488 8.219 0.293
30.1692 7.490 0.279
30.1897 7.344 0.277
30.2102 7.354 0.277
30.2306 7.906 0.287
30.2511 7.583 0.281
30.2716 7.531 0.280
30.2920 7.542 0.280
30.3125 7.729 0.284
30.3329 7.552 0.280
30.3534 7.583 0.281
30.3739 7.281 0.275
30.3943 7.365 0.277
30.4148 7.167 0.273
30.4353 7.677 0.283
30.4557 7.865 0.286
30.4762 7.667 0.283
30.4967 7.292 0.276
30.5171 7.719 0.284
30.5376 7.771 0.285
30.5580 7.615 0.282
30.5785 8.010 0.289
30.5990 7.469 0.279
30.6194 7.656 0.282
30.6399 7.729 0.284
30.6604 7.469 0.279
30.6808 7.135 0.273
30.7013 8.042 0.289
30.7217 7.260 0.275
30.7422 7.302 0.276
30.7627 8.135 0.291
30.7831 7.677 0.283
30.8036 7.260 0.275
30.8241 7.521 0.280
30.8445 8.104 0.291
30.8650 7.156 0.273
30.8854 7.552 0.280
30.9059 7.302 0.276
30.9264 8.104 0.291
30.9468 8.063 0.290
30.9673 7.854 0.286
30.9878 7.417 0.278
31.0082 7.646 0.282
31.0287 7.917 0.287
31.0491 8.583 0.299
31.0696 7.646 0.282
31.0901 8.292 0.294
31.1105 7.490 0.279
31.1310 8.385 0.296
31.1515 7.865 0.286
31.1719 7.729 0.284
31.1924 8.208 0.292
31.2128 7.802 0.285
31.2333 7.333 0.276
31.2538 8.073 0.290
31.2742 7.823 0.285
31.2947 8.458 0.297
31.3152 8.344 0.295
31.3356 8.448 0.297
31.3561 8.750 0.302
31.3766 8.448 0.297
31.3970 8.927 0.305
31.4175 8.396 0.296
31.4379 7.969 0.288
31.4584 7.885 0.287
31.4789 8.292 0.294
31.4993 7.833 0.286
31.5198 8.083 0.290
31.5403 7.938 0.288
31.5607 7.010 0.270
31.5812 8.469 0.297
31.6016 8.500 0.298
31.6221 7.938 0.288
31.6426 7.813 0.285
31.6630 8.750 0.302
31.6835 8.135 0.291
31.7040 8.208 0.292
31.7244 9.073 0.307
31.7449 9.146 0.309
31.7653 9.094 0.308
31.7858 10.823 0.336
31.8063 10.802 0.335
31.8267 10.698 0.334
31.8472 10.990 0.338
31.8677 11.208 0.342
31.8881 12.583 0.362
31.9086 13.500 0.375
31.9290 15.094 0.397
31.9495 16.198 0.411
31.9700 18.010 0.433
31.9904 19.698 0.453
32.0109 19.031 0.445
32.0314 19.875 0.455
32.0518 21.010 0.468
32.0723 20.896 0.467
32.0927 22.510 0.484
32.1132 24.156 0.502
32.1337 26.083 0.521
32.1541 32.677 0.583
32.1746 40.823 0.652
32.1951 44.031 0.677
32.2155 43.823 0.676
32.2360 40.156 0.647
32.2565 39.250 0.639
32.2769 40.396 0.649
32.2974 33.406 0.590
32.3178 27.073 0.531
32.3383 22.594 0.485
32.3588 19.125 0.446
32.3792 16.781 0.418
32.3997 14.760 0.392
32.4202 12.646 0.363
32.4406 11.844 0.351
32.4611 10.406 0.329
32.4815 10.406 0.329
32.5020 9.948 0.322
32.5225 9.167 0.309
32.5429 8.927 0.305
32.5634 9.313 0.311
32.5839 8.573 0.299
32.6043 8.427 0.296
32.6248 8.208 0.292
32.6452 8.427 0.296
32.6657 8.240 0.293
32.6862 7.990 0.288
32.7066 8.240 0.293
32.7271 7.802 0.285
32.7476 8.385 0.296
32.7680 8.750 0.302
32.7885 7.750 0.284
32.8089 8.229 0.293
32.8294 8.365 0.295
32.8499 7.552 0.280
32.8703 7.823 0.285
32.8908 8.438 0.296
32.9113 8.198 0.292
32.9317 8.500 0.298
32.9522 8.667 0.300
32.9726 8.844 0.304
32.9931 8.552 0.298
33.0136 8.302 0.294
33.0340 8.677 0.301
33.0545 8.656 0.300
33.0750 9.104 0.308
33.0954 9.531 0.315
33.1159 10.354 0.328
33.1364 11.125 0.340
33.1568 11.906 0.352
33.1773 10.885 0.337
33.1977 10.656 0.333
33.2182 11.313 0.343
33.2387 11.260 0.342
33.2591 11.260 0.342
33.2796 11.781 0.350
33.3001 12.146 0.356
33.3205 12.052 0.354
33.3410 13.500 0.375
33.3614 12.458 0.360
33.3819 10.823 0.336
33.4024 11.156 0.341
33.4228 10.125 0.325
33.4433 9.781 0.319
33.4638 9.448 0.314
33.4842 8.865 0.304
33.5047 8.698 0.301
33.5251 8.969 0.306
33.5456 7.729 0.284
33.5661 8.167 0.292
33.5865 8.615 0.300
33.6070 7.594 0.281
33.6275 8.042 0.289
33.6479 8.333 0.295
33.6684 7.823 0.285
33.6888 8.583 0.299
33.7093 7.979 0.288
33.7298 8.594 0.299
33.7502 7.990 0.288
33.7707 8.063 0.290
33.7912 8.250 0.293
33.8116 8.104 0.291
33.8321 8.229 0.293
33.8526 8.573 0.299
33.8730 8.010 0.289
33.8935 8.521 0.298
33.9139 8.229 0.293
33.9344 8.208 0.292
33.9549 8.021 0.289
33.9753 8.292 0.294
33.9958 8.125 0.291
34.0163 8.177 0.292
34.0367 7.896 0.287
34.0572 7.865 0.286
34.0776 8.583 0.299
34.0981 8.781 0.302
34.1186 8.990 0.306
34.1390 9.927 0.322
34.1595 11.250 0.342
34.1800 13.208 0.371
34.2004 15.229 0.398
34.2209 15.896 0.407
34.2413 12.844 0.366
34.2618 12.167 0.356
34.2823 12.740 0.364
34.3027 12.365 0.359
34.3232 11.052 0.339
34.3437 9.656 0.317
34.3641 9.198 0.310
34.3846 8.708 0.301
34.4050 8.219 0.293
34.4255 8.156 0.291
34.4460 8.094 0.290
34.4664 7.833 0.286
34.4869 7.635 0.282
34.5074 7.688 0.283
34.5278 7.948 0.288
34.5483 7.344 0.277
34.5687 8.063 0.290
34.5892 7.771 0.285
34.6097 8.219 0.293
34.6301 8.333 0.295
34.6506 7.656 0.282
34.6711 7.865 0.286
34.6915 7.708 0.283
34.7120 8.625 0.300
34.7325 8.646 0.300
34.7529 8.500 0.298
34.7734 8.938 0.305
34.7938 9.188 0.309
34.8143 9.667 0.317
34.8348 11.896 0.352
34.8552 12.521 0.361
34.8757 16.063 0.409
34.8962 21.802 0.477
34.9166 26.958 0.530
34.9371 28.677 0.547
34.9575 24.885 0.509
34.9780 21.813 0.477
34.9985 20.625 0.464
35.0189 20.958 0.467
35.0394 19.563 0.451
35.0599 15.823 0.406
35.0803 13.281 0.372
35.1008 11.917 0.352
35.1212 11.469 0.346
35.1417 11.948 0.353
35.1622 10.990 0.338
35.1826 11.802 0.351
35.2031 11.010 0.339
35.2236 10.594 0.332
35.2440 10.438 0.330
35.2645 10.740 0.334
35.2849 11.177 0.341
35.3054 11.104 0.340
35.3259 11.281 0.343
35.3463 11.646 0.348
35.3668 11.958 0.353
35.3873 12.646 0.363
35.4077 12.656 0.363
35.4282 13.219 0.371
35.4486 12.969 0.368
35.4691 13.552 0.376
35.4896 12.458 0.360
35.5100 12.500 0.361
35.5305 11.156 0.341
35.5510 10.948 0.338
35.5714 10.854 0.336
35.5919 9.802 0.320
35.6124 9.083 0.308
35.6328 8.823 0.303
35.6533 8.896 0.304
35.6737 8.604 0.299
35.6942 8.083 0.290
35.7147 9.531 0.315
35.7351 9.833 0.320
35.7556 9.844 0.320
35.7761 9.781 0.319
35.7965 9.323 0.312
35.8170 9.458 0.314
35.8374 9.302 0.311
35.8579 9.188 0.309
35.8784 9.281 0.311
35.8988 9.573 0.316
35.9193 10.531 0.331
35.9398 9.969 0.322
35.9602 9.198 0.310
35.9807 9.625 0.317
36.0011 9.656 0.317
36.0216 10.333 0.328
36.0421 10.396 0.329
36.0625 9.792 0.319
36.0830 8.927 0.305
36.1035 8.760 0.302
36.1239 8.802 0.303
36.1444 8.896 0.304
36.1648 9.188 0.309
36.1853 8.135 0.291
36.2058 8.469 0.297
36.2262 8.146 0.291
36.2467 7.292 0.276
36.2672 7.656 0.282
36.2876 7.688 0.283
36.3081 8.104 0.291
36.3285 7.563 0.281
36.3490 7.417 0.278
36.3695 7.344 0.277
36.3899 7.646 0.282
36.4104 7.740 0.284
36.4309 8.010 0.289
36.4513 8.031 0.289
36.4718 8.167 0.292
36.4923 7.917 0.287
36.5127 8.063 0.290
36.5332 8.813 0.303
36.5536 9.031 0.307
36.5741 9.875 0.321
36.5946 10.615 0.333
36.6150 10.677 0.333
36.6355 10.760 0.335
36.6560 10.833 0.336
36.6764 10.458 0.330
36.6969 10.802 0.335
36.7173 10.771 0.335
36.7378 10.208 0.326
36.7583 10.906 0.337
36.7787 10.458 0.330
36.7992 10.688 0.334
36.8197 10.677 0.333
36.8401 11.615 0.348
36.8606 12.052 0.354
36.8810 11.531 0.347
36.9015 12.844 0.366
36.9220 12.583 0.362
36.9424 12.031 0.354
36.9629 11.542 0.347
36.9834 12.010 0.354
37.0038 11.010 0.339
37.0243 10.833 0.336
37.0447 10.563 0.332
37.0652 10.135 0.325
37.0857 9.583 0.316
37.1061 9.063 0.307
37.1266 8.615 0.300
37.1471 9.104 0.308
37.1675 9.958 0.322
37.1880 9.698 0.318
37.2084 10.750 0.335
37.2289 12.271 0.358
37.2494 11.354 0.344
37.2698 10.344 0.328
37.2903 9.292 0.311
37.3108 10.406 0.329
37.3312 9.698 0.318
37.3517 9.958 0.322
37.3722 8.354 0.295
37.3926 7.854 0.286
37.4131 8.260 0.293
37.4335 8.073 0.290
37.4540 7.854 0.286
37.4745 8.615 0.300
37.4949 7.781 0.285
37.5154 7.792 0.285
37.5359 8.135 0.291
37.5563 7.979 0.288
37.5768 7.875 0.286
37.5972 7.781 0.285
37.6177 7.802 0.285
37.6382 7.917 0.287
37.6586 8.375 0.295
37.6791 8.333 0.295
37.6996 8.604 0.299
37.7200 7.938 0.288
37.7405 7.885 0.287
37.7609 8.698 0.301
37.7814 8.854 0.304
37.8019 8.792 0.303
37.8223 8.469 0.297
37.8428 9.542 0.315
37.8633 9.823 0.320
37.8837 9.906 0.321
37.9042 9.719 0.318
37.9246 10.448 0.330
37.9451 11.031 0.339
37.9656 11.010 0.339
37.9860 11.323 0.343
38.0065 12.281 0.358
38.0270 12.375 0.359
38.0474 12.958 0.367
38.0679 13.448 0.374
38.0884 14.313 0.386
38.1088 14.771 0.392
38.1293 15.385 0.400
38.1497 15.667 0.404
38.1702 16.229 0.411
38.1907 16.260 0.412
38.2111 17.490 0.427
38.2316 19.073 0.446
38.2521 18.542 0.439
38.2725 18.198 0.435
38.2930 18.854 0.443
38.3134 18.000 0.433
38.3339 18.094 0.434
38.3544 18.219 0.436
38.3748 17.125 0.422
38.3953 17.073 0.422
38.4158 15.917 0.407
38.4362 16.490 0.414
38.4567 15.365 0.400
38.4771 15.385 0.400
38.4976 14.594 0.390
38.5181 13.833 0.380
38.5385 13.188 0.371
38.5590 13.031 0.368
38.5795 12.938 0.367
38.5999 12.479 0.361
38.6204 11.760 0.350
38.6408 10.771 0.335
38.6613 11.167 0.341
38.6818 10.656 0.333
38.7022 9.823 0.320
38.7227 9.583 0.316
38.7432 9.500 0.315
38.7636 9.583 0.316
38.7841 8.917 0.305
38.8045 8.844 0.304
38.8250 8.625 0.300
38.8455 9.083 0.308
38.8659 9.250 0.310
38.8864 8.260 0.293
38.9069 8.021 0.289
38.9273 8.208 0.292
38.9478 8.271 0.294
38.9683 8.042 0.289
38.9887 8.094 0.290
39.0092 7.719 0.284
39.0296 7.458 0.279
39.0501 7.896 0.287
39.0706 8.010 0.289
39.0910 7.979 0.288
39.1115 8.385 0.296
39.1320 8.417 0.296
39.1524 7.844 0.286
39.1729 8.250 0.293
39.1933 8.208 0.292
39.2138 8.656 0.300
39.2343 8.979 0.306
39.2547 9.094 0.308
39.2752 9.385 0.313
39.2957 10.156 0.325
39.3161 11.458 0.345
39.3366 12.583 0.362
39.3570 14.094 0.383
39.3775 14.844 0.393
39.3980 15.979 0.408
39.4184 16.271 0.412
39.4389 17.198 0.423
39.4594 18.188 0.435
39.4798 18.552 0.440
39.5003 17.844 0.431
39.5207 18.531 0.439
39.5412 17.969 0.433
39.5617 18.635 0.441
39.5821 17.990 0.433
39.6026 17.781 0.430
39.6231 18.917 0.444
39.6435 19.094 0.446
39.6640 20.281 0.460
39.6844 20.021 0.457
39.7049 21.333 0.471
39.7254 21.656 0.475
39.7458 22.833 0.488
39.7663 22.083 0.480
39.7868 22.656 0.486
39.8072 21.313 0.471
39.8277 20.042 0.457
39.8482 19.042 0.445
39.8686 18.385 0.438
39.8891 15.521 0.402
39.9095 15.323 0.400
39.9300 12.156 0.356
39.9505 11.000 0.339
39.9709 9.990 0.323
39.9914 9.667 0.317
40.0119 8.750 0.302
40.0323 8.427 0.296
40.0528 7.865 0.286
40.0732 7.844 0.286
40.0937 8.021 0.289
40.1142 7.740 0.284
40.1346 8.104 0.291
40.1551 7.625 0.282
40.1756 7.385 0.277
40.1960 7.792 0.285
40.2165 7.719 0.284
40.2369 7.896 0.287
40.2574 8.104 0.291
40.2779 8.052 0.290
40.2983 8.771 0.302
40.3188 9.438 0.314
40.3393 10.104 0.324
40.3597 10.125 0.325
40.3802 9.542 0.315
40.4006 9.396 0.313
40.4211 8.698 0.301
40.4416 8.813 0.303
40.4620 9.188 0.309
40.4825 8.458 0.297
40.5030 7.896 0.287
40.5234 8.073 0.290
40.5439 8.438 0.296
40.5643 7.771 0.285
40.5848 8.698 0.301
40.6053 9.021 0.307
40.6257 9.427 0.313
40.6462 10.271 0.327
40.6667 9.781 0.319
40.6871 11.146 0.341
40.7076 12.135 0.356
40.7281 15.406 0.401
40.7485 19.531 0.451
40.7690 24.542 0.506
40.7894 25.042 0.511
40.8099 20.010 0.457
40.8304 17.656 0.429
40.8508 16.875 0.419
40.8713 16.917 0.420
40.8918 17.521 0.427
40.9122 14.771 0.392
40.9327 12.094 0.355
40.9531 10.448 0.330
40.9736 10.104 0.324
40.9941 9.781 0.319
41.0145 9.635 0.317
41.0350 8.990 0.306
41.0555 8.948 0.305
41.0759 9.010 0.306
41.0964 8.281 0.294
41.1168 8.771 0.302
41.1373 8.490 0.297
41.1578 7.625 0.282
41.1782 8.781 0.302
41.1987 8.990 0.306
41.2192 8.969 0.306
41.2396 9.802 0.320
41.2601 9.500 0.315
41.2805 9.052 0.307
41.3010 8.594 0.299
41.3215 8.521 0.298
41.3419 8.927 0.305
41.3624 7.302 0.276
41.3829 7.792 0.285
41.4033 7.313 0.276
41.4238 7.177 0.273
41.4442 6.917 0.268
41.4647 6.740 0.265
41.4852 7.385 0.277
41.5056 6.594 0.262
41.5261 7.052 0.271
41.5466 6.760 0.265
41.5670 7.146 0.273
41.5875 7.021 0.270
41.6080 7.000 0.270
41.6284 7.094 0.272
41.6489 7.073 0.271
41.6693 7.365 0.277
41.6898 6.927 0.269
41.7103 6.927 0.269
41.7307 7.479 0.279
41.7512 8.104 0.291
41.7717 8.271 0.294
41.7921 9.740 0.319
41.8126 10.688 0.334
41.8330 12.938 0.367
41.8535 15.729 0.405
41.8740 15.469 0.401
41.8944 12.844 0.366
41.9149 11.208 0.342
41.9354 11.292 0.343
41.9558 11.760 0.350
41.9763 11.833 0.351
41.9967 10.583 0.332
42.0172 9.323 0.312
42.0377 8.000 0.289
42.0581 7.823 0.285
42.0786 7.313 0.276
42.0991 7.531 0.280
42.1195 7.594 0.281
42.1400 7.052 0.271
42.1604 6.813 0.266
42.1809 6.500 0.260
42.2014 6.302 0.256
42.2218 7.156 0.273
42.2423 6.823 0.267
42.2628 7.052 0.271
42.2832 6.969 0.269
42.3037 6.885 0.268
42.3242 7.115 0.272
42.3446 7.698 0.283
42.3651 7.948 0.288
42.3855 7.208 0.274
42.4060 7.594 0.281
42.4265 7.354 0.277
42.4469 7.521 0.280
42.4674 7.854 0.286
42.4879 8.188 0.292
42.5083 7.854 0.286
42.5288 8.635 0.300
42.5492 7.573 0.281
42.5697 6.979 0.270
42.5902 7.042 0.271
42.6106 7.542 0.280
42.6311 7.823 0.285
42.6516 8.031 0.289
42.6720 7.542 0.280
42.6925 6.688 0.264
42.7129 7.490 0.279
42.7334 7.052 0.271
42.7539 6.771 0.266
42.7743 7.104 0.272
42.7948 6.938 0.269
42.8153 7.042 0.271
42.8357 7.125 0.272
42.8562 7.042 0.271
42.8766 6.906 0.268
42.8971 6.979 0.270
42.9176 6.583 0.262
42.9380 6.250 0.255
42.9585 6.219 0.255
42.9790 6.250 0.255
42.9994 6.344 0.257
43.0199 6.490 0.260
43.0403 6.406 0.258
43.0608 6.823 0.267
43.0813 7.531 0.280
43.1017 8.375 0.295
43.1222 7.677 0.283
43.1427 7.688 0.283
43.1631 6.865 0.267
43.1836 7.229 0.274
43.2041 7.219 0.274
43.2245 6.573 0.262
43.2450 6.677 0.264
43.2654 7.052 0.271
43.2859 7.219 0.274
43.3064 7.146 0.273
43.3268 7.021 0.270
43.3473 6.573 0.262
43.3678 7.396 0.278
43.3882 6.896 0.268
43.4087 7.250 0.275
43.4291 6.990 0.270
43.4496 7.333 0.276
43.4701 6.656 0.263
43.4905 6.938 0.269
43.5110 6.875 0.268
43.5315 6.771 0.266
43.5519 7.354 0.277
43.5724 7.031 0.271
43.5928 6.688 0.264
43.6133 6.438 0.259
43.6338 7.365 0.277
43.6542 7.063 0.271
43.6747 6.979 0.270
43.6952 7.677 0.283
43.7156 7.156 0.273
43.7361 7.104 0.272
43.7565 7.208 0.274
43.7770 7.000 0.270
43.7975 7.469 0.279
43.8179 8.094 0.290
43.8384 8.448 0.297
43.8589 9.313 0.311
43.8793 8.427 0.296
43.8998 7.969 0.288
43.9202 7.010 0.270
43.9407 7.646 0.282
43.9612 7.771 0.285
43.9816 7.448 0.279
44.0021 7.385 0.277
44.0226 7.135 0.273
44.0430 6.604 0.262
44.0635 6.990 0.270
44.0840 6.646 0.263
44.1044 6.708 0.264
44.1249 6.333 0.257
44.1453 6.844 0.267
44.1658 6.333 0.257
44.1863 6.688 0.264
44.2067 6.750 0.265
44.2272 6.813 0.266
44.2477 6.354 0.257
44.2681 6.677 0.264
44.2886 6.813 0.266
44.3090 7.406 0.278
44.3295 6.958 0.269
44.3500 6.990 0.270
44.3704 7.260 0.275
44.3909 7.000 0.270
44.4114 7.531 0.280
44.4318 7.406 0.278
44.4523 7.479 0.279
44.4727 8.323 0.294
44.4932 8.979 0.306
44.5137 8.635 0.300
44.5341 9.979 0.322
44.5546 10.552 0.332
44.5751 10.917 0.337
44.5955 12.188 0.356
44.6160 12.292 0.358
44.6364 13.260 0.372
44.6569 14.656 0.391
44.6774 14.604 0.390
44.6978 14.781 0.392
44.7183 14.385 0.387
44.7388 15.021 0.396
44.7592 15.083 0.396
44.7797 15.396 0.400
44.8001 15.688 0.404
44.8206 15.375 0.400
44.8411 15.552 0.402
44.8615 15.990 0.408
44.8820 15.490 0.402
44.9025 16.573 0.415
44.9229 16.833 0.419
44.9434 18.229 0.436
44.9639 17.917 0.432
44.9843 19.438 0.450
45.0048 18.573 0.440
45.0252 19.646 0.452
45.0457 19.219 0.447
45.0662 18.333 0.437
45.0866 16.938 0.420
45.1071 16.396 0.413
45.1276 15.792 0.406
45.1480 13.708 0.378
45.1685 13.167 0.370
45.1889 11.948 0.353
45.2094 11.385 0.344
45.2299 10.177 0.326
45.2503 9.781 0.319
45.2708 9.156 0.309
45.2913 8.635 0.300
45.3117 8.750 0.302
45.3322 7.833 0.286
45.3526 7.625 0.282
45.3731 7.573 0.281
45.3936 7.000 0.270
45.4140 7.594 0.281
45.4345 7.167 0.273
45.4550 6.719 0.265
45.4754 7.271 0.275
45.4959 7.292 0.276
45.5163 6.990 0.270
45.5368 6.885 0.268
45.5573 7.052 0.271
45.5777 7.052 0.271
45.5982 7.531 0.280
45.6187 7.427 0.278
45.6391 7.521 0.280
45.6596 7.719 0.284
45.6800 8.063 0.290
45.7005 7.698 0.283
45.7210 8.135 0.291
45.7414 8.365 0.295
45.7619 8.542 0.298
45.7824 7.771 0.285
45.8028 8.083 0.290
45.8233 8.479 0.297
45.8438 7.792 0.285
45.8642 8.427 0.296
45.8847 8.594 0.299
45.9051 8.469 0.297
45.9256 8.365 0.295
45.9461 8.365 0.295
45.9665 7.698 0.283
45.9870 8.302 0.294
46.0075 7.615 0.282
46.0279 8.052 0.290
46.0484 7.250 0.275
46.0688 7.802 0.285
46.0893 7.229 0.274
46.1098 7.115 0.272
46.1302 6.948 0.269
46.1507 7.156 0.273
46.1712 7.073 0.271
46.1916 6.896 0.268
46.2121 7.177 0.273
46.2325 7.521 0.280
46.2530 7.125 0.272
46.2735 7.250 0.275
46.2939 6.906 0.268
46.3144 7.135 0.273
46.3349 6.885 0.268
46.3553 6.729 0.265
46.3758 7.031 0.271
46.3962 6.375 0.258
46.4167 6.875 0.268
46.4372 6.771 0.266
46.4576 6.510 0.260
46.4781 6.760 0.265
46.4986 6.677 0.264
46.5190 6.979 0.270
46.5395 7.469 0.279
46.5600 8.125 0.291
46.5804 9.677 0.317
46.6009 10.500 0.331
46.6213 9.688 0.318
46.6418 9.042 0.307
46.6623 7.854 0.286
46.6827 7.979 0.288
46.7032 8.510 0.298
46.7237 9.010 0.306
46.7441 8.979 0.306
46.7646 8.365 0.295
46.7850 7.229 0.274
46.8055 6.906 0.268
46.8260 6.333 0.257
46.8464 6.260 0.255
46.8669 6.260 0.255
46.8874 6.354 0.257
46.9078 6.760 0.265
46.9283 6.729 0.265
46.9487 6.740 0.265
46.9692 6.615 0.262
46.9897 5.448 0.238
47.0101 6.656 0.263
47.0306 6.760 0.265
47.0511 6.760 0.265
47.0715 6.688 0.264
47.0920 6.344 0.257
47.1124 6.031 0.251
47.1329 6.531 0.261
47.1534 6.510 0.260
47.1738 6.740 0.265
47.1943 6.635 0.263
47.2148 6.740 0.265
47.2352 6.531 0.261
47.2557 6.469 0.260
47.2761 6.333 0.257
47.2966 6.740 0.265
47.3171 6.813 0.266
47.3375 6.760 0.265
47.3580 7.177 0.273
47.3785 7.167 0.273
47.3989 7.156 0.273
47.4194 7.156 0.273
47.4399 7.698 0.283
47.4603 7.167 0.273
47.4808 7.583 0.281
47.5012 7.646 0.282
47.5217 7.198 0.274
47.5422 7.052 0.271
47.5626 7.604 0.281
47.5831 7.333 0.276
47.6036 7.240 0.275
47.6240 6.802 0.266
47.6445 6.948 0.269
47.6649 6.552 0.261
47.6854 7.469 0.279
47.7059 7.125 0.272
47.7263 7.250 0.275
47.7468 7.073 0.271
47.7673 7.302 0.276
47.7877 6.479 0.260
47.8082 7.031 0.271
47.8286 7.021 0.270
47.8491 6.927 0.269
47.8696 6.333 0.257
47.8900 6.677 0.264
47.9105 6.781 0.266
47.9310 7.083 0.272
47.9514 6.583 0.262
47.9719 7.021 0.270
47.9923 7.010 0.270
48.0128 6.813 0.266
48.0333 6.708 0.264
48.0537 6.458 0.259
48.0742 6.823 0.267
48.0947 6.948 0.269
48.1151 6.677 0.264
48.1356 7.104 0.272
48.1560 7.104 0.272
48.1765 7.229 0.274
48.1970 6.844 0.267
48.2174 7.042 0.271
48.2379 7.125 0.272
48.2584 7.781 0.285
48.2788 7.198 0.274
48.2993 8.219 0.293
48.3198 7.854 0.286
48.3402 7.969 0.288
48.3607 8.594 0.299
48.3811 9.083 0.308
48.4016 9.521 0.315
48.4221 10.292 0.327
48.4425 10.365 0.329
48.4630 10.115 0.325
48.4835 10.208 0.326
48.5039 10.469 0.330
48.5244 11.000 0.339
48.5448 11.188 0.341
48.5653 11.375 0.344
48.5858 10.906 0.337
48.6062 10.948 0.338
48.6267 11.198 0.342
48.6472 11.010 0.339
48.6676 11.625 0.348
48.6881 11.667 0.349
48.7085 12.146 0.356
48.7290 11.729 0.350
48.7495 11.917 0.352
48.7699 12.156 0.356
48.7904 12.021 0.354
48.8109 13.094 0.369
48.8313 12.708 0.364
48.8518 13.094 0.369
48.8722 12.719 0.364
48.8927 12.979 0.368
48.9132 13.188 0.371
48.9336 13.385 0.373
48.9541 13.792 0.379
48.9746 14.229 0.385
48.9950 15.146 0.397
49.0155 14.729 0.392
49.0359 16.094 0.409
49.0564 16.406 0.413
49.0769 16.531 0.415
49.0973 16.396 0.413
49.1178 16.021 0.409
49.1383 16.302 0.412
49.1587 17.313 0.425
49.1792 16.990 0.421
49.1997 17.427 0.426
49.2201 16.469 0.414
49.2406 17.906 0.432
49.2610 15.635 0.404
49.2815 16.094 0.409
49.3020 16.656 0.417
49.3224 16.260 0.412
49.3429 15.490 0.402
49.3634 14.750 0.392
49.3838 13.458 0.374
49.4043 14.094 0.383
49.4247 13.219 0.371
49.4452 12.896 0.367
49.4657 12.031 0.354
49.4861 11.188 0.341
49.5066 10.667 0.333
49.5271 10.333 0.328
49.5475 9.479 0.314
49.5680 10.031 0.323
49.5884 8.802 0.303
49.6089 8.979 0.306
49.6294 8.573 0.299
49.6498 9.500 0.315
49.6703 8.427 0.296
49.6908 8.385 0.296
49.7112 8.760 0.302
49.7317 8.917 0.305
49.7521 8.688 0.301
49.7726 8.677 0.301
49.7931 8.125 0.291
49.8135 8.167 0.292
49.8340 7.667 0.283
49.8545 7.490 0.279
49.8749 7.323 0.276
49.8954 7.406 0.278
49.9158 7.521 0.280
49.9363 7.219 0.274
49.9568 6.354 0.257
49.9772 6.448 0.259
49.9977 6.823 0.267
50.0182 7.073 0.271
50.0386 6.135 0.253
50.0591 6.396 0.258
50.0796 6.625 0.263
50.1000 6.240 0.255
50.1205 6.635 0.263
50.1409 6.406 0.258
50.1614 6.635 0.263
50.1819 6.229 0.255
50.2023 6.406 0.258
50.2228 7.708 0.283
50.2433 7.000 0.270
50.2637 7.396 0.278
50.2842 7.615 0.282
50.3046 7.000 0.270
50.3251 7.344 0.277
50.3456 6.958 0.269
50.3660 7.115 0.272
50.3865 7.875 0.286
50.4070 7.354 0.277
50.4274 7.208 0.274
50.4479 6.740 0.265
50.4683 6.823 0.267
50.4888 7.083 0.272
50.5093 7.052 0.271
50.5297 7.281 0.275
50.5502 7.781 0.285
50.5707 7.781 0.285
50.5911 7.542 0.280
50.6116 7.125 0.272
50.6320 7.354 0.277
50.6525 7.271 0.275
50.6730 6.979 0.270
50.6934 7.781 0.285
50.7139 7.073 0.271
50.7344 6.865 0.267
50.7548 6.948 0.269
50.7753 6.792 0.266
50.7958 6.938 0.269
50.8162 7.177 0.273
50.8367 7.010 0.270
50.8571 6.719 0.265
50.8776 7.167 0.273
50.8981 7.958 0.288
50.9185 7.583 0.281
50.9390 7.542 0.280
50.9595 7.479 0.279
50.9799 8.115 0.291
51.0004 8.104 0.291
51.0208 7.490 0.279
51.0413 7.740 0.284
51.0618 7.698 0.283
51.0822 7.542 0.280
51.1027 6.990 0.270
51.1232 7.427 0.278
51.1436 6.792 0.266
51.1641 7.333 0.276
51.1845 6.760 0.265
51.2050 6.708 0.264
51.2255 6.740 0.265
51.2459 6.302 0.256
51.2664 6.719 0.265
51.2869 6.177 0.254
51.3073 6.396 0.258
51.3278 6.229 0.255
51.3482 6.125 0.253
51.3687 6.260 0.255
51.3892 6.031 0.251
51.4096 6.500 0.260
51.4301 7.250 0.275
51.4506 7.188 0.274
51.4710 6.563 0.261
51.4915 7.219 0.274
51.5119 6.896 0.268
51.5324 7.635 0.282
51.5529 7.719 0.284
51.5733 8.333 0.295
51.5938 8.396 0.296
51.6143 9.083 0.308
51.6347 8.656 0.300
51.6552 8.146 0.291
51.6757 8.333 0.295
51.6961 7.813 0.285
51.7166 8.073 0.290
51.7370 7.833 0.286
51.7575 8.406 0.296
51.7780 7.833 0.286
51.7984 7.625 0.282
51.8189 7.313 0.276
51.8394 7.094 0.272
51.8598 7.656 0.282
51.8803 7.854 0.286
51.9007 8.302 0.294
51.9212 7.292 0.276
51.9417 6.844 0.267
51.9621 7.198 0.274
51.9826 7.354 0.277
52.0031 6.656 0.263
52.0235 6.385 0.258
52.0440 7.052 0.271
52.0644 7.281 0.275
52.0849 6.708 0.264
52.1054 6.438 0.259
52.1258 6.385 0.258
52.1463 6.208 0.254
52.1668 6.135 0.253
52.1872 6.281 0.256
52.2077 6.188 0.254
52.2281 7.073 0.271
52.2486 6.469 0.260
52.2691 6.667 0.264
52.2895 6.771 0.266
52.3100 6.063 0.251
52.3305 6.406 0.258
52.3509 5.865 0.247
52.3714 5.979 0.250
52.3918 6.292 0.256
52.4123 6.260 0.255
52.4328 6.750 0.265
52.4532 6.115 0.252
52.4737 5.802 0.246
52.4942 6.104 0.252
52.5146 6.250 0.255
52.5351 5.948 0.249
52.5556 6.156 0.253
52.5760 6.000 0.250
52.5965 6.302 0.256
52.6169 6.552 0.261
52.6374 6.656 0.263
52.6579 6.969 0.269
52.6783 6.844 0.267
52.6988 7.510 0.280
52.7193 7.656 0.282
52.7397 8.115 0.291
52.7602 7.927 0.287
52.7806 7.792 0.285
52.8011 8.208 0.292
52.8216 8.500 0.298
52.8420 8.573 0.299
52.8625 7.927 0.287
52.8830 8.302 0.294
52.9034 8.781 0.302
52.9239 8.646 0.300
52.9443 9.000 0.306
52.9648 9.385 0.313
52.9853 9.729 0.318
53.0057 9.698 0.318
53.0262 9.604 0.316
53.0467 9.948 0.322
53.0671 9.875 0.321
53.0876 9.958 0.322
53.1080 9.813 0.320
53.1285 10.260 0.327
53.1490 9.615 0.316
53.1694 10.615 0.333
53.1899 10.250 0.327
53.2104 10.281 0.327
53.2308 10.354 0.328
53.2513 9.740 0.319
53.2717 10.063 0.324
53.2922 10.313 0.328
53.3127 9.531 0.315
53.3331 8.958 0.305
53.3536 8.333 0.295
53.3741 7.979 0.288
53.3945 8.115 0.291
53.4150 7.958 0.288
53.4355 7.146 0.273
53.4559 7.188 0.274
53.4764 6.823 0.267
53.4968 6.490 0.260
53.5173 6.708 0.264
53.5378 6.406 0.258
53.5582 6.458 0.259
53.5787 6.385 0.258
53.5992 6.271 0.256
53.6196 6.698 0.264
53.6401 6.552 0.261
53.6605 7.073 0.271
53.6810 7.969 0.288
53.7015 7.385 0.277
53.7219 7.646 0.282
53.7424 7.552 0.280
53.7629 7.281 0.275
53.7833 7.656 0.282
53.8038 7.792 0.285
53.8242 8.063 0.290
53.8447 8.073 0.290
53.8652 7.427 0.278
53.8856 7.406 0.278
53.9061 7.531 0.280
53.9266 7.542 0.280
53.9470 7.521 0.280
53.9675 7.740 0.284
53.9879 7.708 0.283
54.0084 7.240 0.275
54.0289 7.667 0.283
54.0493 7.500 0.280
54.0698 7.365 0.277
54.0903 7.656 0.282
54.1107 7.260 0.275
54.1312 7.875 0.286
54.1516 7.469 0.279
54.1721 8.125 0.291
54.1926 7.854 0.286
54.2130 7.760 0.284
54.2335 8.927 0.305
54.2540 8.292 0.294
54.2744 8.615 0.300
54.2949 8.427 0.296
54.3154 8.750 0.302
54.3358 8.375 0.295
54.3563 8.927 0.305
54.3767 8.729 0.302
54.3972 8.208 0.292
54.4177 8.365 0.295
54.4381 8.469 0.297
54.4586 8.385 0.296
54.4791 8.417 0.296
54.4995 8.510 0.298
54.5200 8.552 0.298
54.5404 8.573 0.299
54.5609 7.813 0.285
54.5814 7.906 0.287
54.6018 7.313 0.276
54.6223 8.010 0.289
54.6428 7.875 0.286
54.6632 7.865 0.286
54.6837 7.615 0.282
54.7041 8.063 0.290
54.7246 8.156 0.291
54.7451 8.344 0.295
54.7655 8.031 0.289
54.7860 8.677 0.301
54.8065 9.281 0.311
54.8269 9.010 0.306
54.8474 9.479 0.314
54.8678 10.510 0.331
54.8883 10.365 0.329
54.9088 10.844 0.336
54.9292 11.125 0.340
54.9497 11.333 0.344
54.9702 11.427 0.345
54.9906 12.083 0.355
55.0111 12.729 0.364
55.0316 12.729 0.364
55.0520 15.188 0.398
55.0725 16.104 0.410
55.0929 15.052 0.396
55.1134 15.083 0.396
55.1339 14.740 0.392
55.1543 14.167 0.384
55.1748 15.104 0.397
55.1953 15.510 0.402
55.2157 15.177 0.398
55.2362 15.281 0.399
55.2566 15.125 0.397
55.2771 14.708 0.391
55.2976 13.990 0.382
55.3180 15.438 0.401
55.3385 13.385 0.373
55.3590 14.365 0.387
55.3794 13.563 0.376
55.3999 14.813 0.393
55.4203 13.771 0.379
55.4408 13.583 0.376
55.4613 12.323 0.358
55.4817 11.948 0.353
55.5022 11.302 0.343
55.5227 11.729 0.350
55.5431 10.938 0.338
55.5636 10.635 0.333
55.5840 9.469 0.314
55.6045 9.260 0.311
55.6250 8.458 0.297
55.6454 8.188 0.292
55.6659 7.958 0.288
55.6864 6.938 0.269
55.7068 6.563 0.261
55.7273 6.979 0.270
55.7477 6.375 0.258
55.7682 5.667 0.243
55.7887 6.260 0.255
55.8091 5.948 0.249
55.8296 5.667 0.243
55.8501 5.771 0.245
55.8705 5.698 0.244
55.8910 5.510 0.240
55.9115 5.021 0.229
55.9319 5.510 0.240
55.9524 5.604 0.242
55.9728 5.646 0.243
55.9933 5.354 0.236
56.0138 5.094 0.230
56.0342 5.490 0.239
56.0547 5.104 0.231
56.0752 5.302 0.235
56.0956 5.406 0.237
56.1161 5.552 0.240
56.1365 5.479 0.239
56.1570 5.510 0.240
56.1775 5.552 0.240
56.1979 5.531 0.240
56.2184 5.563 0.241
56.2389 5.292 0.235
56.2593 5.583 0.241
56.2798 5.396 0.237
56.3002 5.490 0.239
56.3207 5.427 0.238
56.3412 5.490 0.239
56.3616 5.458 0.238
56.3821 5.208 0.233
56.4026 5.510 0.240
56.4230 5.573 0.241
56.4435 5.406 0.237
56.4639 5.438 0.238
56.4844 5.510 0.240
56.5049 5.813 0.246
56.5253 5.438 0.238
56.5458 5.229 0.233
56.5663 5.865 0.247
56.5867 5.771 0.245
56.6072 6.135 0.253
56.6276 6.385 0.258
56.6481 7.385 0.277
56.6686 7.750 0.284
56.6890 7.792 0.285
56.7095 7.594 0.281
56.7300 6.469 0.260
56.7504 6.135 0.253
56.7709 6.063 0.251
56.7914 6.031 0.251
56.8118 6.354 0.257
56.8323 6.656 0.263
56.8527 6.375 0.258
56.8732 5.958 0.249
56.8937 5.813 0.246
56.9141 5.208 0.233
56.9346 5.635 0.242
56.9551 5.510 0.240
56.9755 5.135 0.231
56.9960 5.458 0.238
57.0164 5.208 0.233
57.0369 4.833 0.224
57.0574 5.250 0.234
57.0778 4.688 0.221
57.0983 4.760 0.223
57.1188 4.583 0.219
57.1392 5.469 0.239
57.1597 5.750 0.245
57.1801 5.198 0.233
57.2006 4.917 0.226
57.2211 4.656 0.220
57.2415 4.833 0.224
57.2620 5.281 0.235
57.2825 4.813 0.224
57.3029 5.635 0.242
57.3234 5.969 0.249
57.3438 5.760 0.245
57.3643 5.521 0.240
57.3848 5.240 0.234
57.4052 5.375 0.237
57.4257 5.385 0.237
57.4462 5.677 0.243
57.4666 5.469 0.239
57.4871 5.802 0.246
57.5075 5.479 0.239
57.5280 6.073 0.252
57.5485 5.635 0.242
57.5689 5.500 0.239
57.5894 5.625 0.242
57.6099 6.021 0.250
57.6303 5.333 0.236
57.6508 5.115 0.231
57.6713 5.333 0.236
57.6917 5.354 0.236
57.7122 4.875 0.225
57.7326 5.260 0.234
57.7531 5.458 0.238
57.7736 5.323 0.235
57.7940 5.146 0.232
57.8145 5.667 0.243
57.8350 5.417 0.238
57.8554 5.156 0.232
57.8759 5.469 0.239
57.8963 5.406 0.237
57.9168 5.010 0.228
57.9373 5.104 0.231
57.9577 5.073 0.230
57.9782 5.656 0.243
57.9987 5.667 0.243
58.0191 5.531 0.240
58.0396 5.448 0.238
58.0600 6.198 0.254
58.0805 5.625 0.242
58.1010 5.948 0.249
58.1214 6.365 0.257
58.1419 6.052 0.251
58.1624 6.313 0.256
58.1828 6.469 0.260
58.2033 6.344 0.257
58.2237 6.156 0.253
58.2442 6.344 0.257
58.2647 6.125 0.253
58.2851 6.198 0.254
58.3056 5.646 0.243
58.3261 5.969 0.249
58.3465 6.021 0.250
58.3670 6.229 0.255
58.3874 6.219 0.255
58.4079 6.656 0.263
58.4284 6.438 0.259
58.4488 6.958 0.269
58.4693 7.771 0.285
58.4898 7.490 0.279
58.5102 7.688 0.283
58.5307 7.333 0.276
58.5512 7.000 0.270
58.5716 6.979 0.270
58.5921 6.531 0.261
58.6125 6.802 0.266
58.6330 6.802 0.266
58.6535 7.063 0.271
58.6739 6.958 0.269
58.6944 6.667 0.264
58.7149 6.073 0.252
58.7353 5.958 0.249
58.7558 5.385 0.237
58.7762 5.604 0.242
58.7967 5.594 0.241
58.8172 5.771 0.245
58.8376 5.865 0.247
58.8581 5.708 0.244
58.8786 5.927 0.248
58.8990 5.448 0.238
58.9195 5.448 0.238
58.9399 5.365 0.236
58.9604 5.510 0.240
58.9809 5.396 0.237
59.0013 5.365 0.236
59.0218 5.760 0.245
59.0423 5.708 0.244
59.0627 5.677 0.243
59.0832 5.677 0.243
59.1036 5.938 0.249
59.1241 6.083 0.252
59.1446 5.750 0.245
59.1650 5.583 0.241
59.1855 5.771 0.245
59.2060 5.844 0.247
59.2264 6.240 0.255
59.2469 5.969 0.249
59.2674 6.104 0.252
59.2878 5.500 0.239
59.3083 5.979 0.250
59.3287 5.729 0.244
59.3492 5.625 0.242
59.3697 6.188 0.254
59.3901 5.573 0.241
59.4106 5.865 0.247
59.4311 6.323 0.257
59.4515 6.292 0.256
59.4720 5.240 0.234
59.4924 6.250 0.255
59.5129 6.344 0.257
59.5334 6.104 0.252
59.5538 6.229 0.255
59.5743 6.719 0.265
59.5948 6.563 0.261
59.6152 6.469 0.260
59.6357 6.531 0.261
59.6561 6.865 0.267
59.6766 6.177 0.254
59.6971 6.354 0.257
59.7175 5.594 0.241
59.7380 6.229 0.255
59.7585 5.469 0.239
59.7789 5.938 0.249
59.7994 5.969 0.249
59.8198 5.271 0.234
59.8403 5.792 0.246
59.8608 5.531 0.240
59.8812 5.688 0.243
59.9017 5.865 0.247
59.9222 5.667 0.243
59.9426 5.333 0.236
59.9631 5.323 0.235
59.9835 4.802 0.224
60.0040 5.083 0.230
60.0245 5.438 0.238
60.0449 5.302 0.235
60.0654 5.146 0.232
60.0859 5.021 0.229
60.1063 5.094 0.230
60.1268 4.969 0.228
60.1473 5.281 0.235
60.1677 5.115 0.231
60.1882 5.042 0.229
60.2086 5.146 0.232
60.2291 5.198 0.233
60.2496 5.417 0.238
60.2700 5.396 0.237
60.2905 5.365 0.236
60.3110 5.344 0.236
60.3314 5.000 0.228
60.3519 5.771 0.245
60.3723 5.469 0.239
60.3928 5.313 0.235
60.4133 5.135 0.231
60.4337 5.052 0.229
60.4542 5.531 0.240
60.4747 5.844 0.247
60.4951 6.073 0.252
60.5156 5.406 0.237
60.5360 5.635 0.242
60.5565 5.531 0.240
60.5770 5.781 0.245
60.5974 5.510 0.240
60.6179 5.354 0.236
60.6384 5.333 0.236
60.6588 5.635 0.242
60.6793 5.604 0.242
60.6997 5.458 0.238
60.7202 5.052 0.229
60.7407 5.406 0.237
60.7611 5.365 0.236
60.7816 5.688 0.243
60.8021 5.104 0.231
60.8225 5.250 0.234
60.8430 5.677 0.243
60.8634 5.469 0.239
60.8839 4.948 0.227
60.9044 5.240 0.234
60.9248 5.573 0.241
60.9453 5.427 0.238
60.9658 5.344 0.236
60.9862 5.542 0.240
61.0067 5.667 0.243
61.0272 5.688 0.243
61.0476 4.938 0.227
61.0681 5.365 0.236
61.0885 4.948 0.227
61.1090 5.219 0.233
61.1295 5.396 0.237
61.1499 5.177 0.232
61.1704 5.469 0.239
61.1909 5.042 0.229
61.2113 4.979 0.228
61.2318 5.031 0.229
61.2522 5.615 0.242
61.2727 5.646 0.243
61.2932 6.365 0.257
61.3136 5.844 0.247
61.3341 6.385 0.258
61.3546 6.458 0.259
61.3750 5.719 0.244
61.3955 6.167 0.253
61.4159 5.542 0.240
61.4364 5.198 0.233
61.4569 5.573 0.241
61.4773 5.542 0.240
61.4978 5.510 0.240
61.5183 5.510 0.240
61.5387 5.813 0.246
61.5592 5.250 0.234
61.5796 5.479 0.239
61.6001 4.802 0.224
61.6206 4.938 0.227
61.6410 4.594 0.219
61.6615 4.563 0.218
61.6820 4.542 0.218
61.7024 4.396 0.214
61.7229 4.531 0.217
61.7433 4.792 0.223
61.7638 4.750 0.222
61.7843 4.552 0.218
61.8047 4.594 0.219
61.8252 4.813 0.224
61.8457 4.427 0.215
61.8661 4.833 0.224
61.8866 5.427 0.238
61.9071 5.073 0.230
61.9275 4.854 0.225
61.9480 5.198 0.233
61.9684 5.354 0.236
61.9889 4.781 0.223
62.0094 4.490 0.216
62.0298 4.625 0.219
62.0503 4.781 0.223
62.0708 4.906 0.226
62.0912 5.198 0.233
62.1117 5.167 0.232
62.1321 4.917 0.226
62.1526 4.896 0.226
62.1731 4.906 0.226
62.1935 5.052 0.229
62.2140 4.844 0.225
62.2345 4.688 0.221
62.2549 4.635 0.220
62.2754 4.990 0.228
62.2958 4.771 0.223
62.3163 4.854 0.225
62.3368 5.073 0.230
62.3572 4.521 0.217
62.3777 4.708 0.221
62.3982 4.552 0.218
62.4186 4.688 0.221
62.4391 4.792 0.223
62.4595 4.281 0.211
62.4800 4.552 0.218
62.5005 4.583 0.219
62.5209 5.198 0.233
62.5414 4.927 0.227
62.5619 4.781 0.223
62.5823 4.750 0.222
62.6028 4.969 0.228
62.6232 4.719 0.222
62.6437 4.844 0.225
62.6642 5.156 0.232
62.6846 5.583 0.241
62.7051 5.323 0.235
62.7256 4.896 0.226
62.7460 5.052 0.229
62.7665 4.719 0.222
62.7870 4.740 0.222
62.8074 4.875 0.225
62.8279 4.823 0.224
62.8483 5.052 0.229
62.8688 5.052 0.229
62.8893 4.979 0.228
62.9097 4.563 0.218
62.9302 4.990 0.228
62.9507 5.031 0.229
62.9711 4.740 0.222
62.9916 4.948 0.227
63.0120 4.854 0.225
63.0325 5.000 0.228
63.0530 4.760 0.223
63.0734 4.729 0.222
63.0939 4.583 0.219
63.1144 4.729 0.222
63.1348 4.531 0.217
63.1553 4.865 0.225
63.1757 4.656 0.220
63.1962 5.135 0.231
63.2167 4.708 0.221
63.2371 4.844 0.225
63.2576 5.135 0.231
63.2781 4.844 0.225
63.2985 5.083 0.230
63.3190 4.844 0.225
63.3394 4.771 0.223
63.3599 5.042 0.229
63.3804 5.406 0.237
63.4008 5.448 0.238
63.4213 5.479 0.239
63.4418 5.521 0.240
63.4622 5.344 0.236
63.4827 5.281 0.235
63.5032 5.240 0.234
63.5236 5.396 0.237
63.5441 5.448 0.238
63.5645 5.500 0.239
63.5850 6.271 0.256
63.6055 5.844 0.247
63.6259 6.042 0.251
63.6464 6.188 0.254
63.6669 6.333 0.257
63.6873 5.823 0.246
63.7078 5.771 0.245
63.7282 6.010 0.250
63.7487 6.271 0.256
63.7692 5.708 0.244
63.7896 5.865 0.247
63.8101 6.063 0.251
63.8306 6.396 0.258
63.8510 5.917 0.248
63.8715 6.750 0.265
63.8919 6.240 0.255
63.9124 6.750 0.265
63.9329 6.979 0.270
63.9533 6.906 0.268
63.9738 7.677 0.283
63.9943 7.833 0.286
64.0147 7.208 0.274
64.0352 7.760 0.284
64.0556 6.615 0.262
64.0761 7.521 0.280
64.0966 7.188 0.274
64.1170 7.208 0.274
64.1375 7.115 0.272
64.1580 7.396 0.278
64.1784 7.677 0.283
64.1989 6.927 0.269
64.2193 7.344 0.277
64.2398 6.865 0.267
64.2603 7.052 0.271
64.2807 6.521 0.261
64.3012 6.313 0.256
64.3217 6.510 0.260
64.3421 6.479 0.260
64.3626 6.563 0.261
64.3831 6.042 0.251
64.4035 6.167 0.253
64.4240 6.156 0.253
64.4444 5.698 0.244
64.4649 6.260 0.255
64.4854 6.125 0.253
64.5058 5.958 0.249
64.5263 5.833 0.247
64.5468 6.146 0.253
64.5672 6.156 0.253
64.5877 5.781 0.245
64.6081 5.802 0.246
64.6286 6.438 0.259
64.6491 6.000 0.250
64.6695 5.885 0.248
64.6900 5.677 0.243
64.7105 6.083 0.252
64.7309 6.104 0.252
64.7514 6.490 0.260
64.7718 6.677 0.264
64.7923 6.510 0.260
64.8128 6.333 0.257
64.8332 6.458 0.259
64.8537 6.885 0.268
64.8742 6.563 0.261
64.8946 6.354 0.257
64.9151 6.354 0.257
64.9355 6.729 0.265
64.9560 6.354 0.257
64.9765 5.552 0.240
64.9969 6.188 0.254
65.0174 5.604 0.242
65.0379 6.052 0.251
65.0583 5.542 0.240
65.0788 6.031 0.251
65.0992 5.844 0.247
65.1197 5.302 0.235
65.1402 4.917 0.226
65.1606 5.458 0.238
65.1811 5.427 0.238
65.2016 4.740 0.222
65.2220 5.188 0.232
65.2425 5.677 0.243
65.2630 4.844 0.225
65.2834 4.792 0.223
65.3039 4.969 0.228
65.3243 4.448 0.215
65.3448 4.927 0.227
65.3653 4.698 0.221
65.3857 5.073 0.230
65.4062 4.729 0.222
65.4267 4.583 0.219
65.4471 4.073 0.206
65.4676 4.531 0.217
65.4880 4.271 0.211
65.5085 4.490 0.216
65.5290 5.271 0.234
65.5494 4.563 0.218
65.5699 4.604 0.219
65.5904 4.031 0.205
65.6108 4.167 0.208
65.6313 4.385 0.214
65.6517 4.479 0.216
65.6722 4.469 0.216
65.6927 3.865 0.201
65.7131 4.573 0.218
65.7336 4.333 0.212
65.7541 4.552 0.218
65.7745 4.552 0.218
65.7950 3.938 0.203
65.8154 4.250 0.210
65.8359 3.979 0.204
65.8564 4.125 0.207
65.8768 4.479 0.216
65.8973 4.198 0.209
65.9178 4.677 0.221
65.9382 3.917 0.202
65.9587 4.510 0.217
65.9791 4.115 0.207
65.9996 4.615 0.219
66.0201 4.313 0.212
66.0405 4.594 0.219
66.0610 4.135 0.208
66.0815 4.479 0.216
66.1019 4.750 0.222
66.1224 4.354 0.213
66.1429 4.365 0.213
66.1633 4.521 0.217
66.1838 4.563 0.218
66.2042 4.469 0.216
66.2247 4.229 0.210
66.2452 4.406 0.214
66.2656 4.635 0.220
66.2861 4.677 0.221
66.3066 4.344 0.213
66.3270 4.521 0.217
66.3475 4.875 0.225
66.3679 4.427 0.215
66.3884 4.438 0.215
66.4089 4.271 0.211
66.4293 4.073 0.206
66.4498 4.240 0.210
66.4703 4.125 0.207
66.4907 4.354 0.213
66.5112 4.531 0.217
66.5316 4.333 0.212
66.5521 4.417 0.214
66.5726 4.448 0.215
66.5930 4.969 0.228
66.6135 4.604 0.219
66.6340 4.688 0.221
66.6544 4.563 0.218
66.6749 4.656 0.220
66.6953 4.688 0.221
66.7158 4.740 0.222
66.7363 5.167 0.232
66.7567 5.260 0.234
66.7772 5.094 0.230
66.7977 5.510 0.240
66.8181 5.417 0.238
66.8386 5.479 0.239
66.8590 5.344 0.236
66.8795 5.635 0.242
66.9000 5.760 0.245
66.9204 5.813 0.246
66.9409 6.073 0.252
66.9614 5.688 0.243
66.9818 5.854 0.247
67.0023 6.125 0.253
67.0228 5.844 0.247
67.0432 6.021 0.250
67.0637 5.990 0.250
67.0841 6.188 0.254
67.1046 6.115 0.252
67.1251 5.917 0.248
67.1455 5.990 0.250
67.1660 6.010 0.250
67.1865 5.854 0.247
67.2069 5.802 0.246
67.2274 5.760 0.245
67.2478 5.719 0.244
67.2683 6.208 0.254
67.2888 6.500 0.260
67.3092 6.354 0.257
67.3297 6.083 0.252
67.3502 5.885 0.248
67.3706 6.313 0.256
67.3911 6.302 0.256
67.4115 6.448 0.259
67.4320 6.385 0.258
67.4525 6.542 0.261
67.4729 6.688 0.264
67.4934 6.906 0.268
67.5139 6.344 0.257
67.5343 6.323 0.257
67.5548 6.333 0.257
67.5752 6.313 0.256
67.5957 6.250 0.255
67.6162 6.427 0.259
67.6366 5.729 0.244
67.6571 5.979 0.250
67.6776 6.042 0.251
67.6980 5.458 0.238
67.7185 5.646 0.243
67.7389 5.760 0.245
67.7594 5.406 0.237
67.7799 5.740 0.245
67.8003 5.969 0.249
67.8208 5.073 0.230
67.8413 5.240 0.234
67.8617 4.802 0.224
67.8822 5.146 0.232
67.9027 4.823 0.224
67.9231 4.927 0.227
67.9436 4.760 0.223
67.9640 4.719 0.222
67.9845 4.823 0.224
68.0050 4.865 0.225
68.0254 4.938 0.227
68.0459 5.052 0.229
68.0664 4.948 0.227
68.0868 4.542 0.218
68.1073 4.885 0.226
68.1277 4.635 0.220
68.1482 4.604 0.219
68.1687 4.531 0.217
68.1891 4.792 0.223
68.2096 4.333 0.212
68.2301 4.792 0.223
68.2505 4.344 0.213
68.2710 4.271 0.211
68.2914 4.490 0.216
68.3119 4.271 0.211
68.3324 4.292 0.211
68.3528 4.552 0.218
68.3733 4.167 0.208
68.3938 4.333 0.212
68.4142 4.177 0.209
68.4347 4.198 0.209
68.4551 5.000 0.228
68.4756 4.250 0.210
68.4961 4.323 0.212
68.5165 4.073 0.206
68.5370 3.979 0.204
68.5575 4.427 0.215
68.5779 4.240 0.210
68.5984 4.490 0.216
68.6189 4.323 0.212
68.6393 3.927 0.202
68.6598 4.219 0.210
68.6802 4.177 0.209
68.7007 4.604 0.219
68.7212 4.521 0.217
68.7416 4.521 0.217
68.7621 4.219 0.210
68.7826 4.688 0.221
68.8030 4.667 0.220
68.8235 4.656 0.220
68.8439 4.521 0.217
68.8644 4.729 0.222
68.8849 4.844 0.225
68.9053 4.698 0.221
68.9258 4.708 0.221
68.9463 4.385 0.214
68.9667 4.604 0.219
68.9872 4.885 0.226
69.0076 4.802 0.224
69.0281 5.531 0.240
69.0486 5.167 0.232
69.0690 4.698 0.221
69.0895 4.698 0.221
69.1100 4.854 0.225
69.1304 4.531 0.217
69.1509 4.708 0.221
69.1713 4.833 0.224
69.1918 4.240 0.210
69.2123 4.813 0.224
69.2327 4.833 0.224
69.2532 4.625 0.219
69.2737 4.833 0.224
69.2941 4.635 0.220
69.3146 4.813 0.224
69.3350 4.531 0.217
69.3555 4.844 0.225
69.3760 4.354 0.213
69.3964 4.781 0.223
69.4169 4.917 0.226
69.4374 4.521 0.217
69.4578 4.760 0.223
69.4783 4.542 0.218
69.4988 4.979 0.228
69.5192 4.594 0.219
69.5397 4.760 0.223
69.5601 4.854 0.225
69.5806 4.000 0.204
69.6011 4.865 0.225
69.6215 4.729 0.222
69.6420 4.396 0.214
69.6625 5.052 0.229
69.6829 5.073 0.230
69.7034 4.625 0.219
69.7238 4.563 0.218
69.7443 4.542 0.218
69.7648 4.938 0.227
69.7852 4.490 0.216
69.8057 4.073 0.206
69.8262 4.542 0.218
69.8466 4.875 0.225
69.8671 4.615 0.219
69.8875 4.510 0.217
69.9080 4.375 0.213
69.9285 4.594 0.219
69.9489 4.698 0.221
69.9694 4.510 0.217
69.9899 4.406 0.214
70.0103 4.583 0.219
70.0308 4.521 0.217
70.0512 4.833 0.224
70.0717 4.823 0.224
70.0922 4.885 0.226
70.1126 5.115 0.231
70.1331 5.156 0.232
70.1536 4.729 0.222
70.1740 5.188 0.232
70.1945 5.021 0.229
70.2149 5.365 0.236
70.2354 5.292 0.235
70.2559 5.135 0.231
70.2763 5.063 0.230
70.2968 4.990 0.228
70.3173 4.635 0.220
70.3377 4.760 0.223
70.3582 5.021 0.229
70.3787 4.792 0.223
70.3991 5.042 0.229
70.4196 5.021 0.229
70.4400 4.427 0.215
70.4605 4.385 0.214
70.4810 5.156 0.232
70.5014 4.406 0.214
70.5219 4.750 0.222
70.5424 5.042 0.229
70.5628 4.792 0.223
70.5833 4.792 0.223
70.6037 4.719 0.222
70.6242 4.323 0.212
70.6447 4.760 0.223
70.6651 4.781 0.223
70.6856 4.208 0.209
70.7061 4.708 0.221
70.7265 4.833 0.224
70.7470 4.938 0.227
70.7674 4.885 0.226
70.7879 4.927 0.227
70.8084 5.104 0.231
70.8288 4.740 0.222
70.8493 4.948 0.227
70.8698 4.813 0.224
70.8902 4.625 0.219
70.9107 4.510 0.217
70.9311 4.365 0.213
70.9516 4.750 0.222
70.9721 4.844 0.225
70.9925 4.906 0.226
71.0130 5.125 0.231
71.0335 4.313 0.212
71.0539 4.792 0.223
71.0744 4.469 0.216
71.0948 5.031 0.229
71.1153 4.698 0.221
71.1358 4.635 0.220
71.1562 4.719 0.222
71.1767 4.875 0.225
71.1972 5.229 0.233
71.2176 5.146 0.232
71.2381 4.625 0.219
71.2586 4.760 0.223
71.2790 4.323 0.212
71.2995 4.990 0.228
71.3199 5.427 0.238
71.3404 5.344 0.236
71.3609 4.875 0.225
71.3813 5.156 0.232
71.4018 5.438 0.238
71.4223 5.208 0.233
71.4427 5.229 0.233
71.4632 5.677 0.243
71.4836 5.573 0.241
71.5041 5.490 0.239
71.5246 6.188 0.254
71.5450 5.542 0.240
71.5655 6.198 0.254
71.5860 6.083 0.252
71.6064 6.115 0.252
71.6269 6.281 0.256
71.6473 6.031 0.251
71.6678 6.188 0.254
71.6883 6.375 0.258
71.7087 6.438 0.259
71.7292 6.302 0.256
71.7497 6.750 0.265
71.7701 6.802 0.266
71.7906 7.063 0.271
71.8110 6.677 0.264
71.8315 7.188 0.274
71.8520 6.396 0.258
71.8724 6.479 0.260
71.8929 6.646 0.263
71.9134 7.042 0.271
71.9338 6.552 0.261
71.9543 6.896 0.268
71.9747 7.260 0.275
71.9952 6.771 0.266
72.0157 7.729 0.284
72.0361 7.552 0.280
72.0566 6.781 0.266
72.0771 7.865 0.286
72.0975 7.406 0.278
72.1180 7.583 0.281
72.1385 7.813 0.285
72.1589 7.000 0.270
72.1794 7.250 0.275
72.1998 6.823 0.267
72.2203 7.198 0.274
72.2408 6.823 0.267
72.2612 6.531 0.261
72.2817 6.292 0.256
72.3022 6.823 0.267
72.3226 6.854 0.267
72.3431 6.708 0.264
72.3635 5.969 0.249
72.3840 5.917 0.248
72.4045 5.625 0.242
72.4249 5.385 0.237
72.4454 5.438 0.238
72.4659 5.344 0.236
72.4863 5.323 0.235
72.5068 4.979 0.228
72.5272 4.521 0.217
72.5477 4.479 0.216
72.5682 4.990 0.228
72.5886 4.521 0.217
72.6091 4.490 0.216
72.6296 4.198 0.209
72.6500 4.260 0.211
72.6705 4.552 0.218
72.6909 4.188 0.209
72.7114 4.521 0.217
72.7319 4.604 0.219
72.7523 4.490 0.216
72.7728 4.542 0.218
72.7933 4.240 0.210
72.8137 4.156 0.208
72.8342 4.000 0.204
72.8547 4.063 0.206
72.8751 4.531 0.217
72.8956 4.594 0.219
72.9160 4.063 0.206
72.9365 4.250 0.210
72.9570 3.823 0.200
72.9774 4.146 0.208
72.9979 4.260 0.211
73.0184 4.427 0.215
73.0388 4.063 0.206
73.0593 4.385 0.214
73.0797 4.010 0.204
73.1002 4.021 0.205
73.1207 4.000 0.204
73.1411 4.063 0.206
73.1616 3.792 0.199
73.1821 3.854 0.200
73.2025 4.417 0.214
73.2230 3.927 0.202
73.2434 4.240 0.210
73.2639 4.271 0.211
73.2844 4.125 0.207
73.3048 3.927 0.202
73.3253 4.229 0.210
73.3458 4.167 0.208
73.3662 4.229 0.210
73.3867 4.448 0.215
73.4071 4.083 0.206
73.4276 4.094 0.207
73.4481 4.104 0.207
73.4685 4.021 0.205
73.4890 3.927 0.202
73.5095 4.313 0.212
73.5299 4.083 0.206
73.5504 3.958 0.203
73.5708 3.844 0.200
73.5913 4.198 0.209
73.6118 4.260 0.211
73.6322 4.177 0.209
73.6527 3.708 0.197
73.6732 4.125 0.207
73.6936 4.365 0.213
73.7141 4.104 0.207
73.7346 4.031 0.205
73.7550 4.281 0.211
73.7755 4.302 0.212
73.7959 4.083 0.206
73.8164 4.156 0.208
73.8369 3.927 0.202
73.8573 4.656 0.220
73.8778 4.354 0.213
73.8983 4.250 0.210
73.9187 4.375 0.213
73.9392 4.354 0.213
73.9596 4.333 0.212
73.9801 4.667 0.220
74.0006 4.573 0.218
74.0210 4.479 0.216
74.0415 4.552 0.218
74.0620 4.417 0.214
74.0824 4.250 0.210
74.1029 4.115 0.207
74.1233 4.167 0.208
74.1438 4.313 0.212
74.1643 4.115 0.207
74.1847 4.000 0.204
74.2052 4.083 0.206
74.2257 4.177 0.209
74.2461 4.427 0.215
74.2666 4.219 0.210
74.2870 3.792 0.199
74.3075 3.740 0.197
74.3280 4.177 0.209
74.3484 3.865 0.201
74.3689 3.948 0.203
74.3894 3.958 0.203
74.4098 4.115 0.207
74.4303 3.906 0.202
74.4507 3.427 0.189
74.4712 3.604 0.194
74.4917 3.740 0.197
74.5121 3.760 0.198
74.5326 3.844 0.200
74.5531 3.760 0.198
74.5735 3.875 0.201
74.5940 3.823 0.200
74.6145 3.615 0.194
74.6349 4.000 0.204
74.6554 3.969 0.203
74.6758 3.760 0.198
74.6963 3.604 0.194
74.7168 3.885 0.201
74.7372 3.729 0.197
74.7577 3.604 0.194
74.7782 3.635 0.195
74.7986 3.865 0.201
74.8191 4.104 0.207
74.8395 3.521 0.192
74.8600 3.844 0.200
74.8805 3.583 0.193
74.9009 3.927 0.202
74.9214 3.708 0.197
74.9419 3.708 0.197
74.9623 3.604 0.194
74.9828 4.073 0.206
75.0032 4.031 0.205
75.0237 3.656 0.195
75.0442 4.073 0.206
75.0646 3.896 0.201
75.0851 3.948 0.203
75.1056 4.323 0.212
75.1260 4.167 0.208
75.1465 3.958 0.203
75.1669 4.229 0.210
75.1874 4.438 0.215
75.2079 4.135 0.208
75.2283 3.677 0.196
75.2488 3.823 0.200
75.2693 4.083 0.206
75.2897 3.708 0.197
75.3102 3.833 0.200
75.3306 4.240 0.210
75.3511 3.542 0.192
75.3716 3.542 0.192
75.3920 3.958 0.203
75.4125 3.781 0.198
75.4330 4.135 0.208
75.4534 3.698 0.196
75.4739 4.417 0.214
75.4944 3.698 0.196
75.5148 3.938 0.203
75.5353 3.990 0.204
75.5557 3.938 0.203
75.5762 4.063 0.206
75.5967 4.021 0.205
75.6171 3.885 0.201
75.6376 3.771 0.198
75.6581 4.094 0.207
75.6785 4.135 0.208
75.6990 4.052 0.205
75.7194 4.063 0.206
75.7399 4.021 0.205
75.7604 4.344 0.213
75.7808 4.594 0.219
75.8013 4.594 0.219
75.8218 4.604 0.219
75.8422 4.531 0.217
75.8627 4.563 0.218
75.8831 4.094 0.207
75.9036 4.615 0.219
75.9241 4.188 0.209
75.9445 4.240 0.210
75.9650 4.021 0.205
75.9855 3.813 0.199
76.0059 3.958 0.203
76.0264 4.521 0.217
76.0468 4.677 0.221
76.0673 4.646 0.220
76.0878 4.396 0.214
76.1082 3.708 0.197
76.1287 4.333 0.212
76.1492 4.104 0.207
76.1696 4.052 0.205
76.1901 3.844 0.200
76.2105 3.729 0.197
76.2310 4.135 0.208
76.2515 3.917 0.202
76.2719 3.865 0.201
76.2924 3.656 0.195
76.3129 3.938 0.203
76.3333 3.427 0.189
76.3538 3.698 0.196
76.3743 4.021 0.205
76.3947 3.698 0.196
76.4152 3.677 0.196
76.4356 3.479 0.190
76.4561 3.698 0.196
76.4766 3.740 0.197
76.4970 3.615 0.194
76.5175 3.406 0.188
76.5380 3.813 0.199
76.5584 3.615 0.194
76.5789 3.500 0.191
76.5993 3.615 0.194
76.6198 3.510 0.191
76.6403 3.427 0.189
76.6607 3.177 0.182
76.6812 3.542 0.192
76.7017 3.406 0.188
76.7221 4.063 0.206
76.7426 3.969 0.203
76.7630 3.365 0.187
76.7835 3.385 0.188
76.8040 3.531 0.192
76.8244 3.521 0.192
76.8449 3.542 0.192
76.8654 3.552 0.192
76.8858 3.750 0.198
76.9063 3.781 0.198
76.9267 3.729 0.197
76.9472 3.615 0.194
76.9677 3.688 0.196
76.9881 3.688 0.196
77.0086 3.844 0.200
77.0291 4.219 0.210
77.0495 3.615 0.194
77.0700 3.552 0.192
77.0905 3.938 0.203
77.1109 3.573 0.193
77.1314 3.438 0.189
77.1518 3.844 0.200
77.1723 3.740 0.197
77.1928 3.615 0.194
77.2132 3.927 0.202
77.2337 3.979 0.204
77.2542 3.458 0.190
77.2746 3.583 0.193
77.2951 3.708 0.197
77.3155 3.729 0.197
77.3360 3.688 0.196
77.3565 3.958 0.203
77.3769 3.969 0.203
77.3974 3.646 0.195
77.4179 3.563 0.193
77.4383 3.792 0.199
77.4588 3.615 0.194
77.4792 3.448 0.190
77.4997 3.594 0.193
77.5202 3.563 0.193
77.5406 3.802 0.199
77.5611 3.875 0.201
77.5816 3.500 0.191
77.6020 3.802 0.199
77.6225 4.000 0.204
77.6429 3.865 0.201
77.6634 4.073 0.206
77.6839 3.917 0.202
77.7043 3.615 0.194
77.7248 3.917 0.202
77.7453 3.979 0.204
77.7657 3.885 0.201
77.7862 3.958 0.203
77.8066 4.208 0.209
77.8271 4.458 0.216
77.8476 4.167 0.208
77.8680 4.188 0.209
77.8885 3.792 0.199
77.9090 4.250 0.210
77.9294 3.938 0.203
77.9499 3.854 0.200
77.9704 4.052 0.205
77.9908 3.813 0.199
78.0113 4.010 0.204
78.0317 3.635 0.195
78.0522 3.573 0.193
78.0727 3.885 0.201
78.0931 3.917 0.202
78.1136 4.083 0.206
78.1341 3.708 0.197
78.1545 3.354 0.187
78.1750 4.198 0.209
78.1954 4.010 0.204
78.2159 3.969 0.203
78.2364 3.583 0.193
78.2568 3.844 0.200
78.2773 3.854 0.200
78.2978 3.604 0.194
78.3182 3.354 0.187
78.3387 3.802 0.199
78.3591 3.542 0.192
78.3796 4.177 0.209
78.4001 4.031 0.205
78.4205 3.531 0.192
78.4410 4.177 0.209
78.4615 3.781 0.198
78.4819 3.563 0.193
78.5024 3.750 0.198
78.5228 3.729 0.197
78.5433 3.667 0.195
78.5638 3.771 0.198
78.5842 3.990 0.204
78.6047 3.438 0.189
78.6252 3.760 0.198
78.6456 3.594 0.193
78.6661 3.927 0.202
78.6865 3.615 0.194
78.7070 3.542 0.192
78.7275 3.531 0.192
78.7479 3.802 0.199
78.7684 3.760 0.198
78.7889 3.750 0.198
78.8093 3.698 0.196
78.8298 3.792 0.199
78.8503 3.740 0.197
78.8707 4.052 0.205
78.8912 3.729 0.197
78.9116 3.563 0.193
78.9321 3.938 0.203
78.9526 3.438 0.189
78.9730 3.854 0.200
78.9935 3.802 0.199
79.0140 3.844 0.200
79.0344 3.385 0.188
79.0549 3.719 0.197
79.0753 3.448 0.190
79.0958 3.802 0.199
79.1163 3.750 0.198
79.1367 3.552 0.192
79.1572 3.729 0.197
79.1777 3.760 0.198
79.1981 3.760 0.198
79.2186 3.604 0.194
79.2390 4.229 0.210
79.2595 3.802 0.199
79.2800 3.885 0.201
79.3004 3.583 0.193
79.3209 3.969 0.203
79.3414 3.740 0.197
79.3618 3.698 0.196
79.3823 3.813 0.199
79.4027 3.875 0.201
79.4232 4.094 0.207
79.4437 3.875 0.201
79.4641 3.948 0.203
79.4846 3.833 0.200
79.5051 3.833 0.200
79.5255 3.625 0.194
79.5460 3.646 0.195
79.5664 3.396 0.188
79.5869 4.125 0.207
79.6074 3.604 0.194
79.6278 3.885 0.201
79.6483 3.542 0.192
79.6688 3.750 0.198
79.6892 3.500 0.191
79.7097 3.740 0.197
79.7302 3.875 0.201
79.7506 3.469 0.190
79.7711 3.281 0.185
79.7915 3.656 0.195
79.8120 4.083 0.206
79.8325 3.333 0.186
79.8529 3.688 0.196
79.8734 3.344 0.187
79.8939 3.385 0.188
79.9143 3.625 0.194
79.9348 3.385 0.188
79.9552 3.688 0.196
79.9757 3.656 0.195
79.9962 3.375 0.188
