'Id: "" Comment: "" Operator: "Lab Manager" Anode: "Cu" Scantype: "Locked Coupled" TimePerStep: "96" X: "0" Y: "0" Z: "0" 
5.0000 23.333 0.493
5.0205 24.115 0.501
5.0409 23.521 0.495
5.0614 23.521 0.495
5.0819 23.896 0.499
5.1023 24.031 0.500
5.1228 24.198 0.502
5.1432 24.646 0.507
5.1637 23.729 0.497
5.1842 23.854 0.498
5.2046 23.167 0.491
5.2251 23.167 0.491
5.2456 23.906 0.499
5.2660 23.323 0.493
5.2865 23.677 0.497
5.3069 23.385 0.494
5.3274 23.667 0.497
5.3479 22.594 0.485
5.3683 23.021 0.490
5.3888 22.417 0.483
5.4093 22.708 0.486
5.4297 23.156 0.491
5.4502 22.115 0.480
5.4706 22.823 0.488
5.4911 21.927 0.478
5.5116 23.396 0.494
5.5320 22.490 0.484
5.5525 22.563 0.485
5.5730 22.406 0.483
5.5934 22.719 0.486
5.6139 21.677 0.475
5.6343 23.104 0.491
5.6548 21.125 0.469
5.6753 21.667 0.475
5.6957 22.510 0.484
5.7162 22.604 0.485
5.7367 21.625 0.475
5.7571 22.552 0.485
5.7776 21.656 0.475
5.7980 22.052 0.479
5.8185 22.188 0.481
5.8390 21.250 0.470
5.8594 22.031 0.479
5.8799 21.375 0.472
5.9004 21.688 0.475
5.9208 22.313 0.482
5.9413 21.438 0.473
5.9618 21.531 0.474
5.9822 21.260 0.471
6.0027 21.240 0.470
6.0231 22.115 0.480
6.0436 20.958 0.467
6.0641 20.271 0.460
6.0845 20.938 0.467
6.1050 21.583 0.474
6.1255 22.146 0.480
6.1459 21.677 0.475
6.1664 21.198 0.470
6.1868 21.667 0.475
6.2073 21.781 0.476
6.2278 20.896 0.467
6.2482 22.313 0.482
6.2687 21.229 0.470
6.2892 21.531 0.474
6.3096 21.635 0.475
6.3301 21.500 0.473
6.3505 21.094 0.469
6.3710 21.969 0.478
6.3915 21.781 0.476
6.4119 22.438 0.483
6.4324 21.896 0.478
6.4529 22.458 0.484
6.4733 23.302 0.493
6.4938 21.479 0.473
6.5142 22.510 0.484
6.5347 22.292 0.482
6.5552 22.448 0.484
6.5756 23.146 0.491
6.5961 23.042 0.490
6.6166 23.542 0.495
6.6370 23.240 0.492
6.6575 24.021 0.500
6.6779 26.250 0.523
6.6984 26.865 0.529
6.7189 27.406 0.534
6.7393 26.844 0.529
6.7598 25.417 0.515
6.7803 26.073 0.521
6.8007 25.656 0.517
6.8212 25.667 0.517
6.8417 26.750 0.528
6.8621 26.896 0.529
6.8826 28.781 0.548
6.9030 28.396 0.544
6.9235 30.135 0.560
6.9440 32.021 0.578
6.9644 34.500 0.599
6.9849 36.271 0.615
7.0054 41.781 0.660
7.0258 48.615 0.712
7.0463 58.948 0.784
7.0667 70.927 0.860
7.0872 82.656 0.928
7.1077 88.500 0.960
7.1281 82.719 0.928
7.1486 68.250 0.843
7.1691 53.125 0.744
7.1895 44.229 0.679
7.2100 38.063 0.630
7.2304 34.031 0.595
7.2509 33.927 0.594
7.2714 33.333 0.589
7.2918 31.344 0.571
7.3123 30.594 0.565
7.3328 29.917 0.558
7.3532 28.427 0.544
7.3737 29.177 0.551
7.3941 28.021 0.540
7.4146 29.063 0.550
7.4351 27.063 0.531
7.4555 27.104 0.531
7.4760 27.271 0.533
7.4965 26.281 0.523
7.5169 27.031 0.531
7.5374 26.396 0.524
7.5579 25.771 0.518
7.5783 26.448 0.525
7.5988 25.885 0.519
7.6192 26.094 0.521
7.6397 24.792 0.508
7.6602 25.667 0.517
7.6806 24.281 0.503
7.7011 24.594 0.506
7.7216 25.406 0.514
7.7420 24.760 0.508
7.7625 25.229 0.513
7.7829 23.542 0.495
7.8034 24.427 0.504
7.8239 24.240 0.502
7.8443 23.740 0.497
7.8648 23.365 0.493
7.8853 24.083 0.501
7.9057 23.510 0.495
7.9262 24.385 0.504
7.9466 23.833 0.498
7.9671 24.802 0.508
7.9876 23.406 0.494
8.0080 24.000 0.500
8.0285 24.229 0.502
8.0490 23.813 0.498
8.0694 24.698 0.507
8.0899 23.781 0.498
8.1103 23.604 0.496
8.1308 23.823 0.498
8.1513 23.625 0.496
8.1717 23.875 0.499
8.1922 24.677 0.507
8.2127 24.333 0.503
8.2331 24.667 0.507
8.2536 25.750 0.518
8.2740 24.344 0.504
8.2945 24.021 0.500
8.3150 25.563 0.516
8.3354 24.188 0.502
8.3559 23.833 0.498
8.3764 23.313 0.493
8.3968 24.427 0.504
8.4173 24.427 0.504
8.4378 24.292 0.503
8.4582 24.042 0.500
8.4787 24.010 0.500
8.4991 23.115 0.491
8.5196 23.979 0.500
8.5401 24.354 0.504
8.5605 25.375 0.514
8.5810 24.677 0.507
8.6015 24.531 0.506
8.6219 24.469 0.505
8.6424 24.344 0.504
8.6628 24.063 0.501
8.6833 25.552 0.516
8.7038 24.063 0.501
8.7242 25.552 0.516
8.7447 25.885 0.519
8.7652 26.240 0.523
8.7856 26.469 0.525
8.8061 26.875 0.529
8.8265 27.177 0.532
8.8470 27.875 0.539
8.8675 27.875 0.539
8.8879 30.760 0.566
8.9084 30.052 0.560
8.9289 32.844 0.585
8.9493 33.729 0.593
8.9698 35.958 0.612
8.9902 35.125 0.605
9.0107 37.438 0.624
9.0312 42.698 0.667
9.0516 48.792 0.713
9.0721 60.688 0.795
9.0926 73.031 0.872
9.1130 83.521 0.933
9.1335 76.906 0.895
9.1539 55.979 0.764
9.1744 42.281 0.664
9.1949 36.375 0.616
9.2153 34.031 0.595
9.2358 34.344 0.598
9.2563 34.792 0.602
9.2767 34.885 0.603
9.2972 34.865 0.603
9.3177 35.281 0.606
9.3381 36.521 0.617
9.3586 37.385 0.624
9.3790 39.917 0.645
9.3995 39.813 0.644
9.4200 41.500 0.657
9.4404 43.823 0.676
9.4609 45.760 0.690
9.4814 48.458 0.710
9.5018 52.302 0.738
9.5223 55.750 0.762
9.5427 62.792 0.809
9.5632 70.604 0.858
9.5837 81.031 0.919
9.6041 89.260 0.964
9.6246 101.323 1.027
9.6451 112.542 1.083
9.6655 123.906 1.136
9.6860 133.531 1.179
9.7064 151.313 1.255
9.7269 173.000 1.342
9.7474 201.500 1.449
9.7678 244.167 1.595
9.7883 308.490 1.793
9.8088 406.958 2.059
9.8292 556.563 2.408
9.8497 815.292 2.914
9.8701 1205.948 3.544
9.8906 1661.719 4.160
9.9111 1967.052 4.527
9.9315 1740.063 4.257
9.9520 1088.490 3.367
9.9725 563.115 2.422
9.9929 312.083 1.803
10.0134 219.938 1.514
10.0338 173.073 1.343
10.0543 146.052 1.233
10.0748 127.865 1.154
10.0952 113.917 1.089
10.1157 103.510 1.038
10.1362 93.802 0.988
10.1566 84.000 0.935
10.1771 71.677 0.864
10.1976 62.198 0.805
10.2180 57.396 0.773
10.2385 54.344 0.752
10.2589 50.958 0.729
10.2794 49.094 0.715
10.2999 47.063 0.700
10.3203 44.229 0.679
10.3408 43.792 0.675
10.3613 42.281 0.664
10.3817 39.438 0.641
10.4022 39.708 0.643
10.4226 38.250 0.631
10.4431 36.438 0.616
10.4636 34.875 0.603
10.4840 35.281 0.606
10.5045 33.948 0.595
10.5250 34.063 0.596
10.5454 34.146 0.596
10.5659 32.844 0.585
10.5863 32.510 0.582
10.6068 32.667 0.583
10.6273 32.260 0.580
10.6477 32.573 0.582
10.6682 31.427 0.572
10.6887 30.667 0.565
10.7091 29.802 0.557
10.7296 29.958 0.559
10.7500 30.031 0.559
10.7705 29.448 0.554
10.7910 28.615 0.546
10.8114 29.313 0.553
10.8319 27.948 0.540
10.8524 27.833 0.538
10.8728 27.573 0.536
10.8933 26.396 0.524
10.9137 27.094 0.531
10.9342 26.688 0.527
10.9547 27.646 0.537
10.9751 29.271 0.552
10.9956 28.167 0.542
11.0161 26.781 0.528
11.0365 25.719 0.518
11.0570 24.542 0.506
11.0775 23.927 0.499
11.0979 24.406 0.504
11.1184 23.406 0.494
11.1388 23.323 0.493
11.1593 24.365 0.504
11.1798 22.896 0.488
11.2002 22.656 0.486
11.2207 22.698 0.486
11.2412 22.542 0.485
11.2616 23.583 0.496
11.2821 21.833 0.477
11.3025 21.063 0.468
11.3230 21.740 0.476
11.3435 22.021 0.479
11.3639 21.333 0.471
11.3844 21.094 0.469
11.4049 21.438 0.473
11.4253 20.563 0.463
11.4458 20.250 0.459
11.4662 21.719 0.476
11.4867 20.073 0.457
11.5072 20.240 0.459
11.5276 21.354 0.472
11.5481 20.073 0.457
11.5686 20.156 0.458
11.5890 19.875 0.455
11.6095 20.833 0.466
11.6299 19.510 0.451
11.6504 20.052 0.457
11.6709 21.115 0.469
11.6913 22.344 0.482
11.7118 23.531 0.495
11.7323 25.219 0.513
11.7527 23.396 0.494
11.7732 21.292 0.471
11.7937 19.979 0.456
11.8141 18.521 0.439
11.8346 18.177 0.435
11.8550 18.177 0.435
11.8755 17.917 0.432
11.8960 16.708 0.417
11.9164 18.458 0.438
11.9369 17.479 0.427
11.9574 17.156 0.423
11.9778 17.854 0.431
11.9983 16.208 0.411
12.0187 16.750 0.418
12.0392 17.052 0.421
12.0597 15.958 0.408
12.0801 16.646 0.416
12.1006 15.917 0.407
12.1211 16.490 0.414
12.1415 16.281 0.412
12.1620 16.083 0.409
12.1824 16.146 0.410
12.2029 16.396 0.413
12.2234 15.667 0.404
12.2438 15.740 0.405
12.2643 16.427 0.414
12.2848 15.656 0.404
12.3052 16.156 0.410
12.3257 15.740 0.405
12.3461 14.896 0.394
12.3666 15.302 0.399
12.3871 16.042 0.409
12.4075 15.792 0.406
12.4280 15.271 0.399
12.4485 14.813 0.393
12.4689 15.417 0.401
12.4894 15.521 0.402
12.5098 14.240 0.385
12.5303 13.938 0.381
12.5508 14.323 0.386
12.5712 14.844 0.393
12.5917 14.115 0.383
12.6122 14.385 0.387
12.6326 14.104 0.383
12.6531 13.990 0.382
12.6736 14.073 0.383
12.6940 13.635 0.377
12.7145 14.073 0.383
12.7349 13.510 0.375
12.7554 12.958 0.367
12.7759 14.344 0.387
12.7963 14.292 0.386
12.8168 13.292 0.372
12.8373 13.365 0.373
12.8577 13.458 0.374
12.8782 13.479 0.375
12.8986 13.646 0.377
12.9191 14.042 0.382
12.9396 13.188 0.371
12.9600 13.719 0.378
12.9805 13.323 0.373
13.0010 12.938 0.367
13.0214 12.865 0.366
13.0419 12.906 0.367
13.0623 12.625 0.363
13.0828 13.240 0.371
13.1033 13.427 0.374
13.1237 13.250 0.372
13.1442 13.052 0.369
13.1647 12.125 0.355
13.1851 12.896 0.367
13.2056 12.854 0.366
13.2260 13.083 0.369
13.2465 12.771 0.365
13.2670 12.677 0.363
13.2874 13.396 0.374
13.3079 12.552 0.362
13.3284 13.063 0.369
13.3488 12.813 0.365
13.3693 13.208 0.371
13.3897 13.635 0.377
13.4102 13.313 0.372
13.4307 13.292 0.372
13.4511 12.708 0.364
13.4716 12.948 0.367
13.4921 13.146 0.370
13.5125 12.823 0.365
13.5330 12.677 0.363
13.5535 12.531 0.361
13.5739 12.448 0.360
13.5944 12.240 0.357
13.6148 12.021 0.354
13.6353 12.021 0.354
13.6558 12.146 0.356
13.6762 12.521 0.361
13.6967 12.229 0.357
13.7172 12.302 0.358
13.7376 12.573 0.362
13.7581 12.010 0.354
13.7785 12.458 0.360
13.7990 13.385 0.373
13.8195 12.240 0.357
13.8399 12.688 0.364
13.8604 12.771 0.365
13.8809 12.510 0.361
13.9013 12.781 0.365
13.9218 12.438 0.360
13.9422 12.510 0.361
13.9627 13.271 0.372
13.9832 13.042 0.369
14.0036 12.635 0.363
14.0241 14.021 0.382
14.0446 14.323 0.386
14.0650 15.240 0.398
14.0855 16.458 0.414
14.1059 19.417 0.450
14.1264 21.438 0.473
14.1469 23.135 0.491
14.1673 26.219 0.523
14.1878 26.708 0.527
14.2083 25.063 0.511
14.2287 22.615 0.485
14.2492 20.583 0.463
14.2696 18.302 0.437
14.2901 16.740 0.418
14.3106 14.802 0.393
14.3310 13.875 0.380
14.3515 12.781 0.365
14.3720 13.458 0.374
14.3924 11.365 0.344
14.4129 12.177 0.356
14.4334 12.396 0.359
14.4538 11.885 0.352
14.4743 12.073 0.355
14.4947 11.677 0.349
14.5152 11.802 0.351
14.5357 11.875 0.352
14.5561 11.083 0.340
14.5766 11.198 0.342
14.5971 11.313 0.343
14.6175 10.792 0.335
14.6380 11.073 0.340
14.6584 11.323 0.343
14.6789 11.458 0.345
14.6994 11.000 0.339
14.7198 11.646 0.348
14.7403 11.073 0.340
14.7608 11.333 0.344
14.7812 11.365 0.344
14.8017 11.125 0.340
14.8221 10.708 0.334
14.8426 11.448 0.345
14.8631 11.094 0.340
14.8835 10.781 0.335
14.9040 10.729 0.334
14.9245 11.115 0.340
14.9449 11.104 0.340
14.9654 11.042 0.339
14.9858 10.948 0.338
15.0063 10.542 0.331
15.0268 11.042 0.339
15.0472 10.594 0.332
15.0677 10.635 0.333
15.0882 10.313 0.328
15.1086 10.240 0.327
15.1291 10.365 0.329
15.1495 10.219 0.326
15.1700 10.948 0.338
15.1905 10.771 0.335
15.2109 10.896 0.337
15.2314 10.552 0.332
15.2519 10.479 0.330
15.2723 11.063 0.339
15.2928 11.073 0.340
15.3133 10.563 0.332
15.3337 11.323 0.343
15.3542 10.698 0.334
15.3746 11.010 0.339
15.3951 11.510 0.346
15.4156 11.042 0.339
15.4360 11.688 0.349
15.4565 10.271 0.327
15.4770 10.469 0.330
15.4974 10.635 0.333
15.5179 10.698 0.334
15.5383 10.781 0.335
15.5588 10.719 0.334
15.5793 10.740 0.334
15.5997 10.917 0.337
15.6202 11.271 0.343
15.6407 11.448 0.345
15.6611 10.938 0.338
15.6816 12.156 0.356
15.7020 12.865 0.366
15.7225 15.969 0.408
15.7430 19.385 0.449
15.7634 26.563 0.526
15.7839 33.385 0.590
15.8044 30.844 0.567
15.8248 26.240 0.523
15.8453 20.354 0.460
15.8657 15.427 0.401
15.8862 12.500 0.361
15.9067 11.885 0.352
15.9271 11.375 0.344
15.9476 10.979 0.338
15.9681 11.313 0.343
15.9885 11.010 0.339
16.0090 10.646 0.333
16.0295 10.719 0.334
16.0499 11.104 0.340
16.0704 10.448 0.330
16.0908 10.313 0.328
16.1113 10.104 0.324
16.1318 9.865 0.321
16.1522 10.646 0.333
16.1727 10.313 0.328
16.1932 10.229 0.326
16.2136 10.583 0.332
16.2341 9.958 0.322
16.2545 10.135 0.325
16.2750 10.115 0.325
16.2955 9.896 0.321
16.3159 9.948 0.322
16.3364 10.052 0.324
16.3569 10.469 0.330
16.3773 10.573 0.332
16.3978 10.271 0.327
16.4182 10.365 0.329
16.4387 10.563 0.332
16.4592 9.688 0.318
16.4796 10.292 0.327
16.5001 10.198 0.326
16.5206 10.146 0.325
16.5410 10.250 0.327
16.5615 10.323 0.328
16.5819 10.531 0.331
16.6024 10.135 0.325
16.6229 10.260 0.327
16.6433 10.500 0.331
16.6638 10.469 0.330
16.6843 10.302 0.328
16.7047 10.104 0.324
16.7252 9.625 0.317
16.7456 10.333 0.328
16.7661 10.417 0.329
16.7866 10.531 0.331
16.8070 10.604 0.332
16.8275 10.167 0.325
16.8480 10.406 0.329
16.8684 10.521 0.331
16.8889 10.521 0.331
16.9094 10.135 0.325
16.9298 10.854 0.336
16.9503 9.688 0.318
16.9707 10.354 0.328
16.9912 11.302 0.343
17.0117 10.510 0.331
17.0321 9.906 0.321
17.0526 10.958 0.338
17.0731 10.240 0.327
17.0935 10.771 0.335
17.1140 9.865 0.321
17.1344 10.604 0.332
17.1549 10.854 0.336
17.1754 10.615 0.333
17.1958 10.823 0.336
17.2163 10.979 0.338
17.2368 11.177 0.341
17.2572 11.198 0.342
17.2777 11.240 0.342
17.2981 11.594 0.348
17.3186 11.323 0.343
17.3391 11.042 0.339
17.3595 11.427 0.345
17.3800 11.490 0.346
17.4005 11.938 0.353
17.4209 11.729 0.350
17.4414 12.406 0.359
17.4618 11.760 0.350
17.4823 11.583 0.347
17.5028 12.500 0.361
17.5232 12.240 0.357
17.5437 12.865 0.366
17.5642 12.135 0.356
17.5846 12.490 0.361
17.6051 12.469 0.360
17.6255 13.083 0.369
17.6460 12.771 0.365
17.6665 13.510 0.375
17.6869 13.677 0.377
17.7074 12.885 0.366
17.7279 13.802 0.379
17.7483 13.542 0.376
17.7688 14.292 0.386
17.7893 15.615 0.403
17.8097 16.729 0.417
17.8302 18.896 0.444
17.8506 19.771 0.454
17.8711 18.146 0.435
17.8916 18.656 0.441
17.9120 17.385 0.426
17.9325 17.323 0.425
17.9530 17.875 0.432
17.9734 17.635 0.429
17.9939 17.563 0.428
18.0143 17.135 0.422
18.0348 17.438 0.426
18.0553 18.135 0.435
18.0757 18.448 0.438
18.0962 19.750 0.454
18.1167 19.844 0.455
18.1371 19.563 0.451
18.1576 19.083 0.446
18.1780 19.313 0.449
18.1985 20.500 0.462
18.2190 20.708 0.464
18.2394 21.417 0.472
18.2599 22.250 0.481
18.2804 22.208 0.481
18.3008 23.979 0.500
18.3213 23.688 0.497
18.3417 24.667 0.507
18.3622 24.063 0.501
18.3827 24.573 0.506
18.4031 23.344 0.493
18.4236 23.594 0.496
18.4441 23.844 0.498
18.4645 23.698 0.497
18.4850 22.885 0.488
18.5054 23.052 0.490
18.5259 22.604 0.485
18.5464 22.000 0.479
18.5668 21.906 0.478
18.5873 22.094 0.480
18.6078 20.771 0.465
18.6282 21.146 0.469
18.6487 21.188 0.470
18.6692 20.927 0.467
18.6896 20.250 0.459
18.7101 20.167 0.458
18.7305 19.906 0.455
18.7510 20.292 0.460
18.7715 19.583 0.452
18.7919 20.500 0.462
18.8124 19.063 0.446
18.8329 19.948 0.456
18.8533 21.260 0.471
18.8738 23.010 0.490
18.8942 23.948 0.499
18.9147 22.885 0.488
18.9352 21.229 0.470
18.9556 19.396 0.449
18.9761 17.948 0.432
18.9966 17.010 0.421
19.0170 16.906 0.420
19.0375 16.938 0.420
19.0579 17.042 0.421
19.0784 16.823 0.419
19.0989 16.115 0.410
19.1193 16.052 0.409
19.1398 16.719 0.417
19.1603 16.927 0.420
19.1807 17.844 0.431
19.2012 18.688 0.441
19.2216 17.573 0.428
19.2421 19.125 0.446
19.2626 17.667 0.429
19.2830 18.948 0.444
19.3035 18.938 0.444
19.3240 19.406 0.450
19.3444 19.938 0.456
19.3649 19.740 0.453
19.3853 19.760 0.454
19.4058 20.271 0.460
19.4263 21.385 0.472
19.4467 21.958 0.478
19.4672 22.531 0.484
19.4877 22.719 0.486
19.5081 24.510 0.505
19.5286 26.240 0.523
19.5491 27.552 0.536
19.5695 29.771 0.557
19.5900 32.698 0.584
19.6104 35.719 0.610
19.6309 35.771 0.610
19.6514 40.521 0.650
19.6718 43.323 0.672
19.6923 47.656 0.705
19.7128 55.958 0.763
19.7332 65.302 0.825
19.7537 80.719 0.917
19.7741 106.781 1.055
19.7946 151.896 1.258
19.8151 230.854 1.551
19.8355 351.490 1.913
19.8560 437.375 2.134
19.8765 391.708 2.020
19.8969 316.635 1.816
19.9174 242.958 1.591
19.9378 154.333 1.268
19.9583 96.906 1.005
19.9788 69.313 0.850
19.9992 55.990 0.764
20.0197 48.604 0.712
20.0402 43.031 0.670
20.0606 38.542 0.634
20.0811 36.260 0.615
20.1015 32.823 0.585
20.1220 31.073 0.569
20.1425 28.354 0.543
20.1629 27.229 0.533
20.1834 27.417 0.534
20.2039 26.740 0.528
20.2243 24.760 0.508
20.2448 24.292 0.503
20.2653 23.500 0.495
20.2857 22.510 0.484
20.3062 23.031 0.490
20.3266 22.583 0.485
20.3471 22.406 0.483
20.3676 22.625 0.485
20.3880 22.052 0.479
20.4085 21.969 0.478
20.4290 20.448 0.462
20.4494 22.094 0.480
20.4699 21.771 0.476
20.4903 21.833 0.477
20.5108 21.448 0.473
20.5313 20.125 0.458
20.5517 20.563 0.463
20.5722 19.438 0.450
20.5927 19.729 0.453
20.6131 18.990 0.445
20.6336 18.115 0.434
20.6540 18.646 0.441
20.6745 17.313 0.425
20.6950 17.667 0.429
20.7154 17.396 0.426
20.7359 16.313 0.412
20.7564 16.521 0.415
20.7768 16.448 0.414
20.7973 15.813 0.406
20.8177 15.844 0.406
20.8382 15.656 0.404
20.8587 15.146 0.397
20.8791 14.750 0.392
20.8996 14.323 0.386
20.9201 14.656 0.391
20.9405 14.594 0.390
20.9610 15.073 0.396
20.9814 15.042 0.396
21.0019 14.177 0.384
21.0224 15.083 0.396
21.0428 14.708 0.391
21.0633 14.427 0.388
21.0838 14.938 0.394
21.1042 14.948 0.395
21.1247 14.781 0.392
21.1452 15.271 0.399
21.1656 14.958 0.395
21.1861 16.156 0.410
21.2065 17.302 0.425
21.2270 17.792 0.430
21.2475 20.156 0.458
21.2679 23.052 0.490
21.2884 25.469 0.515
21.3089 26.698 0.527
21.3293 28.771 0.547
21.3498 27.198 0.532
21.3702 27.417 0.534
21.3907 25.615 0.517
21.4112 23.813 0.498
21.4316 20.760 0.465
21.4521 19.531 0.451
21.4726 17.479 0.427
21.4930 16.667 0.417
21.5135 15.417 0.401
21.5339 14.094 0.383
21.5544 13.948 0.381
21.5749 13.188 0.371
21.5953 13.802 0.379
21.6158 12.740 0.364
21.6363 13.260 0.372
21.6567 13.521 0.375
21.6772 12.625 0.363
21.6976 11.917 0.352
21.7181 12.333 0.358
21.7386 11.875 0.352
21.7590 11.552 0.347
21.7795 11.292 0.343
21.8000 11.594 0.348
21.8204 11.677 0.349
21.8409 12.156 0.356
21.8613 11.823 0.351
21.8818 11.500 0.346
21.9023 11.698 0.349
21.9227 12.302 0.358
21.9432 12.208 0.357
21.9637 13.094 0.369
21.9841 13.010 0.368
22.0046 13.667 0.377
22.0251 13.313 0.372
22.0455 14.260 0.385
22.0660 14.885 0.394
22.0864 16.313 0.412
22.1069 16.302 0.412
22.1274 18.615 0.440
22.1478 21.010 0.468
22.1683 26.229 0.523
22.1888 32.854 0.585
22.2092 37.208 0.623
22.2297 36.031 0.613
22.2501 34.260 0.597
22.2706 31.094 0.569
22.2911 26.656 0.527
22.3115 22.365 0.483
22.3320 18.875 0.443
22.3525 17.031 0.421
22.3729 15.896 0.407
22.3934 14.948 0.395
22.4138 14.365 0.387
22.4343 13.573 0.376
22.4548 14.188 0.384
22.4752 13.156 0.370
22.4957 12.385 0.359
22.5162 12.313 0.358
22.5366 12.104 0.355
22.5571 11.573 0.347
22.5775 10.844 0.336
22.5980 11.490 0.346
22.6185 11.500 0.346
22.6389 11.427 0.345
22.6594 11.167 0.341
22.6799 11.240 0.342
22.7003 11.198 0.342
22.7208 11.073 0.340
22.7412 11.813 0.351
22.7617 10.635 0.333
22.7822 11.375 0.344
22.8026 11.135 0.341
22.8231 11.271 0.343
22.8436 12.438 0.360
22.8640 13.125 0.370
22.8845 15.438 0.401
22.9050 18.781 0.442
22.9254 20.729 0.465
22.9459 19.031 0.445
22.9663 16.760 0.418
22.9868 15.344 0.400
23.0073 13.510 0.375
23.0277 11.677 0.349
23.0482 11.656 0.348
23.0687 11.010 0.339
23.0891 10.740 0.334
23.1096 10.479 0.330
23.1300 9.990 0.323
23.1505 10.063 0.324
23.1710 9.490 0.314
23.1914 10.156 0.325
23.2119 10.219 0.326
23.2324 9.292 0.311
23.2528 9.271 0.311
23.2733 9.917 0.321
23.2937 9.760 0.319
23.3142 9.635 0.317
23.3347 10.031 0.323
23.3551 9.354 0.312
23.3756 9.292 0.311
23.3961 9.063 0.307
23.4165 9.323 0.312
23.4370 9.177 0.309
23.4574 9.615 0.316
23.4779 9.115 0.308
23.4984 10.396 0.329
23.5188 10.260 0.327
23.5393 10.417 0.329
23.5598 10.125 0.325
23.5802 10.104 0.324
23.6007 9.469 0.314
23.6211 9.698 0.318
23.6416 9.292 0.311
23.6621 9.490 0.314
23.6825 9.479 0.314
23.7030 9.479 0.314
23.7235 8.969 0.306
23.7439 9.563 0.316
23.7644 8.781 0.302
23.7849 8.885 0.304
23.8053 9.344 0.312
23.8258 8.917 0.305
23.8462 8.865 0.304
23.8667 8.760 0.302
23.8872 8.875 0.304
23.9076 8.885 0.304
23.9281 8.792 0.303
23.9486 9.240 0.310
23.9690 8.375 0.295
23.9895 9.010 0.306
24.0099 8.615 0.300
24.0304 8.885 0.304
24.0509 9.344 0.312
24.0713 8.719 0.301
24.0918 8.990 0.306
24.1123 8.781 0.302
24.1327 8.781 0.302
24.1532 9.146 0.309
24.1736 9.302 0.311
24.1941 9.750 0.319
24.2146 9.688 0.318
24.2350 10.125 0.325
24.2555 10.375 0.329
24.2760 9.938 0.322
24.2964 9.885 0.321
24.3169 10.510 0.331
24.3373 10.854 0.336
24.3578 11.396 0.345
24.3783 10.896 0.337
24.3987 11.385 0.344
24.4192 10.875 0.337
24.4397 10.094 0.324
24.4601 10.229 0.326
24.4806 9.510 0.315
24.5011 9.052 0.307
24.5215 9.854 0.320
24.5420 9.333 0.312
24.5624 8.604 0.299
24.5829 9.135 0.308
24.6034 9.188 0.309
24.6238 9.323 0.312
24.6443 8.771 0.302
24.6648 9.083 0.308
24.6852 10.833 0.336
24.7057 11.042 0.339
24.7261 9.833 0.320
24.7466 9.844 0.320
24.7671 9.115 0.308
24.7875 9.292 0.311
24.8080 9.260 0.311
24.8285 8.135 0.291
24.8489 8.438 0.296
24.8694 8.094 0.290
24.8898 8.615 0.300
24.9103 9.146 0.309
24.9308 8.625 0.300
24.9512 8.698 0.301
24.9717 8.563 0.299
24.9922 8.240 0.293
25.0126 8.917 0.305
25.0331 8.781 0.302
25.0535 8.333 0.295
25.0740 8.500 0.298
25.0945 8.698 0.301
25.1149 7.750 0.284
25.1354 8.417 0.296
25.1559 7.813 0.285
25.1763 8.177 0.292
25.1968 7.823 0.285
25.2172 8.625 0.300
25.2377 8.094 0.290
25.2582 8.438 0.296
25.2786 8.521 0.298
25.2991 8.552 0.298
25.3196 8.146 0.291
25.3400 8.646 0.300
25.3605 8.135 0.291
25.3810 8.344 0.295
25.4014 7.979 0.288
25.4219 8.198 0.292
25.4423 8.115 0.291
25.4628 8.948 0.305
25.4833 8.740 0.302
25.5037 8.719 0.301
25.5242 9.177 0.309
25.5447 9.948 0.322
25.5651 10.656 0.333
25.5856 13.240 0.371
25.6060 14.375 0.387
25.6265 12.625 0.363
25.6470 12.219 0.357
25.6674 11.813 0.351
25.6879 10.802 0.335
25.7084 10.427 0.330
25.7288 8.583 0.299
25.7493 8.563 0.299
25.7697 8.604 0.299
25.7902 8.750 0.302
25.8107 8.438 0.296
25.8311 9.083 0.308
25.8516 8.510 0.298
25.8721 8.073 0.290
25.8925 8.417 0.296
25.9130 8.813 0.303
25.9334 8.802 0.303
25.9539 9.042 0.307
25.9744 8.219 0.293
25.9948 9.010 0.306
26.0153 8.635 0.300
26.0358 9.063 0.307
26.0562 8.604 0.299
26.0767 8.979 0.306
26.0971 8.615 0.300
26.1176 8.875 0.304
26.1381 9.052 0.307
26.1585 8.771 0.302
26.1790 8.594 0.299
26.1995 7.979 0.288
26.2199 8.104 0.291
26.2404 8.917 0.305
26.2609 8.344 0.295
26.2813 7.708 0.283
26.3018 8.604 0.299
26.3222 8.365 0.295
26.3427 8.167 0.292
26.3632 8.563 0.299
26.3836 8.115 0.291
26.4041 7.958 0.288
26.4246 8.469 0.297
26.4450 8.635 0.300
26.4655 8.500 0.298
26.4859 8.510 0.298
26.5064 8.292 0.294
26.5269 8.688 0.301
26.5473 8.625 0.300
26.5678 8.625 0.300
26.5883 8.333 0.295
26.6087 8.094 0.290
26.6292 8.635 0.300
26.6496 8.240 0.293
26.6701 8.313 0.294
26.6906 8.656 0.300
26.7110 8.656 0.300
26.7315 8.719 0.301
26.7520 8.344 0.295
26.7724 8.344 0.295
26.7929 8.042 0.289
26.8133 8.240 0.293
26.8338 7.885 0.287
26.8543 8.156 0.291
26.8747 8.854 0.304
26.8952 8.417 0.296
26.9157 8.073 0.290
26.9361 8.563 0.299
26.9566 8.646 0.300
26.9770 8.010 0.289
26.9975 8.833 0.303
27.0180 8.354 0.295
27.0384 8.406 0.296
27.0589 8.969 0.306
27.0794 8.344 0.295
27.0998 8.323 0.294
27.1203 8.177 0.292
27.1408 8.792 0.303
27.1612 8.302 0.294
27.1817 8.167 0.292
27.2021 8.781 0.302
27.2226 8.427 0.296
27.2431 9.229 0.310
27.2635 9.906 0.321
27.2840 8.885 0.304
27.3045 8.708 0.301
27.3249 8.823 0.303
27.3454 9.354 0.312
27.3658 8.385 0.296
27.3863 8.021 0.289
27.4068 8.906 0.305
27.4272 8.781 0.302
27.4477 9.813 0.320
27.4682 10.917 0.337
27.4886 11.688 0.349
27.5091 11.771 0.350
27.5295 11.083 0.340
27.5500 10.781 0.335
27.5705 10.542 0.331
27.5909 9.563 0.316
27.6114 8.656 0.300
27.6319 8.833 0.303
27.6523 8.344 0.295
27.6728 8.583 0.299
27.6932 8.198 0.292
27.7137 8.313 0.294
27.7342 7.885 0.287
27.7546 7.531 0.280
27.7751 8.479 0.297
27.7956 8.146 0.291
27.8160 7.844 0.286
27.8365 7.969 0.288
27.8569 8.313 0.294
27.8774 8.125 0.291
27.8979 8.042 0.289
27.9183 7.813 0.285
27.9388 8.469 0.297
27.9593 8.281 0.294
27.9797 7.656 0.282
28.0002 7.958 0.288
28.0207 8.448 0.297
28.0411 7.688 0.283
28.0616 7.771 0.285
28.0820 7.813 0.285
28.1025 8.198 0.292
28.1230 8.313 0.294
28.1434 7.594 0.281
28.1639 8.302 0.294
28.1844 7.688 0.283
28.2048 8.250 0.293
28.2253 7.823 0.285
28.2457 7.875 0.286
28.2662 7.844 0.286
28.2867 7.510 0.280
28.3071 8.156 0.291
28.3276 7.896 0.287
28.3481 8.281 0.294
28.3685 7.781 0.285
28.3890 7.802 0.285
28.4094 7.583 0.281
28.4299 7.760 0.284
28.4504 7.906 0.287
28.4708 7.979 0.288
28.4913 8.042 0.289
28.5118 7.635 0.282
28.5322 7.792 0.285
28.5527 7.771 0.285
28.5731 7.969 0.288
28.5936 7.615 0.282
28.6141 7.854 0.286
28.6345 7.573 0.281
28.6550 7.948 0.288
28.6755 7.813 0.285
28.6959 8.219 0.293
28.7164 8.010 0.289
28.7368 8.250 0.293
28.7573 8.177 0.292
28.7778 7.875 0.286
28.7982 8.250 0.293
28.8187 7.771 0.285
28.8392 7.927 0.287
28.8596 7.375 0.277
28.8801 7.906 0.287
28.9006 7.469 0.279
28.9210 7.885 0.287
28.9415 7.448 0.279
28.9619 7.844 0.286
28.9824 8.125 0.291
29.0029 7.906 0.287
29.0233 7.823 0.285
29.0438 7.406 0.278
29.0643 7.927 0.287
29.0847 6.708 0.264
29.1052 8.010 0.289
29.1256 7.438 0.278
29.1461 7.500 0.280
29.1666 7.781 0.285
29.1870 6.865 0.267
29.2075 7.542 0.280
29.2280 7.750 0.284
29.2484 7.406 0.278
29.2689 7.271 0.275
29.2893 7.646 0.282
29.3098 7.521 0.280
29.3303 7.781 0.285
29.3507 7.781 0.285
29.3712 7.906 0.287
29.3917 7.542 0.280
29.4121 8.344 0.295
29.4326 8.469 0.297
29.4530 7.771 0.285
29.4735 8.094 0.290
29.4940 7.552 0.280
29.5144 7.417 0.278
29.5349 7.594 0.281
29.5554 8.031 0.289
29.5758 8.240 0.293
29.5963 8.219 0.293
29.6168 8.188 0.292
29.6372 8.635 0.300
29.6577 8.667 0.300
29.6781 7.906 0.287
29.6986 7.615 0.282
29.7191 7.938 0.288
29.7395 7.104 0.272
29.7600 7.823 0.285
29.7805 7.729 0.284
29.8009 7.667 0.283
29.8214 6.979 0.270
29.8418 7.250 0.275
29.8623 7.771 0.285
29.8828 6.927 0.269
29.9032 7.896 0.287
29.9237 7.229 0.274
29.9442 7.260 0.275
29.9646 7.115 0.272
29.9851 7.615 0.282
30.0055 7.729 0.284
30.0260 7.156 0.273
30.0465 6.833 0.267
30.0669 7.760 0.284
30.0874 7.156 0.273
30.1079 7.979 0.288
30.1283 7.281 0.275
30.1488 7.135 0.273
30.1692 6.979 0.270
30.1897 7.604 0.281
30.2102 7.167 0.273
30.2306 7.365 0.277
30.2511 7.177 0.273
30.2716 7.323 0.276
30.2920 7.469 0.279
30.3125 6.760 0.265
30.3329 7.479 0.279
30.3534 7.490 0.279
30.3739 7.854 0.286
30.3943 6.906 0.268
30.4148 7.000 0.270
30.4353 7.313 0.276
30.4557 7.281 0.275
30.4762 7.479 0.279
30.4967 6.958 0.269
30.5171 7.188 0.274
30.5376 7.271 0.275
30.5580 7.125 0.272
30.5785 7.417 0.278
30.5990 6.948 0.269
30.6194 7.313 0.276
30.6399 7.406 0.278
30.6604 6.833 0.267
30.6808 7.458 0.279
30.7013 7.656 0.282
30.7217 7.500 0.280
30.7422 7.729 0.284
30.7627 7.802 0.285
30.7831 7.698 0.283
30.8036 8.396 0.296
30.8241 7.656 0.282
30.8445 8.708 0.301
30.8650 8.615 0.300
30.8854 9.448 0.314
30.9059 10.031 0.323
30.9264 9.990 0.323
30.9468 11.875 0.352
30.9673 14.021 0.382
30.9878 17.615 0.428
31.0082 22.896 0.488
31.0287 30.625 0.565
31.0491 33.781 0.593
31.0696 32.458 0.581
31.0901 29.563 0.555
31.1105 27.833 0.538
31.1310 25.635 0.517
31.1515 21.292 0.471
31.1719 17.896 0.432
31.1924 14.135 0.384
31.2128 12.865 0.366
31.2333 11.260 0.342
31.2538 10.594 0.332
31.2742 9.542 0.315
31.2947 9.594 0.316
31.3152 8.792 0.303
31.3356 8.052 0.290
31.3561 8.344 0.295
31.3766 8.156 0.291
31.3970 7.677 0.283
31.4175 7.958 0.288
31.4379 8.042 0.289
31.4584 7.552 0.280
31.4789 7.646 0.282
31.4993 7.875 0.286
31.5198 7.740 0.284
31.5403 6.708 0.264
31.5607 6.802 0.266
31.5812 7.531 0.280
31.6016 7.625 0.282
31.6221 7.521 0.280
31.6426 7.094 0.272
31.6630 7.354 0.277
31.6835 7.031 0.271
31.7040 7.313 0.276
31.7244 6.906 0.268
31.7449 7.542 0.280
31.7653 7.771 0.285
31.7858 7.635 0.282
31.8063 7.927 0.287
31.8267 8.281 0.294
31.8472 8.552 0.298
31.8677 8.281 0.294
31.8881 8.208 0.292
31.9086 8.094 0.290
31.9290 8.260 0.293
31.9495 8.240 0.293
31.9700 7.969 0.288
31.9904 8.031 0.289
32.0109 8.521 0.298
32.0314 8.417 0.296
32.0518 8.542 0.298
32.0723 8.771 0.302
32.0927 8.969 0.306
32.1132 9.479 0.314
32.1337 10.667 0.333
32.1541 10.250 0.327
32.1746 10.760 0.335
32.1951 12.375 0.359
32.2155 14.208 0.385
32.2360 15.510 0.402
32.2565 15.677 0.404
32.2769 12.708 0.364
32.2974 12.865 0.366
32.3178 12.792 0.365
32.3383 12.156 0.356
32.3588 10.625 0.333
32.3792 9.292 0.311
32.3997 8.781 0.302
32.4202 8.938 0.305
32.4406 9.313 0.311
32.4611 9.104 0.308
32.4815 9.083 0.308
32.5020 9.677 0.317
32.5225 9.438 0.314
32.5429 9.948 0.322
32.5634 10.052 0.324
32.5839 11.740 0.350
32.6043 13.354 0.373
32.6248 15.521 0.402
32.6452 16.042 0.409
32.6657 15.906 0.407
32.6862 15.958 0.408
32.7066 14.854 0.393
32.7271 13.833 0.380
32.7476 12.792 0.365
32.7680 11.563 0.347
32.7885 10.417 0.329
32.8089 9.406 0.313
32.8294 9.052 0.307
32.8499 8.000 0.289
32.8703 7.885 0.287
32.8908 8.323 0.294
32.9113 7.823 0.285
32.9317 8.021 0.289
32.9522 8.125 0.291
32.9726 7.813 0.285
32.9931 7.938 0.288
33.0136 7.792 0.285
33.0340 7.604 0.281
33.0545 7.813 0.285
33.0750 7.906 0.287
33.0954 7.969 0.288
33.1159 7.948 0.288
33.1364 7.906 0.287
33.1568 8.365 0.295
33.1773 8.542 0.298
33.1977 8.458 0.297
33.2182 7.896 0.287
33.2387 7.823 0.285
33.2591 7.958 0.288
33.2796 7.938 0.288
33.3001 7.458 0.279
33.3205 7.625 0.282
33.3410 8.333 0.295
33.3614 7.823 0.285
33.3819 8.417 0.296
33.4024 8.385 0.296
33.4228 7.646 0.282
33.4433 7.865 0.286
33.4638 8.479 0.297
33.4842 7.729 0.284
33.5047 7.990 0.288
33.5251 7.260 0.275
33.5456 7.302 0.276
33.5661 6.708 0.264
33.5865 7.000 0.270
33.6070 7.104 0.272
33.6275 6.938 0.269
33.6479 6.760 0.265
33.6684 7.396 0.278
33.6888 7.271 0.275
33.7093 6.615 0.262
33.7298 7.448 0.279
33.7502 6.917 0.268
33.7707 7.167 0.273
33.7912 6.958 0.269
33.8116 7.198 0.274
33.8321 7.396 0.278
33.8526 6.740 0.265
33.8730 7.250 0.275
33.8935 7.010 0.270
33.9139 7.365 0.277
33.9344 7.365 0.277
33.9549 7.323 0.276
33.9753 7.083 0.272
33.9958 7.354 0.277
34.0163 7.896 0.287
34.0367 7.083 0.272
34.0572 7.177 0.273
34.0776 7.427 0.278
34.0981 7.542 0.280
34.1186 8.229 0.293
34.1390 7.542 0.280
34.1595 8.021 0.289
34.1800 8.729 0.302
34.2004 9.323 0.312
34.2209 10.510 0.331
34.2413 12.240 0.357
34.2618 12.469 0.360
34.2823 12.031 0.354
34.3027 11.313 0.343
34.3232 10.927 0.337
34.3437 11.177 0.341
34.3641 9.906 0.321
34.3846 9.052 0.307
34.4050 8.938 0.305
34.4255 8.021 0.289
34.4460 8.000 0.289
34.4664 7.885 0.287
34.4869 7.615 0.282
34.5074 7.615 0.282
34.5278 7.365 0.277
34.5483 7.313 0.276
34.5687 7.583 0.281
34.5892 7.094 0.272
34.6097 7.448 0.279
34.6301 7.177 0.273
34.6506 7.021 0.270
34.6711 7.479 0.279
34.6915 7.021 0.270
34.7120 7.229 0.274
34.7325 7.365 0.277
34.7529 7.750 0.284
34.7734 7.000 0.270
34.7938 7.885 0.287
34.8143 7.708 0.283
34.8348 8.167 0.292
34.8552 7.865 0.286
34.8757 7.979 0.288
34.8962 8.896 0.304
34.9166 9.385 0.313
34.9371 10.385 0.329
34.9575 13.448 0.374
34.9780 15.031 0.396
34.9985 13.365 0.373
35.0189 12.438 0.360
35.0394 11.427 0.345
35.0599 12.406 0.359
35.0803 10.823 0.336
35.1008 9.833 0.320
35.1212 9.052 0.307
35.1417 8.229 0.293
35.1622 8.063 0.290
35.1826 7.333 0.276
35.2031 7.094 0.272
35.2236 8.250 0.293
35.2440 7.052 0.271
35.2645 7.323 0.276
35.2849 7.729 0.284
35.3054 7.490 0.279
35.3259 7.104 0.272
35.3463 7.396 0.278
35.3668 7.688 0.283
35.3873 7.979 0.288
35.4077 7.552 0.280
35.4282 7.479 0.279
35.4486 7.448 0.279
35.4691 7.281 0.275
35.4896 7.396 0.278
35.5100 7.760 0.284
35.5305 8.344 0.295
35.5510 8.344 0.295
35.5714 7.958 0.288
35.5919 7.573 0.281
35.6124 7.771 0.285
35.6328 8.792 0.303
35.6533 8.042 0.289
35.6737 8.281 0.294
35.6942 8.094 0.290
35.7147 7.552 0.280
35.7351 8.313 0.294
35.7556 8.010 0.289
35.7761 8.229 0.293
35.7965 8.458 0.297
35.8170 8.448 0.297
35.8374 8.240 0.293
35.8579 8.469 0.297
35.8784 9.323 0.312
35.8988 9.573 0.316
35.9193 9.073 0.307
35.9398 9.573 0.316
35.9602 10.094 0.324
35.9807 10.146 0.325
36.0011 9.667 0.317
36.0216 10.646 0.333
36.0421 11.740 0.350
36.0625 11.594 0.348
36.0830 11.906 0.352
36.1035 11.865 0.352
36.1239 12.344 0.359
36.1444 12.406 0.359
36.1648 12.094 0.355
36.1853 11.969 0.353
36.2058 11.969 0.353
36.2262 12.083 0.355
36.2467 11.323 0.343
36.2672 11.031 0.339
36.2876 10.969 0.338
36.3081 11.365 0.344
36.3285 11.250 0.342
36.3490 11.219 0.342
36.3695 10.729 0.334
36.3899 11.281 0.343
36.4104 11.729 0.350
36.4309 11.927 0.352
36.4513 11.938 0.353
36.4718 12.458 0.360
36.4923 13.000 0.368
36.5127 12.719 0.364
36.5332 13.656 0.377
36.5536 14.958 0.395
36.5741 16.396 0.413
36.5946 18.698 0.441
36.6150 19.625 0.452
36.6355 21.365 0.472
36.6560 19.854 0.455
36.6764 18.885 0.444
36.6969 17.990 0.433
36.7173 17.792 0.430
36.7378 17.927 0.432
36.7583 16.365 0.413
36.7787 14.740 0.392
36.7992 14.000 0.382
36.8197 12.802 0.365
36.8401 13.229 0.371
36.8606 13.646 0.377
36.8810 14.219 0.385
36.9015 14.052 0.383
36.9220 14.604 0.390
36.9424 14.854 0.393
36.9629 15.729 0.405
36.9834 15.656 0.404
37.0038 16.813 0.418
37.0243 19.073 0.446
37.0447 20.281 0.460
37.0652 23.552 0.495
37.0857 26.458 0.525
37.1061 28.260 0.543
37.1266 27.083 0.531
37.1471 24.135 0.501
37.1675 24.021 0.500
37.1880 23.104 0.491
37.2084 21.531 0.474
37.2289 20.198 0.459
37.2494 19.417 0.450
37.2698 17.490 0.427
37.2903 16.250 0.411
37.3108 15.490 0.402
37.3312 14.302 0.386
37.3517 14.396 0.387
37.3722 13.625 0.377
37.3926 13.563 0.376
37.4131 12.542 0.361
37.4335 11.958 0.353
37.4540 11.396 0.345
37.4745 11.240 0.342
37.4949 10.990 0.338
37.5154 10.885 0.337
37.5359 10.917 0.337
37.5563 10.208 0.326
37.5768 10.323 0.328
37.5972 10.625 0.333
37.6177 10.281 0.327
37.6382 10.333 0.328
37.6586 10.302 0.328
37.6791 10.656 0.333
37.6996 10.260 0.327
37.7200 10.365 0.329
37.7405 11.406 0.345
37.7609 10.125 0.325
37.7814 11.042 0.339
37.8019 11.292 0.343
37.8223 10.250 0.327
37.8428 10.771 0.335
37.8633 11.094 0.340
37.8837 11.833 0.351
37.9042 11.490 0.346
37.9246 12.375 0.359
37.9451 13.031 0.368
37.9656 14.208 0.385
37.9860 15.521 0.402
38.0065 17.146 0.423
38.0270 18.854 0.443
38.0474 19.917 0.455
38.0679 19.375 0.449
38.0884 18.906 0.444
38.1088 19.250 0.448
38.1293 17.438 0.426
38.1497 16.969 0.420
38.1702 16.979 0.421
38.1907 14.625 0.390
38.2111 14.323 0.386
38.2316 13.094 0.369
38.2521 12.760 0.365
38.2725 12.385 0.359
38.2930 11.729 0.350
38.3134 12.156 0.356
38.3339 11.438 0.345
38.3544 11.740 0.350
38.3748 12.375 0.359
38.3953 11.146 0.341
38.4158 11.990 0.353
38.4362 11.583 0.347
38.4567 13.042 0.369
38.4771 13.906 0.381
38.4976 13.719 0.378
38.5181 13.229 0.371
38.5385 11.958 0.353
38.5590 12.063 0.354
38.5795 11.781 0.350
38.5999 11.375 0.344
38.6204 11.604 0.348
38.6408 10.354 0.328
38.6613 10.635 0.333
38.6818 9.740 0.319
38.7022 9.365 0.312
38.7227 9.167 0.309
38.7432 9.500 0.315
38.7636 8.771 0.302
38.7841 9.302 0.311
38.8045 9.010 0.306
38.8250 8.969 0.306
38.8455 8.750 0.302
38.8659 8.708 0.301
38.8864 8.938 0.305
38.9069 8.865 0.304
38.9273 8.677 0.301
38.9478 8.573 0.299
38.9683 8.667 0.300
38.9887 8.177 0.292
39.0092 8.240 0.293
39.0296 8.469 0.297
39.0501 8.656 0.300
39.0706 8.177 0.292
39.0910 8.635 0.300
39.1115 8.250 0.293
39.1320 8.156 0.291
39.1524 8.198 0.292
39.1729 8.365 0.295
39.1933 8.500 0.298
39.2138 8.625 0.300
39.2343 8.031 0.289
39.2547 7.948 0.288
39.2752 8.417 0.296
39.2957 8.167 0.292
39.3161 9.365 0.312
39.3366 8.396 0.296
39.3570 8.375 0.295
39.3775 8.375 0.295
39.3980 8.427 0.296
39.4184 8.417 0.296
39.4389 8.542 0.298
39.4594 7.896 0.287
39.4798 8.823 0.303
39.5003 8.635 0.300
39.5207 8.354 0.295
39.5412 8.698 0.301
39.5617 8.615 0.300
39.5821 8.281 0.294
39.6026 9.156 0.309
39.6231 8.896 0.304
39.6435 8.823 0.303
39.6640 8.594 0.299
39.6844 8.979 0.306
39.7049 9.198 0.310
39.7254 9.896 0.321
39.7458 9.063 0.307
39.7663 9.729 0.318
39.7868 10.354 0.328
39.8072 10.906 0.337
39.8277 10.927 0.337
39.8482 10.927 0.337
39.8686 10.979 0.338
39.8891 10.469 0.330
39.9095 10.146 0.325
39.9300 10.396 0.329
39.9505 10.219 0.326
39.9709 9.906 0.321
39.9914 9.552 0.315
40.0119 9.875 0.321
40.0323 9.396 0.313
40.0528 9.323 0.312
40.0732 8.885 0.304
40.0937 9.344 0.312
40.1142 9.313 0.311
40.1346 9.156 0.309
40.1551 9.406 0.313
40.1756 9.354 0.312
40.1960 10.333 0.328
40.2165 10.719 0.334
40.2369 12.490 0.361
40.2574 14.250 0.385
40.2779 16.188 0.411
40.2983 17.396 0.426
40.3188 17.115 0.422
40.3393 14.854 0.393
40.3597 14.083 0.383
40.3802 15.417 0.401
40.4006 14.594 0.390
40.4211 13.594 0.376
40.4416 11.698 0.349
40.4620 10.979 0.338
40.4825 10.354 0.328
40.5030 10.333 0.328
40.5234 9.646 0.317
40.5439 9.542 0.315
40.5643 9.458 0.314
40.5848 8.906 0.305
40.6053 8.771 0.302
40.6257 9.229 0.310
40.6462 8.813 0.303
40.6667 8.719 0.301
40.6871 9.385 0.313
40.7076 9.417 0.313
40.7281 9.719 0.318
40.7485 9.938 0.322
40.7690 10.708 0.334
40.7894 12.313 0.358
40.8099 15.073 0.396
40.8304 14.969 0.395
40.8508 13.490 0.375
40.8713 11.594 0.348
40.8918 11.656 0.348
40.9122 13.000 0.368
40.9327 12.552 0.362
40.9531 11.365 0.344
40.9736 10.510 0.331
40.9941 9.906 0.321
41.0145 10.427 0.330
41.0350 10.156 0.325
41.0555 10.823 0.336
41.0759 10.813 0.336
41.0964 11.802 0.351
41.1168 14.198 0.385
41.1373 15.729 0.405
41.1578 15.354 0.400
41.1782 15.333 0.400
41.1987 14.292 0.386
41.2192 14.073 0.383
41.2396 13.604 0.376
41.2601 13.406 0.374
41.2805 13.927 0.381
41.3010 12.240 0.357
41.3215 11.604 0.348
41.3419 11.073 0.340
41.3624 10.052 0.324
41.3829 9.833 0.320
41.4033 9.448 0.314
41.4238 9.094 0.308
41.4442 8.615 0.300
41.4647 8.646 0.300
41.4852 9.021 0.307
41.5056 7.323 0.276
41.5261 8.073 0.290
41.5466 7.740 0.284
41.5670 7.969 0.288
41.5875 7.635 0.282
41.6080 7.656 0.282
41.6284 7.885 0.287
41.6489 7.313 0.276
41.6693 8.198 0.292
41.6898 7.938 0.288
41.7103 7.792 0.285
41.7307 7.604 0.281
41.7512 8.198 0.292
41.7717 7.927 0.287
41.7921 7.479 0.279
41.8126 7.792 0.285
41.8330 8.135 0.291
41.8535 8.427 0.296
41.8740 9.885 0.321
41.8944 10.594 0.332
41.9149 10.781 0.335
41.9354 10.365 0.329
41.9558 9.656 0.317
41.9763 8.958 0.305
41.9967 9.417 0.313
42.0172 9.188 0.309
42.0377 9.010 0.306
42.0581 8.260 0.293
42.0786 7.792 0.285
42.0991 7.656 0.282
42.1195 7.521 0.280
42.1400 7.594 0.281
42.1604 7.427 0.278
42.1809 7.552 0.280
42.2014 7.833 0.286
42.2218 7.563 0.281
42.2423 7.146 0.273
42.2628 7.333 0.276
42.2832 7.115 0.272
42.3037 7.833 0.286
42.3242 6.948 0.269
42.3446 7.406 0.278
42.3651 8.698 0.301
42.3855 8.188 0.292
42.4060 7.542 0.280
42.4265 8.177 0.292
42.4469 7.958 0.288
42.4674 8.510 0.298
42.4879 8.000 0.289
42.5083 8.125 0.291
42.5288 9.458 0.314
42.5492 8.667 0.300
42.5697 9.188 0.309
42.5902 9.198 0.310
42.6106 8.479 0.297
42.6311 9.240 0.310
42.6516 9.563 0.316
42.6720 9.865 0.321
42.6925 9.823 0.320
42.7129 9.427 0.313
42.7334 9.500 0.315
42.7539 9.375 0.313
42.7743 9.260 0.311
42.7948 8.823 0.303
42.8153 8.396 0.296
42.8357 9.188 0.309
42.8562 8.229 0.293
42.8766 8.229 0.293
42.8971 8.438 0.296
42.9176 7.896 0.287
42.9380 7.604 0.281
42.9585 7.656 0.282
42.9790 7.823 0.285
42.9994 7.729 0.284
43.0199 7.594 0.281
43.0403 7.677 0.283
43.0608 7.969 0.288
43.0813 8.594 0.299
43.1017 8.198 0.292
43.1222 8.125 0.291
43.1427 8.281 0.294
43.1631 8.875 0.304
43.1836 8.552 0.298
43.2041 9.063 0.307
43.2245 9.115 0.308
43.2450 9.594 0.316
43.2654 10.104 0.324
43.2859 9.573 0.316
43.3064 9.698 0.318
43.3268 9.875 0.321
43.3473 9.906 0.321
43.3678 9.073 0.307
43.3882 10.094 0.324
43.4087 10.458 0.330
43.4291 10.625 0.333
43.4496 10.021 0.323
43.4701 10.188 0.326
43.4905 10.240 0.327
43.5110 11.365 0.344
43.5315 11.604 0.348
43.5519 12.781 0.365
43.5724 13.229 0.371
43.5928 14.604 0.390
43.6133 16.052 0.409
43.6338 17.542 0.427
43.6542 19.250 0.448
43.6747 18.896 0.444
43.6952 17.167 0.423
43.7156 16.771 0.418
43.7361 15.958 0.408
43.7565 15.271 0.399
43.7770 15.229 0.398
43.7975 13.958 0.381
43.8179 12.823 0.365
43.8384 11.688 0.349
43.8589 11.542 0.347
43.8793 10.896 0.337
43.8998 10.771 0.335
43.9202 9.885 0.321
43.9407 9.646 0.317
43.9612 9.104 0.308
43.9816 9.219 0.310
44.0021 8.563 0.299
44.0226 9.292 0.311
44.0430 8.198 0.292
44.0635 8.167 0.292
44.0840 8.438 0.296
44.1044 8.083 0.290
44.1249 8.083 0.290
44.1453 8.042 0.289
44.1658 7.500 0.280
44.1863 7.990 0.288
44.2067 8.594 0.299
44.2272 7.688 0.283
44.2477 7.844 0.286
44.2681 7.958 0.288
44.2886 8.031 0.289
44.3090 7.365 0.277
44.3295 7.656 0.282
44.3500 7.313 0.276
44.3704 7.531 0.280
44.3909 7.708 0.283
44.4114 7.896 0.287
44.4318 7.354 0.277
44.4523 7.740 0.284
44.4727 8.073 0.290
44.4932 7.979 0.288
44.5137 8.042 0.289
44.5341 7.958 0.288
44.5546 7.865 0.286
44.5751 8.042 0.289
44.5955 8.229 0.293
44.6160 7.969 0.288
44.6364 7.417 0.278
44.6569 7.969 0.288
44.6774 7.542 0.280
44.6978 7.917 0.287
44.7183 8.104 0.291
44.7388 7.927 0.287
44.7592 7.948 0.288
44.7797 8.344 0.295
44.8001 8.344 0.295
44.8206 8.469 0.297
44.8411 7.979 0.288
44.8615 8.490 0.297
44.8820 8.354 0.295
44.9025 8.708 0.301
44.9229 8.865 0.304
44.9434 8.635 0.300
44.9639 8.542 0.298
44.9843 8.969 0.306
45.0048 9.042 0.307
45.0252 8.750 0.302
45.0457 8.552 0.298
45.0662 8.594 0.299
45.0866 8.729 0.302
45.1071 8.375 0.295
45.1276 8.823 0.303
45.1480 9.063 0.307
45.1685 8.469 0.297
45.1889 8.833 0.303
45.2094 9.615 0.316
45.2299 9.896 0.321
45.2503 10.167 0.325
45.2708 9.958 0.322
45.2913 10.427 0.330
45.3117 9.990 0.323
45.3322 9.833 0.320
45.3526 9.521 0.315
45.3731 9.385 0.313
45.3936 9.063 0.307
45.4140 9.010 0.306
45.4345 8.615 0.300
45.4550 8.031 0.289
45.4754 7.802 0.285
45.4959 7.771 0.285
45.5163 8.021 0.289
45.5368 7.396 0.278
45.5573 7.698 0.283
45.5777 7.469 0.279
45.5982 7.542 0.280
45.6187 7.115 0.272
45.6391 7.063 0.271
45.6596 7.167 0.273
45.6800 6.865 0.267
45.7005 7.198 0.274
45.7210 7.073 0.271
45.7414 7.188 0.274
45.7619 6.677 0.264
45.7824 7.552 0.280
45.8028 7.229 0.274
45.8233 7.708 0.283
45.8438 7.573 0.281
45.8642 6.958 0.269
45.8847 7.104 0.272
45.9051 7.250 0.275
45.9256 7.396 0.278
45.9461 7.510 0.280
45.9665 7.615 0.282
45.9870 7.063 0.271
46.0075 7.354 0.277
46.0279 7.135 0.273
46.0484 7.323 0.276
46.0688 7.135 0.273
46.0893 7.406 0.278
46.1098 6.792 0.266
46.1302 6.729 0.265
46.1507 6.990 0.270
46.1712 6.583 0.262
46.1916 6.854 0.267
46.2121 6.885 0.268
46.2325 6.938 0.269
46.2530 7.063 0.271
46.2735 7.219 0.274
46.2939 7.021 0.270
46.3144 6.760 0.265
46.3349 6.813 0.266
46.3553 6.729 0.265
46.3758 6.938 0.269
46.3962 6.177 0.254
46.4167 7.125 0.272
46.4372 7.396 0.278
46.4576 6.688 0.264
46.4781 6.719 0.265
46.4986 6.646 0.263
46.5190 6.813 0.266
46.5395 6.750 0.265
46.5600 6.802 0.266
46.5804 7.073 0.271
46.6009 7.885 0.287
46.6213 8.146 0.291
46.6418 8.615 0.300
46.6623 7.990 0.288
46.6827 7.531 0.280
46.7032 6.969 0.269
46.7237 7.667 0.283
46.7441 7.656 0.282
46.7646 7.990 0.288
46.7850 7.531 0.280
46.8055 7.760 0.284
46.8260 7.177 0.273
46.8464 7.167 0.273
46.8669 6.427 0.259
46.8874 7.135 0.273
46.9078 7.073 0.271
46.9283 6.802 0.266
46.9487 6.938 0.269
46.9692 6.229 0.255
46.9897 7.156 0.273
47.0101 6.729 0.265
47.0306 6.458 0.259
47.0511 7.094 0.272
47.0715 6.552 0.261
47.0920 6.917 0.268
47.1124 6.813 0.266
47.1329 6.833 0.267
47.1534 6.469 0.260
47.1738 6.615 0.262
47.1943 6.594 0.262
47.2148 6.802 0.266
47.2352 6.583 0.262
47.2557 7.094 0.272
47.2761 6.885 0.268
47.2966 7.021 0.270
47.3171 7.104 0.272
47.3375 7.198 0.274
47.3580 6.885 0.268
47.3785 7.281 0.275
47.3989 7.667 0.283
47.4194 7.073 0.271
47.4399 7.323 0.276
47.4603 7.885 0.287
47.4808 7.802 0.285
47.5012 8.292 0.294
47.5217 8.729 0.302
47.5422 8.760 0.302
47.5626 9.500 0.315
47.5831 11.177 0.341
47.6036 11.750 0.350
47.6240 12.406 0.359
47.6445 13.177 0.370
47.6649 12.771 0.365
47.6854 12.135 0.356
47.7059 11.167 0.341
47.7263 11.260 0.342
47.7468 11.302 0.343
47.7673 11.313 0.343
47.7877 10.063 0.324
47.8082 9.969 0.322
47.8286 8.802 0.303
47.8491 8.000 0.289
47.8696 8.125 0.291
47.8900 7.885 0.287
47.9105 7.469 0.279
47.9310 7.854 0.286
47.9514 7.135 0.273
47.9719 7.469 0.279
47.9923 6.677 0.264
48.0128 7.604 0.281
48.0333 6.844 0.267
48.0537 6.990 0.270
48.0742 6.813 0.266
48.0947 6.698 0.264
48.1151 7.188 0.274
48.1356 7.333 0.276
48.1560 7.302 0.276
48.1765 7.771 0.285
48.1970 7.677 0.283
48.2174 7.292 0.276
48.2379 7.594 0.281
48.2584 7.594 0.281
48.2788 7.521 0.280
48.2993 6.802 0.266
48.3198 7.813 0.285
48.3402 7.688 0.283
48.3607 7.917 0.287
48.3811 7.948 0.288
48.4016 7.802 0.285
48.4221 7.344 0.277
48.4425 7.333 0.276
48.4630 7.750 0.284
48.4835 7.365 0.277
48.5039 7.438 0.278
48.5244 7.000 0.270
48.5448 6.906 0.268
48.5653 7.417 0.278
48.5858 7.479 0.279
48.6062 6.958 0.269
48.6267 7.458 0.279
48.6472 7.115 0.272
48.6676 7.104 0.272
48.6881 7.010 0.270
48.7085 7.125 0.272
48.7290 7.885 0.287
48.7495 7.823 0.285
48.7699 6.813 0.266
48.7904 7.167 0.273
48.8109 6.698 0.264
48.8313 7.073 0.271
48.8518 7.167 0.273
48.8722 7.417 0.278
48.8927 6.688 0.264
48.9132 6.573 0.262
48.9336 6.500 0.260
48.9541 6.604 0.262
48.9746 6.229 0.255
48.9950 6.281 0.256
49.0155 6.385 0.258
49.0359 6.688 0.264
49.0564 6.833 0.267
49.0769 6.906 0.268
49.0973 7.573 0.281
49.1178 7.885 0.287
49.1383 7.125 0.272
49.1587 7.219 0.274
49.1792 6.906 0.268
49.1997 6.854 0.267
49.2201 6.792 0.266
49.2406 6.854 0.267
49.2610 6.938 0.269
49.2815 6.823 0.267
49.3020 6.760 0.265
49.3224 6.677 0.264
49.3429 7.146 0.273
49.3634 7.646 0.282
49.3838 7.583 0.281
49.4043 7.708 0.283
49.4247 6.958 0.269
49.4452 6.771 0.266
49.4657 7.135 0.273
49.4861 7.594 0.281
49.5066 7.646 0.282
49.5271 7.188 0.274
49.5475 7.083 0.272
49.5680 6.573 0.262
49.5884 7.323 0.276
49.6089 7.063 0.271
49.6294 7.333 0.276
49.6498 7.490 0.279
49.6703 7.823 0.285
49.6908 8.021 0.289
49.7112 7.958 0.288
49.7317 8.563 0.299
49.7521 9.000 0.306
49.7726 9.688 0.318
49.7931 10.177 0.326
49.8135 11.531 0.347
49.8340 12.500 0.361
49.8545 13.688 0.378
49.8749 14.865 0.393
49.8954 13.969 0.381
49.9158 12.979 0.368
49.9363 12.906 0.367
49.9568 13.427 0.374
49.9772 12.531 0.361
49.9977 11.865 0.352
50.0182 11.990 0.353
50.0386 12.281 0.358
50.0591 10.885 0.337
50.0796 10.417 0.329
50.1000 9.656 0.317
50.1205 9.198 0.310
50.1409 9.375 0.313
50.1614 9.365 0.312
50.1819 8.646 0.300
50.2023 9.083 0.308
50.2228 9.177 0.309
50.2433 8.906 0.305
50.2637 8.844 0.304
50.2842 9.177 0.309
50.3046 8.635 0.300
50.3251 7.760 0.284
50.3456 8.750 0.302
50.3660 8.063 0.290
50.3865 8.375 0.295
50.4070 8.000 0.289
50.4274 7.844 0.286
50.4479 7.406 0.278
50.4683 7.438 0.278
50.4888 7.302 0.276
50.5093 6.885 0.268
50.5297 7.219 0.274
50.5502 6.990 0.270
50.5707 6.635 0.263
50.5911 7.469 0.279
50.6116 7.510 0.280
50.6320 7.104 0.272
50.6525 7.104 0.272
50.6730 6.438 0.259
50.6934 7.073 0.271
50.7139 6.865 0.267
50.7344 6.927 0.269
50.7548 6.667 0.264
50.7753 6.927 0.269
50.7958 6.844 0.267
50.8162 7.146 0.273
50.8367 7.396 0.278
50.8571 7.188 0.274
50.8776 7.094 0.272
50.8981 7.260 0.275
50.9185 7.771 0.285
50.9390 7.677 0.283
50.9595 8.823 0.303
50.9799 9.646 0.317
51.0004 9.438 0.314
51.0208 9.750 0.319
51.0413 9.063 0.307
51.0618 8.323 0.294
51.0822 8.438 0.296
51.1027 7.969 0.288
51.1232 8.510 0.298
51.1436 8.490 0.297
51.1641 8.417 0.296
51.1845 7.833 0.286
51.2050 7.333 0.276
51.2255 7.552 0.280
51.2459 6.625 0.263
51.2664 7.323 0.276
51.2869 6.688 0.264
51.3073 7.188 0.274
51.3278 7.094 0.272
51.3482 7.458 0.279
51.3687 7.365 0.277
51.3892 6.823 0.267
51.4096 6.719 0.265
51.4301 6.813 0.266
51.4506 7.250 0.275
51.4710 6.854 0.267
51.4915 6.792 0.266
51.5119 6.958 0.269
51.5324 6.625 0.263
51.5529 6.646 0.263
51.5733 6.500 0.260
51.5938 7.021 0.270
51.6143 7.385 0.277
51.6347 7.531 0.280
51.6552 7.396 0.278
51.6757 8.333 0.295
51.6961 7.938 0.288
51.7166 7.906 0.287
51.7370 7.875 0.286
51.7575 7.792 0.285
51.7780 7.615 0.282
51.7984 7.344 0.277
51.8189 6.958 0.269
51.8394 7.052 0.271
51.8598 6.781 0.266
51.8803 7.156 0.273
51.9007 6.542 0.261
51.9212 6.781 0.266
51.9417 6.875 0.268
51.9621 6.542 0.261
51.9826 6.292 0.256
52.0031 5.958 0.249
52.0235 6.708 0.264
52.0440 6.208 0.254
52.0644 6.177 0.254
52.0849 6.604 0.262
52.1054 5.760 0.245
52.1258 6.052 0.251
52.1463 5.906 0.248
52.1668 6.135 0.253
52.1872 6.479 0.260
52.2077 5.865 0.247
52.2281 6.031 0.251
52.2486 6.563 0.261
52.2691 5.813 0.246
52.2895 6.542 0.261
52.3100 6.396 0.258
52.3305 6.021 0.250
52.3509 6.844 0.267
52.3714 6.760 0.265
52.3918 6.594 0.262
52.4123 6.677 0.264
52.4328 6.271 0.256
52.4532 6.469 0.260
52.4737 6.302 0.256
52.4942 6.031 0.251
52.5146 6.604 0.262
52.5351 5.979 0.250
52.5556 6.917 0.268
52.5760 6.073 0.252
52.5965 6.063 0.251
52.6169 6.510 0.260
52.6374 5.375 0.237
52.6579 6.229 0.255
52.6783 5.833 0.247
52.6988 5.250 0.234
52.7193 5.865 0.247
52.7397 5.802 0.246
52.7602 5.740 0.245
52.7806 5.448 0.238
52.8011 5.615 0.242
52.8216 5.552 0.240
52.8420 5.573 0.241
52.8625 5.781 0.245
52.8830 5.854 0.247
52.9034 6.010 0.250
52.9239 5.802 0.246
52.9443 5.677 0.243
52.9648 5.635 0.242
52.9853 6.073 0.252
53.0057 6.010 0.250
53.0262 6.146 0.253
53.0467 5.885 0.248
53.0671 5.688 0.243
53.0876 5.708 0.244
53.1080 5.833 0.247
53.1285 6.146 0.253
53.1490 5.958 0.249
53.1694 5.896 0.248
53.1899 5.729 0.244
53.2104 5.208 0.233
53.2308 5.521 0.240
53.2513 6.323 0.257
53.2717 5.479 0.239
53.2922 5.396 0.237
53.3127 5.563 0.241
53.3331 5.219 0.233
53.3536 5.563 0.241
53.3741 5.688 0.243
53.3945 5.500 0.239
53.4150 5.500 0.239
53.4355 5.865 0.247
53.4559 5.396 0.237
53.4764 5.604 0.242
53.4968 5.063 0.230
53.5173 5.552 0.240
53.5378 5.552 0.240
53.5582 5.240 0.234
53.5787 5.260 0.234
53.5992 5.563 0.241
53.6196 5.615 0.242
53.6401 5.698 0.244
53.6605 5.354 0.236
53.6810 5.917 0.248
53.7015 5.438 0.238
53.7219 6.333 0.257
53.7424 5.906 0.248
53.7629 6.063 0.251
53.7833 5.969 0.249
53.8038 5.813 0.246
53.8242 5.781 0.245
53.8447 5.646 0.243
53.8652 5.688 0.243
53.8856 5.729 0.244
53.9061 5.458 0.238
53.9266 5.771 0.245
53.9470 5.406 0.237
53.9675 5.625 0.242
53.9879 5.427 0.238
54.0084 5.750 0.245
54.0289 5.313 0.235
54.0493 5.563 0.241
54.0698 5.271 0.234
54.0903 6.094 0.252
54.1107 5.479 0.239
54.1312 5.792 0.246
54.1516 4.917 0.226
54.1721 5.729 0.244
54.1926 5.823 0.246
54.2130 5.750 0.245
54.2335 5.917 0.248
54.2540 5.604 0.242
54.2744 5.792 0.246
54.2949 5.531 0.240
54.3154 5.698 0.244
54.3358 5.594 0.241
54.3563 5.740 0.245
54.3767 6.010 0.250
54.3972 5.875 0.247
54.4177 5.135 0.231
54.4381 5.177 0.232
54.4586 6.188 0.254
54.4791 5.958 0.249
54.4995 6.240 0.255
54.5200 5.760 0.245
54.5404 5.896 0.248
54.5609 6.240 0.255
54.5814 6.802 0.266
54.6018 5.688 0.243
54.6223 5.740 0.245
54.6428 5.458 0.238
54.6632 5.344 0.236
54.6837 5.865 0.247
54.7041 5.771 0.245
54.7246 6.344 0.257
54.7451 5.646 0.243
54.7655 5.833 0.247
54.7860 5.906 0.248
54.8065 5.781 0.245
54.8269 5.625 0.242
54.8474 5.927 0.248
54.8678 5.948 0.249
54.8883 5.938 0.249
54.9088 5.615 0.242
54.9292 5.958 0.249
54.9497 6.135 0.253
54.9702 6.208 0.254
54.9906 6.115 0.252
55.0111 6.865 0.267
55.0316 6.594 0.262
55.0520 7.125 0.272
55.0725 7.792 0.285
55.0929 8.833 0.303
55.1134 9.958 0.322
55.1339 10.635 0.333
55.1543 11.104 0.340
55.1748 11.844 0.351
55.1953 12.896 0.367
55.2157 13.594 0.376
55.2362 13.917 0.381
55.2566 12.656 0.363
55.2771 11.521 0.346
55.2976 11.604 0.348
55.3180 11.104 0.340
55.3385 10.531 0.331
55.3590 10.740 0.334
55.3794 10.510 0.331
55.3999 9.521 0.315
55.4203 8.708 0.301
55.4408 8.406 0.296
55.4613 7.563 0.281
55.4817 7.073 0.271
55.5022 6.750 0.265
55.5227 7.104 0.272
55.5431 6.760 0.265
55.5636 6.479 0.260
55.5840 5.802 0.246
55.6045 6.417 0.259
55.6250 6.500 0.260
55.6454 6.281 0.256
55.6659 5.927 0.248
55.6864 6.052 0.251
55.7068 6.302 0.256
55.7273 5.938 0.249
55.7477 6.302 0.256
55.7682 6.292 0.256
55.7887 6.563 0.261
55.8091 6.396 0.258
55.8296 6.333 0.257
55.8501 6.552 0.261
55.8705 6.875 0.268
55.8910 6.865 0.267
55.9115 6.948 0.269
55.9319 6.969 0.269
55.9524 6.708 0.264
55.9728 6.604 0.262
55.9933 6.625 0.263
56.0138 6.552 0.261
56.0342 6.615 0.262
56.0547 7.385 0.277
56.0752 6.813 0.266
56.0956 6.854 0.267
56.1161 7.490 0.279
56.1365 7.406 0.278
56.1570 7.469 0.279
56.1775 8.083 0.290
56.1979 8.760 0.302
56.2184 9.260 0.311
56.2389 8.781 0.302
56.2593 8.833 0.303
56.2798 8.646 0.300
56.3002 8.208 0.292
56.3207 7.510 0.280
56.3412 8.021 0.289
56.3616 8.229 0.293
56.3821 7.865 0.286
56.4026 7.188 0.274
56.4230 6.927 0.269
56.4435 6.677 0.264
56.4639 6.188 0.254
56.4844 6.260 0.255
56.5049 5.958 0.249
56.5253 5.802 0.246
56.5458 5.198 0.233
56.5663 5.823 0.246
56.5867 5.938 0.249
56.6072 5.365 0.236
56.6276 5.760 0.245
56.6481 5.281 0.235
56.6686 6.198 0.254
56.6890 6.010 0.250
56.7095 6.719 0.265
56.7300 6.354 0.257
56.7504 6.302 0.256
56.7709 5.760 0.245
56.7914 5.406 0.237
56.8118 5.229 0.233
56.8323 5.427 0.238
56.8527 5.677 0.243
56.8732 5.510 0.240
56.8937 5.698 0.244
56.9141 5.354 0.236
56.9346 5.510 0.240
56.9551 5.115 0.231
56.9755 5.490 0.239
56.9960 5.073 0.230
57.0164 5.010 0.228
57.0369 5.000 0.228
57.0574 4.979 0.228
57.0778 5.365 0.236
57.0983 4.781 0.223
57.1188 4.552 0.218
57.1392 5.240 0.234
57.1597 4.844 0.225
57.1801 5.219 0.233
57.2006 5.260 0.234
57.2211 5.156 0.232
57.2415 4.698 0.221
57.2620 5.042 0.229
57.2825 5.260 0.234
57.3029 4.969 0.228
57.3234 5.615 0.242
57.3438 5.510 0.240
57.3643 4.917 0.226
57.3848 5.708 0.244
57.4052 5.448 0.238
57.4257 5.313 0.235
57.4462 5.406 0.237
57.4666 5.542 0.240
57.4871 5.448 0.238
57.5075 5.302 0.235
57.5280 5.823 0.246
57.5485 5.667 0.243
57.5689 5.688 0.243
57.5894 5.594 0.241
57.6099 5.604 0.242
57.6303 6.229 0.255
57.6508 5.604 0.242
57.6713 5.719 0.244
57.6917 5.219 0.233
57.7122 5.990 0.250
57.7326 5.854 0.247
57.7531 5.948 0.249
57.7736 6.313 0.256
57.7940 6.302 0.256
57.8145 6.885 0.268
57.8350 6.615 0.262
57.8554 7.042 0.271
57.8759 7.813 0.285
57.8963 8.198 0.292
57.9168 8.563 0.299
57.9373 8.833 0.303
57.9577 8.625 0.300
57.9782 8.521 0.298
57.9987 8.167 0.292
58.0191 8.083 0.290
58.0396 8.104 0.291
58.0600 7.583 0.281
58.0805 7.573 0.281
58.1010 7.531 0.280
58.1214 7.385 0.277
58.1419 7.271 0.275
58.1624 6.854 0.267
58.1828 6.708 0.264
58.2033 6.271 0.256
58.2237 6.208 0.254
58.2442 6.135 0.253
58.2647 6.271 0.256
58.2851 5.958 0.249
58.3056 6.417 0.259
58.3261 5.448 0.238
58.3465 5.854 0.247
58.3670 5.625 0.242
58.3874 5.490 0.239
58.4079 5.250 0.234
58.4284 5.927 0.248
58.4488 5.448 0.238
58.4693 5.125 0.231
58.4898 5.552 0.240
58.5102 5.781 0.245
58.5307 5.969 0.249
58.5512 5.844 0.247
58.5716 6.042 0.251
58.5921 5.500 0.239
58.6125 5.531 0.240
58.6330 5.406 0.237
58.6535 5.844 0.247
58.6739 5.698 0.244
58.6944 5.844 0.247
58.7149 5.323 0.235
58.7353 5.740 0.245
58.7558 5.833 0.247
58.7762 5.469 0.239
58.7967 5.500 0.239
58.8172 5.281 0.235
58.8376 5.958 0.249
58.8581 5.000 0.228
58.8786 5.271 0.234
58.8990 5.542 0.240
58.9195 5.563 0.241
58.9399 5.323 0.235
58.9604 5.219 0.233
58.9809 5.479 0.239
59.0013 5.302 0.235
59.0218 5.333 0.236
59.0423 5.646 0.243
59.0627 5.490 0.239
59.0832 5.250 0.234
59.1036 5.802 0.246
59.1241 6.365 0.257
59.1446 6.365 0.257
59.1650 6.292 0.256
59.1855 6.510 0.260
59.2060 6.823 0.267
59.2264 6.729 0.265
59.2469 6.760 0.265
59.2674 6.500 0.260
59.2878 6.281 0.256
59.3083 6.365 0.257
59.3287 6.385 0.258
59.3492 6.573 0.262
59.3697 6.969 0.269
59.3901 6.573 0.262
59.4106 5.823 0.246
59.4311 6.281 0.256
59.4515 6.073 0.252
59.4720 5.458 0.238
59.4924 5.490 0.239
59.5129 5.781 0.245
59.5334 5.323 0.235
59.5538 5.552 0.240
59.5743 5.479 0.239
59.5948 5.458 0.238
59.6152 5.313 0.235
59.6357 5.250 0.234
59.6561 5.188 0.232
59.6766 5.219 0.233
59.6971 5.104 0.231
59.7175 5.531 0.240
59.7380 5.531 0.240
59.7585 5.688 0.243
59.7789 5.854 0.247
59.7994 5.469 0.239
59.8198 6.365 0.257
59.8403 6.427 0.259
59.8608 6.208 0.254
59.8812 6.635 0.263
59.9017 6.573 0.262
59.9222 6.865 0.267
59.9426 6.563 0.261
59.9631 7.125 0.272
59.9835 6.323 0.257
60.0040 6.427 0.259
60.0245 6.760 0.265
60.0449 6.313 0.256
60.0654 6.469 0.260
60.0859 6.115 0.252
60.1063 6.250 0.255
60.1268 5.833 0.247
60.1473 5.927 0.248
60.1677 5.573 0.241
60.1882 5.927 0.248
60.2086 5.333 0.236
60.2291 4.865 0.225
60.2496 5.010 0.228
60.2700 5.333 0.236
60.2905 5.010 0.228
60.3110 4.698 0.221
60.3314 5.177 0.232
60.3519 4.969 0.228
60.3723 5.031 0.229
60.3928 4.990 0.228
60.4133 4.688 0.221
60.4337 4.813 0.224
60.4542 4.813 0.224
60.4747 4.729 0.222
60.4951 4.719 0.222
60.5156 4.760 0.223
60.5360 5.000 0.228
60.5565 4.875 0.225
60.5770 5.031 0.229
60.5974 4.625 0.219
60.6179 4.490 0.216
60.6384 4.688 0.221
60.6588 4.583 0.219
60.6793 4.615 0.219
60.6997 4.771 0.223
60.7202 4.656 0.220
60.7407 4.729 0.222
60.7611 4.917 0.226
60.7816 5.188 0.232
60.8021 4.708 0.221
60.8225 4.875 0.225
60.8430 4.969 0.228
60.8634 5.135 0.231
60.8839 5.031 0.229
60.9044 4.854 0.225
60.9248 4.677 0.221
60.9453 4.667 0.220
60.9658 4.719 0.222
60.9862 4.906 0.226
61.0067 4.854 0.225
61.0272 4.823 0.224
61.0476 4.677 0.221
61.0681 5.115 0.231
61.0885 4.729 0.222
61.1090 5.167 0.232
61.1295 4.917 0.226
61.1499 5.313 0.235
61.1704 5.073 0.230
61.1909 4.667 0.220
61.2113 4.750 0.222
61.2318 4.729 0.222
61.2522 4.990 0.228
61.2727 4.906 0.226
61.2932 4.813 0.224
61.3136 5.146 0.232
61.3341 4.573 0.218
61.3546 5.063 0.230
61.3750 5.448 0.238
61.3955 5.240 0.234
61.4159 5.083 0.230
61.4364 5.021 0.229
61.4569 5.146 0.232
61.4773 4.542 0.218
61.4978 5.000 0.228
61.5183 4.760 0.223
61.5387 4.958 0.227
61.5592 5.177 0.232
61.5796 5.052 0.229
61.6001 5.021 0.229
61.6206 4.635 0.220
61.6410 5.188 0.232
61.6615 4.688 0.221
61.6820 4.552 0.218
61.7024 4.438 0.215
61.7229 4.969 0.228
61.7433 4.646 0.220
61.7638 4.698 0.221
61.7843 4.604 0.219
61.8047 4.823 0.224
61.8252 4.490 0.216
61.8457 4.625 0.219
61.8661 4.792 0.223
61.8866 4.750 0.222
61.9071 4.771 0.223
61.9275 4.698 0.221
61.9480 5.583 0.241
61.9684 5.010 0.228
61.9889 4.969 0.228
62.0094 4.635 0.220
62.0298 4.885 0.226
62.0503 5.000 0.228
62.0708 5.365 0.236
62.0912 5.354 0.236
62.1117 5.115 0.231
62.1321 5.698 0.244
62.1526 5.542 0.240
62.1731 5.906 0.248
62.1935 5.729 0.244
62.2140 5.719 0.244
62.2345 5.427 0.238
62.2549 5.115 0.231
62.2754 5.573 0.241
62.2958 4.823 0.224
62.3163 5.406 0.237
62.3368 5.385 0.237
62.3572 5.500 0.239
62.3777 4.781 0.223
62.3982 5.000 0.228
62.4186 4.708 0.221
62.4391 5.073 0.230
62.4595 4.979 0.228
62.4800 4.813 0.224
62.5005 4.698 0.221
62.5209 4.521 0.217
62.5414 4.521 0.217
62.5619 4.531 0.217
62.5823 4.542 0.218
62.6028 4.760 0.223
62.6232 4.740 0.222
62.6437 4.604 0.219
62.6642 4.656 0.220
62.6846 4.365 0.213
62.7051 4.573 0.218
62.7256 5.323 0.235
62.7460 4.438 0.215
62.7665 4.750 0.222
62.7870 4.427 0.215
62.8074 4.542 0.218
62.8279 4.531 0.217
62.8483 4.708 0.221
62.8688 4.667 0.220
62.8893 4.469 0.216
62.9097 4.958 0.227
62.9302 4.635 0.220
62.9507 4.198 0.209
62.9711 4.427 0.215
62.9916 5.021 0.229
63.0120 4.646 0.220
63.0325 4.365 0.213
63.0530 4.521 0.217
63.0734 4.302 0.212
63.0939 4.552 0.218
63.1144 4.833 0.224
63.1348 4.510 0.217
63.1553 4.354 0.213
63.1757 4.375 0.213
63.1962 4.542 0.218
63.2167 4.906 0.226
63.2371 4.771 0.223
63.2576 4.646 0.220
63.2781 4.719 0.222
63.2985 4.896 0.226
63.3190 5.010 0.228
63.3394 4.948 0.227
63.3599 4.875 0.225
63.3804 5.240 0.234
63.4008 4.885 0.226
63.4213 5.156 0.232
63.4418 4.719 0.222
63.4622 4.969 0.228
63.4827 5.281 0.235
63.5032 4.781 0.223
63.5236 4.583 0.219
63.5441 5.188 0.232
63.5645 5.469 0.239
63.5850 5.552 0.240
63.6055 5.229 0.233
63.6259 5.313 0.235
63.6464 5.510 0.240
63.6669 5.292 0.235
63.6873 5.198 0.233
63.7078 5.250 0.234
63.7282 5.021 0.229
63.7487 5.396 0.237
63.7692 4.833 0.224
63.7896 5.104 0.231
63.8101 5.479 0.239
63.8306 5.646 0.243
63.8510 5.063 0.230
63.8715 4.958 0.227
63.8919 5.406 0.237
63.9124 5.885 0.248
63.9329 5.240 0.234
63.9533 5.938 0.249
63.9738 5.073 0.230
63.9943 5.823 0.246
64.0147 5.552 0.240
64.0352 5.313 0.235
64.0556 5.333 0.236
64.0761 5.063 0.230
64.0966 5.323 0.235
64.1170 5.635 0.242
64.1375 5.354 0.236
64.1580 5.219 0.233
64.1784 5.396 0.237
64.1989 5.302 0.235
64.2193 5.802 0.246
64.2398 5.688 0.243
64.2603 5.167 0.232
64.2807 5.219 0.233
64.3012 5.385 0.237
64.3217 5.354 0.236
64.3421 4.896 0.226
64.3626 5.042 0.229
64.3831 5.313 0.235
64.4035 5.615 0.242
64.4240 4.813 0.224
64.4444 5.365 0.236
64.4649 5.385 0.237
64.4854 6.302 0.256
64.5058 5.219 0.233
64.5263 5.469 0.239
64.5468 5.490 0.239
64.5672 6.146 0.253
64.5877 6.188 0.254
64.6081 7.010 0.270
64.6286 6.979 0.270
64.6491 6.927 0.269
64.6695 7.021 0.270
64.6900 7.604 0.281
64.7105 6.667 0.264
64.7309 7.344 0.277
64.7514 6.875 0.268
64.7718 6.125 0.253
64.7923 6.521 0.261
64.8128 6.510 0.260
64.8332 6.177 0.254
64.8537 6.448 0.259
64.8742 6.677 0.264
64.8946 6.042 0.251
64.9151 5.781 0.245
64.9355 6.031 0.251
64.9560 5.875 0.247
64.9765 5.708 0.244
64.9969 5.354 0.236
65.0174 5.875 0.247
65.0379 5.354 0.236
65.0583 5.396 0.237
65.0788 5.156 0.232
65.0992 5.083 0.230
65.1197 5.302 0.235
65.1402 5.219 0.233
65.1606 4.500 0.217
65.1811 4.969 0.228
65.2016 4.719 0.222
65.2220 4.406 0.214
65.2425 5.229 0.233
65.2630 4.885 0.226
65.2834 4.646 0.220
65.3039 4.802 0.224
65.3243 5.125 0.231
65.3448 4.823 0.224
65.3653 4.448 0.215
65.3857 4.906 0.226
65.4062 4.979 0.228
65.4267 4.771 0.223
65.4471 4.625 0.219
65.4676 4.833 0.224
65.4880 4.792 0.223
65.5085 5.104 0.231
65.5290 5.448 0.238
65.5494 5.115 0.231
65.5699 5.344 0.236
65.5904 5.083 0.230
65.6108 5.771 0.245
65.6313 5.156 0.232
65.6517 5.125 0.231
65.6722 4.990 0.228
65.6927 5.354 0.236
65.7131 5.375 0.237
65.7336 5.135 0.231
65.7541 4.917 0.226
65.7745 5.365 0.236
65.7950 5.313 0.235
65.8154 5.271 0.234
65.8359 4.667 0.220
65.8564 5.063 0.230
65.8768 5.094 0.230
65.8973 4.844 0.225
65.9178 4.667 0.220
65.9382 4.917 0.226
65.9587 4.646 0.220
65.9791 4.604 0.219
65.9996 5.125 0.231
66.0201 4.865 0.225
66.0405 4.583 0.219
66.0610 4.594 0.219
66.0815 4.365 0.213
66.1019 4.708 0.221
66.1224 4.438 0.215
66.1429 4.146 0.208
66.1633 5.021 0.229
66.1838 4.615 0.219
66.2042 4.646 0.220
66.2247 4.354 0.213
66.2452 4.563 0.218
66.2656 4.750 0.222
66.2861 4.302 0.212
66.3066 4.656 0.220
66.3270 4.750 0.222
66.3475 4.458 0.216
66.3679 4.885 0.226
66.3884 4.292 0.211
66.4089 4.417 0.214
66.4293 4.573 0.218
66.4498 4.698 0.221
66.4703 4.865 0.225
66.4907 4.406 0.214
66.5112 4.031 0.205
66.5316 4.740 0.222
66.5521 4.667 0.220
66.5726 4.635 0.220
66.5930 4.625 0.219
66.6135 4.344 0.213
66.6340 4.635 0.220
66.6544 4.531 0.217
66.6749 4.531 0.217
66.6953 4.510 0.217
66.7158 4.708 0.221
66.7363 4.552 0.218
66.7567 4.750 0.222
66.7772 4.563 0.218
66.7977 4.406 0.214
66.8181 4.865 0.225
66.8386 4.500 0.217
66.8590 4.792 0.223
66.8795 4.938 0.227
66.9000 4.771 0.223
66.9204 4.990 0.228
66.9409 5.240 0.234
66.9614 5.240 0.234
66.9818 5.313 0.235
67.0023 5.677 0.243
67.0228 5.313 0.235
67.0432 5.510 0.240
67.0637 5.542 0.240
67.0841 6.042 0.251
67.1046 6.521 0.261
67.1251 7.021 0.270
67.1455 7.385 0.277
67.1660 7.302 0.276
67.1865 7.344 0.277
67.2069 7.802 0.285
67.2274 7.177 0.273
67.2478 6.542 0.261
67.2683 6.823 0.267
67.2888 6.396 0.258
67.3092 6.635 0.263
67.3297 6.531 0.261
67.3502 6.885 0.268
67.3706 6.719 0.265
67.3911 6.365 0.257
67.4115 6.344 0.257
67.4320 5.979 0.250
67.4525 5.771 0.245
67.4729 5.677 0.243
67.4934 5.344 0.236
67.5139 5.260 0.234
67.5343 5.125 0.231
67.5548 5.083 0.230
67.5752 4.729 0.222
67.5957 5.281 0.235
67.6162 4.948 0.227
67.6366 5.083 0.230
67.6571 4.958 0.227
67.6776 4.729 0.222
67.6980 4.990 0.228
67.7185 4.750 0.222
67.7389 5.031 0.229
67.7594 4.854 0.225
67.7799 4.865 0.225
67.8003 4.885 0.226
67.8208 4.646 0.220
67.8413 4.365 0.213
67.8617 4.760 0.223
67.8822 4.813 0.224
67.9027 4.875 0.225
67.9231 4.708 0.221
67.9436 4.500 0.217
67.9640 4.583 0.219
67.9845 4.938 0.227
68.0050 4.885 0.226
68.0254 4.604 0.219
68.0459 4.823 0.224
68.0664 4.469 0.216
68.0868 4.875 0.225
68.1073 4.563 0.218
68.1277 4.521 0.217
68.1482 5.125 0.231
68.1687 4.771 0.223
68.1891 4.219 0.210
68.2096 4.740 0.222
68.2301 4.271 0.211
68.2505 5.167 0.232
68.2710 5.073 0.230
68.2914 5.167 0.232
68.3119 5.344 0.236
68.3324 5.177 0.232
68.3528 5.365 0.236
68.3733 5.635 0.242
68.3938 5.167 0.232
68.4142 5.177 0.232
68.4347 5.333 0.236
68.4551 5.229 0.233
68.4756 5.323 0.235
68.4961 5.031 0.229
68.5165 5.073 0.230
68.5370 5.292 0.235
68.5575 5.323 0.235
68.5779 5.510 0.240
68.5984 5.698 0.244
68.6189 4.927 0.227
68.6393 5.208 0.233
68.6598 4.677 0.221
68.6802 4.688 0.221
68.7007 4.896 0.226
68.7212 5.229 0.233
68.7416 4.635 0.220
68.7621 4.844 0.225
68.7826 4.542 0.218
68.8030 4.667 0.220
68.8235 4.948 0.227
68.8439 5.271 0.234
68.8644 5.052 0.229
68.8849 5.281 0.235
68.9053 5.125 0.231
68.9258 5.146 0.232
68.9463 5.635 0.242
68.9667 5.646 0.243
68.9872 5.688 0.243
69.0076 5.719 0.244
69.0281 6.146 0.253
69.0486 6.125 0.253
69.0690 5.990 0.250
69.0895 5.563 0.241
69.1100 5.229 0.233
69.1304 5.865 0.247
69.1509 5.781 0.245
69.1713 5.510 0.240
69.1918 5.604 0.242
69.2123 5.271 0.234
69.2327 5.406 0.237
69.2532 5.896 0.248
69.2737 5.688 0.243
69.2941 5.135 0.231
69.3146 4.802 0.224
69.3350 4.958 0.227
69.3555 4.927 0.227
69.3760 4.615 0.219
69.3964 4.458 0.216
69.4169 4.646 0.220
69.4374 4.740 0.222
69.4578 4.094 0.207
69.4783 4.635 0.220
69.4988 4.625 0.219
69.5192 4.573 0.218
69.5397 4.500 0.217
69.5601 4.500 0.217
69.5806 4.448 0.215
69.6011 4.490 0.216
69.6215 4.146 0.208
69.6420 4.177 0.209
69.6625 4.313 0.212
69.6829 4.719 0.222
69.7034 4.271 0.211
69.7238 4.125 0.207
69.7443 3.948 0.203
69.7648 3.542 0.192
69.7852 4.323 0.212
69.8057 4.531 0.217
69.8262 4.271 0.211
69.8466 3.844 0.200
69.8671 4.333 0.212
69.8875 4.281 0.211
69.9080 4.104 0.207
69.9285 4.115 0.207
69.9489 4.219 0.210
69.9694 4.229 0.210
69.9899 3.813 0.199
70.0103 3.875 0.201
70.0308 4.156 0.208
70.0512 4.625 0.219
70.0717 4.198 0.209
70.0922 4.323 0.212
70.1126 4.177 0.209
70.1331 4.344 0.213
70.1536 3.833 0.200
70.1740 3.990 0.204
70.1945 4.271 0.211
70.2149 4.094 0.207
70.2354 4.125 0.207
70.2559 4.292 0.211
70.2763 4.385 0.214
70.2968 4.250 0.210
70.3173 4.281 0.211
70.3377 4.083 0.206
70.3582 4.302 0.212
70.3787 4.104 0.207
70.3991 3.969 0.203
70.4196 4.198 0.209
70.4400 3.927 0.202
70.4605 4.208 0.209
70.4810 4.031 0.205
70.5014 4.208 0.209
70.5219 3.969 0.203
70.5424 3.875 0.201
70.5628 3.979 0.204
70.5833 3.844 0.200
70.6037 3.875 0.201
70.6242 4.292 0.211
70.6447 3.625 0.194
70.6651 3.917 0.202
70.6856 4.094 0.207
70.7061 4.510 0.217
70.7265 4.146 0.208
70.7470 4.031 0.205
70.7674 3.500 0.191
70.7879 4.552 0.218
70.8084 4.010 0.204
70.8288 4.198 0.209
70.8493 3.844 0.200
70.8698 3.958 0.203
70.8902 3.865 0.201
70.9107 4.094 0.207
70.9311 4.333 0.212
70.9516 4.250 0.210
70.9721 3.760 0.198
70.9925 4.052 0.205
71.0130 4.510 0.217
71.0335 4.156 0.208
71.0539 4.000 0.204
71.0744 4.063 0.206
71.0948 4.094 0.207
71.1153 4.135 0.208
71.1358 4.333 0.212
71.1562 4.042 0.205
71.1767 4.281 0.211
71.1972 3.844 0.200
71.2176 3.906 0.202
71.2381 4.323 0.212
71.2586 4.208 0.209
71.2790 4.406 0.214
71.2995 4.604 0.219
71.3199 3.917 0.202
71.3404 3.740 0.197
71.3609 3.865 0.201
71.3813 4.021 0.205
71.4018 3.813 0.199
71.4223 4.146 0.208
71.4427 3.958 0.203
71.4632 3.500 0.191
71.4836 3.854 0.200
71.5041 3.667 0.195
71.5246 3.833 0.200
71.5450 3.625 0.194
71.5655 3.708 0.197
71.5860 3.990 0.204
71.6064 3.979 0.204
71.6269 3.875 0.201
71.6473 3.615 0.194
71.6678 3.896 0.201
71.6883 3.552 0.192
71.7087 4.042 0.205
71.7292 3.938 0.203
71.7497 3.708 0.197
71.7701 3.510 0.191
71.7906 3.792 0.199
71.8110 3.573 0.193
71.8315 3.604 0.194
71.8520 3.542 0.192
71.8724 4.063 0.206
71.8929 3.677 0.196
71.9134 3.875 0.201
71.9338 3.979 0.204
71.9543 3.854 0.200
71.9747 3.896 0.201
71.9952 3.604 0.194
72.0157 3.885 0.201
72.0361 3.313 0.186
72.0566 3.833 0.200
72.0771 3.552 0.192
72.0975 4.010 0.204
72.1180 4.135 0.208
72.1385 3.781 0.198
72.1589 3.781 0.198
72.1794 4.135 0.208
72.1998 4.115 0.207
72.2203 3.615 0.194
72.2408 3.740 0.197
72.2612 4.021 0.205
72.2817 3.635 0.195
72.3022 3.958 0.203
72.3226 3.563 0.193
72.3431 3.573 0.193
72.3635 3.365 0.187
72.3840 3.688 0.196
72.4045 3.760 0.198
72.4249 3.927 0.202
72.4454 3.479 0.190
72.4659 3.656 0.195
72.4863 3.615 0.194
72.5068 4.198 0.209
72.5272 3.656 0.195
72.5477 3.969 0.203
72.5682 3.635 0.195
72.5886 4.094 0.207
72.6091 3.542 0.192
72.6296 3.406 0.188
72.6500 3.563 0.193
72.6705 3.719 0.197
72.6909 3.969 0.203
72.7114 3.990 0.204
72.7319 3.833 0.200
72.7523 3.708 0.197
72.7728 3.865 0.201
72.7933 4.000 0.204
72.8137 4.167 0.208
72.8342 4.250 0.210
72.8547 3.792 0.199
72.8751 4.031 0.205
72.8956 3.927 0.202
72.9160 4.010 0.204
72.9365 3.771 0.198
72.9570 4.042 0.205
72.9774 3.896 0.201
72.9979 3.635 0.195
73.0184 4.042 0.205
73.0388 4.000 0.204
73.0593 3.667 0.195
73.0797 4.188 0.209
73.1002 3.625 0.194
73.1207 4.104 0.207
73.1411 3.458 0.190
73.1616 3.479 0.190
73.1821 3.490 0.191
73.2025 3.813 0.199
73.2230 3.635 0.195
73.2434 3.948 0.203
73.2639 3.500 0.191
73.2844 3.750 0.198
73.3048 3.865 0.201
73.3253 4.010 0.204
73.3458 3.510 0.191
73.3662 3.365 0.187
73.3867 3.792 0.199
73.4071 3.542 0.192
73.4276 3.521 0.192
73.4481 3.521 0.192
73.4685 3.979 0.204
73.4890 3.604 0.194
73.5095 3.479 0.190
73.5299 3.594 0.193
73.5504 3.635 0.195
73.5708 3.833 0.200
73.5913 3.677 0.196
73.6118 3.656 0.195
73.6322 3.771 0.198
73.6527 3.406 0.188
73.6732 3.635 0.195
73.6936 3.583 0.193
73.7141 3.500 0.191
73.7346 3.229 0.183
73.7550 3.240 0.184
73.7755 3.167 0.182
73.7959 3.323 0.186
73.8164 3.458 0.190
73.8369 3.979 0.204
73.8573 3.469 0.190
73.8778 3.656 0.195
73.8983 3.448 0.190
73.9187 3.635 0.195
73.9392 3.656 0.195
73.9596 3.917 0.202
73.9801 3.406 0.188
74.0006 3.833 0.200
74.0210 3.646 0.195
74.0415 4.021 0.205
74.0620 4.083 0.206
74.0824 3.979 0.204
74.1029 3.833 0.200
74.1233 3.635 0.195
74.1438 3.792 0.199
74.1643 3.823 0.200
74.1847 3.479 0.190
74.2052 3.656 0.195
74.2257 3.979 0.204
74.2461 3.854 0.200
74.2666 3.698 0.196
74.2870 3.760 0.198
74.3075 3.729 0.197
74.3280 3.854 0.200
74.3484 3.500 0.191
74.3689 3.760 0.198
74.3894 3.969 0.203
74.4098 3.354 0.187
74.4303 3.771 0.198
74.4507 3.750 0.198
74.4712 3.750 0.198
74.4917 3.385 0.188
74.5121 3.229 0.183
74.5326 3.625 0.194
74.5531 3.531 0.192
74.5735 3.396 0.188
74.5940 3.208 0.183
74.6145 3.667 0.195
74.6349 3.688 0.196
74.6554 3.406 0.188
74.6758 3.469 0.190
74.6963 3.646 0.195
74.7168 3.229 0.183
74.7372 3.594 0.193
74.7577 3.427 0.189
74.7782 3.531 0.192
74.7986 3.479 0.190
74.8191 3.604 0.194
74.8395 3.240 0.184
74.8600 3.750 0.198
74.8805 3.635 0.195
74.9009 3.802 0.199
74.9214 3.510 0.191
74.9419 3.479 0.190
74.9623 3.156 0.181
74.9828 3.302 0.185
75.0032 3.219 0.183
75.0237 3.240 0.184
75.0442 3.500 0.191
75.0646 3.354 0.187
75.0851 3.500 0.191
75.1056 3.635 0.195
75.1260 3.615 0.194
75.1465 3.271 0.185
75.1669 3.219 0.183
75.1874 3.521 0.192
75.2079 3.813 0.199
75.2283 3.427 0.189
75.2488 3.656 0.195
75.2693 3.823 0.200
75.2897 3.667 0.195
75.3102 3.531 0.192
75.3306 3.656 0.195
75.3511 3.729 0.197
75.3716 3.552 0.192
75.3920 3.750 0.198
75.4125 3.604 0.194
75.4330 3.406 0.188
75.4534 3.823 0.200
75.4739 3.573 0.193
75.4944 3.625 0.194
75.5148 3.927 0.202
75.5353 4.021 0.205
75.5557 3.375 0.188
75.5762 3.469 0.190
75.5967 3.667 0.195
75.6171 3.531 0.192
75.6376 3.885 0.201
75.6581 4.010 0.204
75.6785 4.125 0.207
75.6990 3.885 0.201
75.7194 4.177 0.209
75.7399 3.833 0.200
75.7604 4.073 0.206
75.7808 4.396 0.214
75.8013 4.760 0.223
75.8218 4.938 0.227
75.8422 4.740 0.222
75.8627 4.448 0.215
75.8831 4.615 0.219
75.9036 4.677 0.221
75.9241 4.635 0.220
75.9445 4.750 0.222
75.9650 4.385 0.214
75.9855 4.302 0.212
76.0059 4.073 0.206
76.0264 4.021 0.205
76.0468 4.510 0.217
76.0673 4.823 0.224
76.0878 4.406 0.214
76.1082 3.969 0.203
76.1287 4.510 0.217
76.1492 4.240 0.210
76.1696 4.031 0.205
76.1901 3.740 0.197
76.2105 4.063 0.206
76.2310 3.656 0.195
76.2515 3.698 0.196
76.2719 4.031 0.205
76.2924 3.656 0.195
76.3129 3.865 0.201
76.3333 3.802 0.199
76.3538 3.823 0.200
76.3743 3.583 0.193
76.3947 3.958 0.203
76.4152 3.531 0.192
76.4356 3.854 0.200
76.4561 3.792 0.199
76.4766 3.573 0.193
76.4970 3.635 0.195
76.5175 3.406 0.188
76.5380 3.625 0.194
76.5584 4.198 0.209
76.5789 3.479 0.190
76.5993 3.490 0.191
76.6198 3.719 0.197
76.6403 3.667 0.195
76.6607 4.031 0.205
76.6812 3.281 0.185
76.7017 3.188 0.182
76.7221 3.677 0.196
76.7426 3.292 0.185
76.7630 3.354 0.187
76.7835 3.875 0.201
76.8040 3.458 0.190
76.8244 3.427 0.189
76.8449 3.490 0.191
76.8654 3.281 0.185
76.8858 3.448 0.190
76.9063 3.531 0.192
76.9267 3.896 0.201
76.9472 3.844 0.200
76.9677 3.250 0.184
76.9881 3.635 0.195
77.0086 3.552 0.192
77.0291 3.271 0.185
77.0495 3.708 0.197
77.0700 3.542 0.192
77.0905 3.417 0.189
77.1109 3.635 0.195
77.1314 4.083 0.206
77.1518 3.417 0.189
77.1723 3.802 0.199
77.1928 4.042 0.205
77.2132 3.771 0.198
77.2337 3.990 0.204
77.2542 3.927 0.202
77.2746 4.000 0.204
77.2951 4.063 0.206
77.3155 3.573 0.193
77.3360 3.792 0.199
77.3565 3.833 0.200
77.3769 3.875 0.201
77.3974 4.000 0.204
77.4179 3.885 0.201
77.4383 3.823 0.200
77.4588 4.385 0.214
77.4792 3.781 0.198
77.4997 3.750 0.198
77.5202 3.646 0.195
77.5406 4.042 0.205
77.5611 3.698 0.196
77.5816 4.479 0.216
77.6020 4.104 0.207
77.6225 4.240 0.210
77.6429 4.250 0.210
77.6634 3.938 0.203
77.6839 4.208 0.209
77.7043 3.958 0.203
77.7248 4.063 0.206
77.7453 4.188 0.209
77.7657 4.490 0.216
77.7862 4.125 0.207
77.8066 4.031 0.205
77.8271 4.198 0.209
77.8476 4.104 0.207
77.8680 4.458 0.216
77.8885 4.115 0.207
77.9090 4.031 0.205
77.9294 3.927 0.202
77.9499 3.979 0.204
77.9704 3.865 0.201
77.9908 3.677 0.196
78.0113 4.302 0.212
78.0317 3.510 0.191
78.0522 3.906 0.202
78.0727 4.000 0.204
78.0931 3.667 0.195
78.1136 3.594 0.193
78.1341 3.635 0.195
78.1545 4.042 0.205
78.1750 3.552 0.192
78.1954 3.292 0.185
78.2159 3.885 0.201
78.2364 3.188 0.182
78.2568 3.531 0.192
78.2773 3.740 0.197
78.2978 3.615 0.194
78.3182 3.875 0.201
78.3387 3.396 0.188
78.3591 3.563 0.193
78.3796 3.833 0.200
78.4001 3.604 0.194
78.4205 3.906 0.202
78.4410 4.094 0.207
78.4615 3.635 0.195
78.4819 3.583 0.193
78.5024 3.771 0.198
78.5228 3.854 0.200
78.5433 3.656 0.195
78.5638 3.417 0.189
78.5842 3.844 0.200
78.6047 3.833 0.200
78.6252 4.094 0.207
78.6456 3.531 0.192
78.6661 3.688 0.196
78.6865 3.635 0.195
78.7070 3.521 0.192
78.7275 3.708 0.197
78.7479 3.604 0.194
78.7684 3.729 0.197
78.7889 3.708 0.197
78.8093 3.667 0.195
78.8298 3.625 0.194
78.8503 3.542 0.192
78.8707 3.844 0.200
78.8912 3.792 0.199
78.9116 3.927 0.202
78.9321 3.719 0.197
78.9526 3.906 0.202
78.9730 3.615 0.194
78.9935 3.771 0.198
79.0140 3.219 0.183
79.0344 3.802 0.199
79.0549 3.729 0.197
79.0753 3.719 0.197
79.0958 4.000 0.204
79.1163 3.594 0.193
79.1367 3.563 0.193
79.1572 3.677 0.196
79.1777 3.469 0.190
79.1981 3.698 0.196
79.2186 3.656 0.195
79.2390 3.615 0.194
79.2595 3.490 0.191
79.2800 3.563 0.193
79.3004 3.635 0.195
79.3209 3.458 0.190
79.3414 4.094 0.207
79.3618 3.740 0.197
79.3823 3.510 0.191
79.4027 3.781 0.198
79.4232 3.823 0.200
79.4437 3.677 0.196
79.4641 3.677 0.196
79.4846 3.688 0.196
79.5051 4.010 0.204
79.5255 4.219 0.210
79.5460 4.073 0.206
79.5664 3.802 0.199
79.5869 3.802 0.199
79.6074 3.760 0.198
79.6278 3.896 0.201
79.6483 3.792 0.199
79.6688 3.792 0.199
79.6892 3.875 0.201
79.7097 3.885 0.201
79.7302 3.948 0.203
79.7506 3.823 0.200
79.7711 3.740 0.197
79.7915 3.417 0.189
79.8120 3.938 0.203
79.8325 3.563 0.193
79.8529 3.573 0.193
79.8734 3.781 0.198
79.8939 3.802 0.199
79.9143 3.740 0.197
79.9348 3.656 0.195
79.9552 3.917 0.202
79.9757 3.635 0.195
79.9962 3.938 0.203
