'Id: "" Comment: "" Operator: "Lab Manager" Anode: "Cu" Scantype: "Locked Coupled" TimePerStep: "96" X: "0" Y: "0" Z: "0" 
5.0000 23.604 0.496
5.0205 23.510 0.495
5.0409 23.875 0.499
5.0614 23.875 0.499
5.0819 23.240 0.492
5.1023 22.969 0.489
5.1228 22.302 0.482
5.1432 22.729 0.487
5.1637 23.073 0.490
5.1842 22.906 0.488
5.2046 23.271 0.492
5.2251 22.500 0.484
5.2456 22.438 0.483
5.2660 22.042 0.479
5.2865 21.969 0.478
5.3069 22.844 0.488
5.3274 22.177 0.481
5.3479 22.635 0.486
5.3683 21.990 0.479
5.3888 22.531 0.484
5.4093 22.625 0.485
5.4297 22.125 0.480
5.4502 22.167 0.481
5.4706 22.854 0.488
5.4911 22.042 0.479
5.5116 21.938 0.478
5.5320 21.583 0.474
5.5525 22.313 0.482
5.5730 22.021 0.479
5.5934 21.229 0.470
5.6139 21.396 0.472
5.6343 22.396 0.483
5.6548 21.458 0.473
5.6753 21.052 0.468
5.6957 21.573 0.474
5.7162 21.635 0.475
5.7367 21.396 0.472
5.7571 21.979 0.478
5.7776 21.146 0.469
5.7980 20.802 0.465
5.8185 20.813 0.466
5.8390 20.740 0.465
5.8594 21.094 0.469
5.8799 20.979 0.467
5.9004 21.365 0.472
5.9208 20.667 0.464
5.9413 21.448 0.473
5.9618 20.823 0.466
5.9822 21.802 0.477
6.0027 20.698 0.464
6.0231 21.240 0.470
6.0436 20.656 0.464
6.0641 20.813 0.466
6.0845 19.854 0.455
6.1050 21.188 0.470
6.1255 21.177 0.470
6.1459 20.927 0.467
6.1664 20.469 0.462
6.1868 20.094 0.458
6.2073 20.396 0.461
6.2278 20.354 0.460
6.2482 20.458 0.462
6.2687 21.042 0.468
6.2892 20.396 0.461
6.3096 20.573 0.463
6.3301 20.198 0.459
6.3505 20.417 0.461
6.3710 19.031 0.445
6.3915 20.281 0.460
6.4119 20.510 0.462
6.4324 19.792 0.454
6.4529 20.729 0.465
6.4733 20.333 0.460
6.4938 20.677 0.464
6.5142 20.177 0.458
6.5347 20.677 0.464
6.5552 20.563 0.463
6.5756 20.781 0.465
6.5961 20.583 0.463
6.6166 19.625 0.452
6.6370 20.781 0.465
6.6575 20.615 0.463
6.6779 20.010 0.457
6.6984 20.469 0.462
6.7189 20.854 0.466
6.7393 20.844 0.466
6.7598 19.917 0.455
6.7803 20.531 0.462
6.8007 19.219 0.447
6.8212 19.500 0.451
6.8417 19.365 0.449
6.8621 19.615 0.452
6.8826 19.354 0.449
6.9030 20.448 0.462
6.9235 20.490 0.462
6.9440 20.906 0.467
6.9644 19.906 0.455
6.9849 19.417 0.450
7.0054 19.813 0.454
7.0258 19.406 0.450
7.0463 19.469 0.450
7.0667 19.604 0.452
7.0872 20.021 0.457
7.1077 20.135 0.458
7.1281 20.281 0.460
7.1486 19.583 0.452
7.1691 19.271 0.448
7.1895 20.229 0.459
7.2100 20.052 0.457
7.2304 20.135 0.458
7.2509 19.615 0.452
7.2714 20.271 0.460
7.2918 20.604 0.463
7.3123 19.844 0.455
7.3328 19.875 0.455
7.3532 19.417 0.450
7.3737 20.094 0.458
7.3941 20.406 0.461
7.4146 19.771 0.454
7.4351 20.167 0.458
7.4555 20.927 0.467
7.4760 19.313 0.449
7.4965 21.042 0.468
7.5169 19.354 0.449
7.5374 19.917 0.455
7.5579 19.969 0.456
7.5783 20.156 0.458
7.5988 20.688 0.464
7.6192 20.240 0.459
7.6397 19.646 0.452
7.6602 19.417 0.450
7.6806 20.010 0.457
7.7011 19.760 0.454
7.7216 20.688 0.464
7.7420 20.135 0.458
7.7625 20.396 0.461
7.7829 20.542 0.463
7.8034 20.990 0.468
7.8239 20.063 0.457
7.8443 19.177 0.447
7.8648 20.458 0.462
7.8853 20.125 0.458
7.9057 20.625 0.464
7.9262 20.656 0.464
7.9466 21.031 0.468
7.9671 21.563 0.474
7.9876 20.813 0.466
8.0080 21.198 0.470
8.0285 20.917 0.467
8.0490 20.375 0.461
8.0694 20.583 0.463
8.0899 20.333 0.460
8.1103 20.458 0.462
8.1308 21.208 0.470
8.1513 21.052 0.468
8.1717 20.656 0.464
8.1922 21.344 0.472
8.2127 21.260 0.471
8.2331 21.396 0.472
8.2536 20.875 0.466
8.2740 20.844 0.466
8.2945 20.865 0.466
8.3150 21.448 0.473
8.3354 21.427 0.472
8.3559 20.990 0.468
8.3764 20.906 0.467
8.3968 21.125 0.469
8.4173 20.708 0.464
8.4378 20.875 0.466
8.4582 21.240 0.470
8.4787 20.438 0.461
8.4991 21.021 0.468
8.5196 20.448 0.462
8.5401 21.240 0.470
8.5605 20.354 0.460
8.5810 21.552 0.474
8.6015 20.125 0.458
8.6219 20.927 0.467
8.6424 21.729 0.476
8.6628 21.917 0.478
8.6833 21.615 0.475
8.7038 21.365 0.472
8.7242 21.615 0.475
8.7447 21.344 0.472
8.7652 21.844 0.477
8.7856 22.490 0.484
8.8061 22.135 0.480
8.8265 22.885 0.488
8.8470 23.490 0.495
8.8675 23.240 0.492
8.8879 24.281 0.503
8.9084 24.948 0.510
8.9289 25.490 0.515
8.9493 25.656 0.517
8.9698 26.604 0.526
8.9902 26.948 0.530
9.0107 27.958 0.540
9.0312 35.219 0.606
9.0516 40.135 0.647
9.0721 45.583 0.689
9.0926 46.260 0.694
9.1130 41.729 0.659
9.1335 35.156 0.605
9.1539 30.271 0.562
9.1744 30.865 0.567
9.1949 34.083 0.596
9.2153 37.156 0.622
9.2358 45.125 0.686
9.2563 63.833 0.815
9.2767 103.729 1.039
9.2972 105.844 1.050
9.3177 78.010 0.901
9.3381 54.760 0.755
9.3586 46.042 0.693
9.3790 40.344 0.648
9.3995 38.510 0.633
9.4200 37.865 0.628
9.4404 39.281 0.640
9.4609 40.823 0.652
9.4814 43.010 0.669
9.5018 44.604 0.682
9.5223 49.969 0.721
9.5427 54.115 0.751
9.5632 60.563 0.794
9.5837 66.656 0.833
9.6041 73.479 0.875
9.6246 78.615 0.905
9.6451 85.271 0.942
9.6655 91.708 0.977
9.6860 103.521 1.038
9.7064 113.042 1.085
9.7269 129.500 1.161
9.7474 150.917 1.254
9.7678 191.844 1.414
9.7883 267.146 1.668
9.8088 397.208 2.034
9.8292 620.885 2.543
9.8497 961.323 3.164
9.8701 1584.458 4.063
9.8906 1653.292 4.150
9.9111 1033.906 3.282
9.9315 474.344 2.223
9.9520 196.000 1.429
9.9725 100.833 1.025
9.9929 75.542 0.887
10.0134 67.500 0.839
10.0338 61.906 0.803
10.0543 58.167 0.778
10.0748 57.542 0.774
10.0952 54.865 0.756
10.1157 48.604 0.712
10.1362 41.104 0.654
10.1566 35.938 0.612
10.1771 32.635 0.583
10.1976 30.188 0.561
10.2180 29.521 0.555
10.2385 30.052 0.560
10.2589 26.781 0.528
10.2794 27.875 0.539
10.2999 27.813 0.538
10.3203 26.052 0.521
10.3408 26.583 0.526
10.3613 26.521 0.526
10.3817 26.354 0.524
10.4022 24.906 0.509
10.4226 25.719 0.518
10.4431 24.719 0.507
10.4636 24.563 0.506
10.4840 25.385 0.514
10.5045 25.854 0.519
10.5250 24.125 0.501
10.5454 24.208 0.502
10.5659 23.958 0.500
10.5863 24.656 0.507
10.6068 23.385 0.494
10.6273 23.708 0.497
10.6477 23.063 0.490
10.6682 23.302 0.493
10.6887 23.385 0.494
10.7091 22.167 0.481
10.7296 21.979 0.478
10.7500 23.083 0.490
10.7705 22.896 0.488
10.7910 22.531 0.484
10.8114 23.083 0.490
10.8319 21.906 0.478
10.8524 20.844 0.466
10.8728 21.156 0.469
10.8933 21.698 0.475
10.9137 21.323 0.471
10.9342 21.844 0.477
10.9547 20.250 0.459
10.9751 20.792 0.465
10.9956 20.885 0.466
11.0161 20.677 0.464
11.0365 20.313 0.460
11.0570 20.125 0.458
11.0775 20.083 0.457
11.0979 19.938 0.456
11.1184 19.792 0.454
11.1388 20.281 0.460
11.1593 19.479 0.450
11.1798 19.302 0.448
11.2002 20.000 0.456
11.2207 19.521 0.451
11.2412 19.750 0.454
11.2616 19.500 0.451
11.2821 19.250 0.448
11.3025 19.344 0.449
11.3230 19.052 0.445
11.3435 18.708 0.441
11.3639 18.583 0.440
11.3844 18.938 0.444
11.4049 18.510 0.439
11.4253 18.302 0.437
11.4458 18.292 0.437
11.4662 18.896 0.444
11.4867 18.198 0.435
11.5072 17.917 0.432
11.5276 17.844 0.431
11.5481 17.927 0.432
11.5686 17.927 0.432
11.5890 18.552 0.440
11.6095 17.771 0.430
11.6299 17.177 0.423
11.6504 17.771 0.430
11.6709 16.917 0.420
11.6913 17.260 0.424
11.7118 17.354 0.425
11.7323 17.646 0.429
11.7527 16.521 0.415
11.7732 17.177 0.423
11.7937 16.823 0.419
11.8141 16.281 0.412
11.8346 17.271 0.424
11.8550 16.552 0.415
11.8755 17.188 0.423
11.8960 16.865 0.419
11.9164 16.667 0.417
11.9369 16.667 0.417
11.9574 15.854 0.406
11.9778 15.917 0.407
11.9983 16.031 0.409
12.0187 16.458 0.414
12.0392 16.344 0.413
12.0597 16.115 0.410
12.0801 16.031 0.409
12.1006 16.208 0.411
12.1211 15.823 0.406
12.1415 15.802 0.406
12.1620 15.448 0.401
12.1824 15.458 0.401
12.2029 15.490 0.402
12.2234 15.573 0.403
12.2438 15.167 0.397
12.2643 15.927 0.407
12.2848 15.021 0.396
12.3052 15.323 0.400
12.3257 14.292 0.386
12.3461 14.563 0.389
12.3666 14.854 0.393
12.3871 14.844 0.393
12.4075 14.823 0.393
12.4280 15.010 0.395
12.4485 14.406 0.387
12.4689 14.844 0.393
12.4894 15.073 0.396
12.5098 14.104 0.383
12.5303 14.490 0.389
12.5508 14.031 0.382
12.5712 14.656 0.391
12.5917 13.813 0.379
12.6122 14.667 0.391
12.6326 14.656 0.391
12.6531 14.750 0.392
12.6736 13.167 0.370
12.6940 14.135 0.384
12.7145 13.885 0.380
12.7349 14.521 0.389
12.7554 14.156 0.384
12.7759 14.458 0.388
12.7963 14.646 0.391
12.8168 13.865 0.380
12.8373 13.896 0.380
12.8577 13.708 0.378
12.8782 13.781 0.379
12.8986 13.510 0.375
12.9191 14.333 0.386
12.9396 13.719 0.378
12.9600 13.438 0.374
12.9805 13.458 0.374
13.0010 12.260 0.357
13.0214 13.479 0.375
13.0419 13.833 0.380
13.0623 13.479 0.375
13.0828 13.375 0.373
13.1033 13.125 0.370
13.1237 12.833 0.366
13.1442 12.990 0.368
13.1647 13.115 0.370
13.1851 12.844 0.366
13.2056 12.490 0.361
13.2260 13.302 0.372
13.2465 12.510 0.361
13.2670 12.646 0.363
13.2874 12.938 0.367
13.3079 12.677 0.363
13.3284 13.427 0.374
13.3488 13.135 0.370
13.3693 13.073 0.369
13.3897 12.479 0.361
13.4102 12.438 0.360
13.4307 13.177 0.370
13.4511 12.417 0.360
13.4716 12.948 0.367
13.4921 13.000 0.368
13.5125 13.135 0.370
13.5330 12.667 0.363
13.5535 12.333 0.358
13.5739 12.813 0.365
13.5944 12.583 0.362
13.6148 12.750 0.364
13.6353 11.927 0.352
13.6558 12.813 0.365
13.6762 12.365 0.359
13.6967 12.469 0.360
13.7172 11.938 0.353
13.7376 12.615 0.362
13.7581 12.490 0.361
13.7785 12.531 0.361
13.7990 12.052 0.354
13.8195 12.292 0.358
13.8399 12.635 0.363
13.8604 12.302 0.358
13.8809 12.885 0.366
13.9013 11.344 0.344
13.9218 11.750 0.350
13.9422 12.240 0.357
13.9627 11.552 0.347
13.9832 12.604 0.362
14.0036 11.896 0.352
14.0241 12.281 0.358
14.0446 11.729 0.350
14.0650 11.948 0.353
14.0855 11.146 0.341
14.1059 11.750 0.350
14.1264 12.052 0.354
14.1469 11.667 0.349
14.1673 11.948 0.353
14.1878 11.979 0.353
14.2083 11.115 0.340
14.2287 11.302 0.343
14.2492 12.115 0.355
14.2696 11.469 0.346
14.2901 12.167 0.356
14.3106 12.115 0.355
14.3310 11.510 0.346
14.3515 11.604 0.348
14.3720 12.000 0.354
14.3924 11.688 0.349
14.4129 11.094 0.340
14.4334 11.052 0.339
14.4538 11.479 0.346
14.4743 11.615 0.348
14.4947 11.458 0.345
14.5152 10.708 0.334
14.5357 11.552 0.347
14.5561 11.271 0.343
14.5766 11.625 0.348
14.5971 10.927 0.337
14.6175 11.500 0.346
14.6380 12.385 0.359
14.6584 11.760 0.350
14.6789 10.979 0.338
14.6994 11.458 0.345
14.7198 11.385 0.344
14.7403 11.667 0.349
14.7608 11.354 0.344
14.7812 11.365 0.344
14.8017 10.302 0.328
14.8221 10.865 0.336
14.8426 11.021 0.339
14.8631 11.000 0.339
14.8835 10.750 0.335
14.9040 11.146 0.341
14.9245 10.938 0.338
14.9449 10.792 0.335
14.9654 10.115 0.325
14.9858 11.125 0.340
15.0063 10.250 0.327
15.0268 11.271 0.343
15.0472 11.396 0.345
15.0677 10.802 0.335
15.0882 11.198 0.342
15.1086 10.510 0.331
15.1291 11.083 0.340
15.1495 10.385 0.329
15.1700 10.146 0.325
15.1905 10.781 0.335
15.2109 10.906 0.337
15.2314 10.938 0.338
15.2519 10.719 0.334
15.2723 10.833 0.336
15.2928 10.771 0.335
15.3133 10.917 0.337
15.3337 10.844 0.336
15.3542 11.323 0.343
15.3746 11.385 0.344
15.3951 10.240 0.327
15.4156 11.260 0.342
15.4360 9.990 0.323
15.4565 10.542 0.331
15.4770 10.438 0.330
15.4974 11.219 0.342
15.5179 11.469 0.346
15.5383 10.594 0.332
15.5588 10.698 0.334
15.5793 10.729 0.334
15.5997 10.365 0.329
15.6202 10.677 0.333
15.6407 10.750 0.335
15.6611 11.302 0.343
15.6816 11.490 0.346
15.7020 12.281 0.358
15.7225 13.719 0.378
15.7430 16.729 0.417
15.7634 16.792 0.418
15.7839 16.615 0.416
15.8044 14.531 0.389
15.8248 12.917 0.367
15.8453 10.813 0.336
15.8657 10.302 0.328
15.8862 11.188 0.341
15.9067 10.490 0.331
15.9271 10.250 0.327
15.9476 10.938 0.338
15.9681 10.135 0.325
15.9885 9.833 0.320
16.0090 10.125 0.325
16.0295 10.125 0.325
16.0499 9.490 0.314
16.0704 11.021 0.339
16.0908 10.406 0.329
16.1113 10.042 0.323
16.1318 9.896 0.321
16.1522 10.510 0.331
16.1727 9.708 0.318
16.1932 10.010 0.323
16.2136 9.979 0.322
16.2341 10.104 0.324
16.2545 10.208 0.326
16.2750 10.490 0.331
16.2955 10.031 0.323
16.3159 9.750 0.319
16.3364 10.281 0.327
16.3569 10.302 0.328
16.3773 10.104 0.324
16.3978 10.396 0.329
16.4182 10.052 0.324
16.4387 9.708 0.318
16.4592 10.021 0.323
16.4796 9.938 0.322
16.5001 10.604 0.332
16.5206 9.844 0.320
16.5410 10.198 0.326
16.5615 9.625 0.317
16.5819 9.292 0.311
16.6024 9.906 0.321
16.6229 9.469 0.314
16.6433 10.208 0.326
16.6638 9.958 0.322
16.6843 9.177 0.309
16.7047 9.615 0.316
16.7252 9.656 0.317
16.7456 9.990 0.323
16.7661 9.750 0.319
16.7866 10.281 0.327
16.8070 9.667 0.317
16.8275 10.677 0.333
16.8480 9.698 0.318
16.8684 9.760 0.319
16.8889 9.719 0.318
16.9094 9.865 0.321
16.9298 9.781 0.319
16.9503 10.198 0.326
16.9707 10.281 0.327
16.9912 10.104 0.324
17.0117 10.260 0.327
17.0321 10.031 0.323
17.0526 9.698 0.318
17.0731 10.583 0.332
17.0935 10.771 0.335
17.1140 10.333 0.328
17.1344 10.167 0.325
17.1549 10.146 0.325
17.1754 10.396 0.329
17.1958 9.656 0.317
17.2163 10.438 0.330
17.2368 10.281 0.327
17.2572 10.135 0.325
17.2777 11.063 0.339
17.2981 10.844 0.336
17.3186 10.208 0.326
17.3391 10.677 0.333
17.3595 11.021 0.339
17.3800 11.167 0.341
17.4005 10.927 0.337
17.4209 12.021 0.354
17.4414 12.198 0.356
17.4618 12.344 0.359
17.4823 12.458 0.360
17.5028 12.677 0.363
17.5232 13.667 0.377
17.5437 15.083 0.396
17.5642 16.031 0.409
17.5846 16.542 0.415
17.6051 16.833 0.419
17.6255 15.063 0.396
17.6460 14.865 0.393
17.6665 13.990 0.382
17.6869 13.250 0.372
17.7074 12.823 0.365
17.7279 12.677 0.363
17.7483 13.042 0.369
17.7688 13.031 0.368
17.7893 13.677 0.377
17.8097 13.990 0.382
17.8302 14.448 0.388
17.8506 14.656 0.391
17.8711 14.260 0.385
17.8916 14.417 0.388
17.9120 13.635 0.377
17.9325 13.719 0.378
17.9530 14.052 0.383
17.9734 14.906 0.394
17.9939 15.625 0.403
18.0143 16.604 0.416
18.0348 18.365 0.437
18.0553 20.469 0.462
18.0757 19.417 0.450
18.0962 18.510 0.439
18.1167 18.323 0.437
18.1371 17.458 0.426
18.1576 17.240 0.424
18.1780 17.135 0.422
18.1985 17.458 0.426
18.2190 18.240 0.436
18.2394 17.698 0.429
18.2599 18.313 0.437
18.2804 18.063 0.434
18.3008 20.427 0.461
18.3213 20.531 0.462
18.3417 19.615 0.452
18.3622 21.052 0.468
18.3827 21.094 0.469
18.4031 22.073 0.480
18.4236 24.219 0.502
18.4441 25.281 0.513
18.4645 25.771 0.518
18.4850 28.417 0.544
18.5054 28.844 0.548
18.5259 29.740 0.557
18.5464 31.021 0.568
18.5668 32.438 0.581
18.5873 34.635 0.601
18.6078 50.469 0.725
18.6282 54.000 0.750
18.6487 40.781 0.652
18.6692 41.719 0.659
18.6896 30.052 0.560
18.7101 25.854 0.519
18.7305 23.917 0.499
18.7510 24.177 0.502
18.7715 24.146 0.502
18.7919 24.188 0.502
18.8124 23.531 0.495
18.8329 21.740 0.476
18.8533 20.885 0.466
18.8738 19.208 0.447
18.8942 18.750 0.442
18.9147 19.250 0.448
18.9352 17.917 0.432
18.9556 17.177 0.423
18.9761 16.969 0.420
18.9966 17.802 0.431
19.0170 16.198 0.411
19.0375 16.979 0.421
19.0579 16.104 0.410
19.0784 17.271 0.424
19.0989 15.948 0.408
19.1193 17.813 0.431
19.1398 18.240 0.436
19.1603 18.000 0.433
19.1807 18.615 0.440
19.2012 19.313 0.449
19.2216 18.229 0.436
19.2421 19.615 0.452
19.2626 19.510 0.451
19.2830 19.021 0.445
19.3035 19.427 0.450
19.3240 19.604 0.452
19.3444 19.938 0.456
19.3649 19.969 0.456
19.3853 20.365 0.461
19.4058 20.990 0.468
19.4263 20.542 0.463
19.4467 21.844 0.477
19.4672 21.927 0.478
19.4877 23.292 0.493
19.5081 26.323 0.524
19.5286 26.823 0.529
19.5491 29.594 0.555
19.5695 31.323 0.571
19.5900 33.479 0.591
19.6104 35.177 0.605
19.6309 38.208 0.631
19.6514 40.188 0.647
19.6718 45.521 0.689
19.6923 52.406 0.739
19.7128 66.656 0.833
19.7332 85.521 0.944
19.7537 128.188 1.156
19.7741 245.667 1.600
19.7946 428.406 2.112
19.8151 698.323 2.697
19.8355 619.615 2.541
19.8560 416.375 2.083
19.8765 350.438 1.911
19.8969 169.906 1.330
19.9174 70.031 0.854
19.9378 45.948 0.692
19.9583 36.479 0.616
19.9788 34.281 0.598
19.9992 30.510 0.564
20.0197 29.188 0.551
20.0402 27.677 0.537
20.0606 25.188 0.512
20.0811 23.333 0.493
20.1015 19.865 0.455
20.1220 19.635 0.452
20.1425 18.708 0.441
20.1629 18.677 0.441
20.1834 19.021 0.445
20.2039 19.104 0.446
20.2243 18.760 0.442
20.2448 19.719 0.453
20.2653 20.385 0.461
20.2857 21.031 0.468
20.3062 21.844 0.477
20.3266 21.760 0.476
20.3471 22.115 0.480
20.3676 20.823 0.466
20.3880 20.406 0.461
20.4085 20.188 0.459
20.4290 19.260 0.448
20.4494 18.146 0.435
20.4699 18.417 0.438
20.4903 18.667 0.441
20.5108 18.000 0.433
20.5313 18.344 0.437
20.5517 17.333 0.425
20.5722 16.781 0.418
20.5927 15.938 0.407
20.6131 15.760 0.405
20.6336 15.427 0.401
20.6540 14.604 0.390
20.6745 14.000 0.382
20.6950 14.438 0.388
20.7154 14.146 0.384
20.7359 13.719 0.378
20.7564 13.135 0.370
20.7768 13.646 0.377
20.7973 13.490 0.375
20.8177 13.229 0.371
20.8382 12.719 0.364
20.8587 12.729 0.364
20.8791 12.719 0.364
20.8996 12.427 0.360
20.9201 12.240 0.357
20.9405 12.188 0.356
20.9610 13.031 0.368
20.9814 12.500 0.361
21.0019 11.958 0.353
21.0224 12.573 0.362
21.0428 12.750 0.364
21.0633 12.552 0.362
21.0838 12.667 0.363
21.1042 12.729 0.364
21.1247 12.031 0.354
21.1452 11.792 0.350
21.1656 11.927 0.352
21.1861 12.156 0.356
21.2065 12.469 0.360
21.2270 12.063 0.354
21.2475 11.833 0.351
21.2679 11.417 0.345
21.2884 12.146 0.356
21.3089 12.188 0.356
21.3293 11.781 0.350
21.3498 11.479 0.346
21.3702 11.396 0.345
21.3907 11.760 0.350
21.4112 11.083 0.340
21.4316 11.865 0.352
21.4521 11.531 0.347
21.4726 11.646 0.348
21.4930 11.156 0.341
21.5135 11.083 0.340
21.5339 11.031 0.339
21.5544 10.938 0.338
21.5749 10.896 0.337
21.5953 10.979 0.338
21.6158 11.260 0.342
21.6363 10.979 0.338
21.6567 11.135 0.341
21.6772 10.875 0.337
21.6976 10.510 0.331
21.7181 10.823 0.336
21.7386 11.000 0.339
21.7590 11.208 0.342
21.7795 10.708 0.334
21.8000 10.823 0.336
21.8204 11.313 0.343
21.8409 11.427 0.345
21.8613 11.188 0.341
21.8818 10.979 0.338
21.9023 10.854 0.336
21.9227 11.177 0.341
21.9432 11.385 0.344
21.9637 12.146 0.356
21.9841 11.969 0.353
22.0046 13.010 0.368
22.0251 13.198 0.371
22.0455 14.667 0.391
22.0660 14.823 0.393
22.0864 18.979 0.445
22.1069 23.240 0.492
22.1274 33.250 0.589
22.1478 46.719 0.698
22.1683 59.052 0.784
22.1888 56.698 0.769
22.2092 48.760 0.713
22.2297 41.990 0.661
22.2501 33.667 0.592
22.2706 24.490 0.505
22.2911 19.052 0.445
22.3115 17.000 0.421
22.3320 15.750 0.405
22.3525 14.354 0.387
22.3729 13.708 0.378
22.3934 13.625 0.377
22.4138 12.552 0.362
22.4343 12.250 0.357
22.4548 12.396 0.359
22.4752 12.156 0.356
22.4957 11.615 0.348
22.5162 11.583 0.347
22.5366 11.385 0.344
22.5571 11.510 0.346
22.5775 10.823 0.336
22.5980 10.625 0.333
22.6185 11.115 0.340
22.6389 11.104 0.340
22.6594 10.615 0.333
22.6799 10.781 0.335
22.7003 11.146 0.341
22.7208 10.802 0.335
22.7412 11.021 0.339
22.7617 11.115 0.340
22.7822 10.802 0.335
22.8026 11.167 0.341
22.8231 10.948 0.338
22.8436 10.792 0.335
22.8640 11.385 0.344
22.8845 12.510 0.361
22.9050 11.729 0.350
22.9254 11.375 0.344
22.9459 11.583 0.347
22.9663 10.938 0.338
22.9868 10.854 0.336
23.0073 10.490 0.331
23.0277 10.281 0.327
23.0482 9.667 0.317
23.0687 9.802 0.320
23.0891 10.521 0.331
23.1096 9.604 0.316
23.1300 10.042 0.323
23.1505 10.094 0.324
23.1710 9.208 0.310
23.1914 9.531 0.315
23.2119 9.229 0.310
23.2324 8.979 0.306
23.2528 9.552 0.315
23.2733 9.750 0.319
23.2937 10.021 0.323
23.3142 9.250 0.310
23.3347 9.906 0.321
23.3551 9.708 0.318
23.3756 9.438 0.314
23.3961 9.667 0.317
23.4165 8.979 0.306
23.4370 9.125 0.308
23.4574 10.167 0.325
23.4779 9.719 0.318
23.4984 9.594 0.316
23.5188 9.781 0.319
23.5393 10.365 0.329
23.5598 10.250 0.327
23.5802 10.719 0.334
23.6007 9.438 0.314
23.6211 10.531 0.331
23.6416 10.271 0.327
23.6621 9.979 0.322
23.6825 10.198 0.326
23.7030 9.844 0.320
23.7235 10.083 0.324
23.7439 9.406 0.313
23.7644 9.615 0.316
23.7849 9.250 0.310
23.8053 8.802 0.303
23.8258 9.885 0.321
23.8462 9.000 0.306
23.8667 9.688 0.318
23.8872 9.229 0.310
23.9076 8.063 0.290
23.9281 8.792 0.303
23.9486 8.677 0.301
23.9690 8.792 0.303
23.9895 8.969 0.306
24.0099 8.990 0.306
24.0304 8.635 0.300
24.0509 8.958 0.305
24.0713 8.635 0.300
24.0918 9.208 0.310
24.1123 9.292 0.311
24.1327 8.750 0.302
24.1532 9.396 0.313
24.1736 9.813 0.320
24.1941 9.531 0.315
24.2146 8.958 0.305
24.2350 10.323 0.328
24.2555 10.750 0.335
24.2760 11.052 0.339
24.2964 12.688 0.364
24.3169 12.521 0.361
24.3373 12.875 0.366
24.3578 11.594 0.348
24.3783 11.250 0.342
24.3987 10.969 0.338
24.4192 10.125 0.325
24.4397 9.542 0.315
24.4601 9.125 0.308
24.4806 9.510 0.315
24.5011 9.010 0.306
24.5215 8.667 0.300
24.5420 8.542 0.298
24.5624 9.188 0.309
24.5829 8.885 0.304
24.6034 9.031 0.307
24.6238 9.219 0.310
24.6443 8.708 0.301
24.6648 9.344 0.312
24.6852 9.333 0.312
24.7057 8.885 0.304
24.7261 8.844 0.304
24.7466 8.594 0.299
24.7671 8.063 0.290
24.7875 8.594 0.299
24.8080 8.833 0.303
24.8285 9.260 0.311
24.8489 8.583 0.299
24.8694 8.802 0.303
24.8898 8.448 0.297
24.9103 8.448 0.297
24.9308 9.125 0.308
24.9512 8.479 0.297
24.9717 8.896 0.304
24.9922 8.594 0.299
25.0126 7.948 0.288
25.0331 8.979 0.306
25.0535 8.458 0.297
25.0740 8.844 0.304
25.0945 8.385 0.296
25.1149 8.094 0.290
25.1354 8.198 0.292
25.1559 8.792 0.303
25.1763 8.688 0.301
25.1968 7.938 0.288
25.2172 8.833 0.303
25.2377 9.021 0.307
25.2582 8.917 0.305
25.2786 8.385 0.296
25.2991 8.094 0.290
25.3196 8.021 0.289
25.3400 8.417 0.296
25.3605 8.521 0.298
25.3810 8.563 0.299
25.4014 8.229 0.293
25.4219 8.292 0.294
25.4423 8.344 0.295
25.4628 8.583 0.299
25.4833 8.458 0.297
25.5037 8.240 0.293
25.5242 8.625 0.300
25.5447 8.750 0.302
25.5651 9.896 0.321
25.5856 9.198 0.310
25.6060 8.854 0.304
25.6265 9.552 0.315
25.6470 9.219 0.310
25.6674 8.792 0.303
25.6879 9.073 0.307
25.7084 8.677 0.301
25.7288 8.115 0.291
25.7493 8.625 0.300
25.7697 8.313 0.294
25.7902 8.396 0.296
25.8107 8.854 0.304
25.8311 8.406 0.296
25.8516 8.490 0.297
25.8721 8.594 0.299
25.8925 8.500 0.298
25.9130 8.073 0.290
25.9334 8.677 0.301
25.9539 8.698 0.301
25.9744 8.969 0.306
25.9948 9.094 0.308
26.0153 8.469 0.297
26.0358 8.771 0.302
26.0562 8.313 0.294
26.0767 8.844 0.304
26.0971 8.104 0.291
26.1176 8.396 0.296
26.1381 8.833 0.303
26.1585 8.229 0.293
26.1790 8.844 0.304
26.1995 8.646 0.300
26.2199 8.573 0.299
26.2404 8.510 0.298
26.2609 8.604 0.299
26.2813 8.479 0.297
26.3018 8.198 0.292
26.3222 8.563 0.299
26.3427 8.323 0.294
26.3632 8.104 0.291
26.3836 8.260 0.293
26.4041 8.573 0.299
26.4246 8.573 0.299
26.4450 8.073 0.290
26.4655 8.885 0.304
26.4859 8.490 0.297
26.5064 8.073 0.290
26.5269 8.073 0.290
26.5473 8.771 0.302
26.5678 8.271 0.294
26.5883 8.313 0.294
26.6087 8.385 0.296
26.6292 8.344 0.295
26.6496 8.615 0.300
26.6701 8.677 0.301
26.6906 8.229 0.293
26.7110 9.063 0.307
26.7315 8.156 0.291
26.7520 9.458 0.314
26.7724 8.438 0.296
26.7929 8.635 0.300
26.8133 9.000 0.306
26.8338 8.604 0.299
26.8543 9.063 0.307
26.8747 9.323 0.312
26.8952 9.250 0.310
26.9157 9.063 0.307
26.9361 9.844 0.320
26.9566 9.896 0.321
26.9770 10.760 0.335
26.9975 10.563 0.332
27.0180 10.854 0.336
27.0384 10.438 0.330
27.0589 10.292 0.327
27.0794 10.448 0.330
27.0998 9.542 0.315
27.1203 9.302 0.311
27.1408 8.979 0.306
27.1612 9.167 0.309
27.1817 9.083 0.308
27.2021 8.854 0.304
27.2226 9.313 0.311
27.2431 8.104 0.291
27.2635 8.854 0.304
27.2840 8.719 0.301
27.3045 9.292 0.311
27.3249 9.260 0.311
27.3454 8.656 0.300
27.3658 8.677 0.301
27.3863 8.677 0.301
27.4068 8.583 0.299
27.4272 9.031 0.307
27.4477 9.354 0.312
27.4682 9.896 0.321
27.4886 10.219 0.326
27.5091 9.906 0.321
27.5295 9.500 0.315
27.5500 9.969 0.322
27.5705 9.240 0.310
27.5909 8.688 0.301
27.6114 8.833 0.303
27.6319 8.802 0.303
27.6523 9.031 0.307
27.6728 9.021 0.307
27.6932 9.458 0.314
27.7137 9.542 0.315
27.7342 9.448 0.314
27.7546 9.260 0.311
27.7751 9.365 0.312
27.7956 8.865 0.304
27.8160 9.219 0.310
27.8365 9.271 0.311
27.8569 9.229 0.310
27.8774 9.281 0.311
27.8979 9.333 0.312
27.9183 9.240 0.310
27.9388 9.813 0.320
27.9593 9.052 0.307
27.9797 9.365 0.312
28.0002 8.854 0.304
28.0207 9.188 0.309
28.0411 8.583 0.299
28.0616 9.813 0.320
28.0820 8.906 0.305
28.1025 9.781 0.319
28.1230 8.656 0.300
28.1434 9.083 0.308
28.1639 8.385 0.296
28.1844 8.677 0.301
28.2048 8.927 0.305
28.2253 8.469 0.297
28.2457 8.917 0.305
28.2662 8.198 0.292
28.2867 8.510 0.298
28.3071 8.656 0.300
28.3276 8.750 0.302
28.3481 8.313 0.294
28.3685 8.510 0.298
28.3890 8.010 0.289
28.4094 8.594 0.299
28.4299 8.115 0.291
28.4504 8.615 0.300
28.4708 8.344 0.295
28.4913 8.469 0.297
28.5118 8.354 0.295
28.5322 8.396 0.296
28.5527 8.500 0.298
28.5731 8.250 0.293
28.5936 8.406 0.296
28.6141 8.438 0.296
28.6345 8.771 0.302
28.6550 8.302 0.294
28.6755 8.844 0.304
28.6959 8.938 0.305
28.7164 8.823 0.303
28.7368 9.292 0.311
28.7573 8.948 0.305
28.7778 9.583 0.316
28.7982 9.615 0.316
28.8187 9.844 0.320
28.8392 10.063 0.324
28.8596 11.219 0.342
28.8801 11.885 0.352
28.9006 12.875 0.366
28.9210 13.375 0.373
28.9415 12.677 0.363
28.9619 11.646 0.348
28.9824 11.792 0.350
29.0029 11.167 0.341
29.0233 10.385 0.329
29.0438 10.250 0.327
29.0643 9.313 0.311
29.0847 8.781 0.302
29.1052 9.552 0.315
29.1256 8.583 0.299
29.1461 8.521 0.298
29.1666 8.271 0.294
29.1870 8.521 0.298
29.2075 8.750 0.302
29.2280 8.635 0.300
29.2484 8.948 0.305
29.2689 9.677 0.317
29.2893 10.396 0.329
29.3098 11.167 0.341
29.3303 11.063 0.339
29.3507 10.938 0.338
29.3712 10.135 0.325
29.3917 9.865 0.321
29.4121 9.625 0.317
29.4326 8.771 0.302
29.4530 8.948 0.305
29.4735 8.333 0.295
29.4940 8.438 0.296
29.5144 8.177 0.292
29.5349 8.448 0.297
29.5554 8.823 0.303
29.5758 8.031 0.289
29.5963 8.229 0.293
29.6168 7.813 0.285
29.6372 7.906 0.287
29.6577 8.104 0.291
29.6781 7.958 0.288
29.6986 8.313 0.294
29.7191 7.969 0.288
29.7395 7.646 0.282
29.7600 8.042 0.289
29.7805 7.833 0.286
29.8009 7.563 0.281
29.8214 7.990 0.288
29.8418 7.917 0.287
29.8623 7.615 0.282
29.8828 8.063 0.290
29.9032 9.031 0.307
29.9237 8.646 0.300
29.9442 8.083 0.290
29.9646 7.854 0.286
29.9851 8.458 0.297
30.0055 8.677 0.301
30.0260 7.896 0.287
30.0465 7.615 0.282
30.0669 7.625 0.282
30.0874 7.625 0.282
30.1079 7.698 0.283
30.1283 7.583 0.281
30.1488 7.677 0.283
30.1692 7.552 0.280
30.1897 7.208 0.274
30.2102 7.573 0.281
30.2306 7.458 0.279
30.2511 7.448 0.279
30.2716 7.813 0.285
30.2920 7.990 0.288
30.3125 7.740 0.284
30.3329 7.042 0.271
30.3534 8.052 0.290
30.3739 7.615 0.282
30.3943 7.500 0.280
30.4148 7.552 0.280
30.4353 7.083 0.272
30.4557 8.135 0.291
30.4762 7.260 0.275
30.4967 7.344 0.277
30.5171 7.604 0.281
30.5376 7.125 0.272
30.5580 7.792 0.285
30.5785 7.740 0.284
30.5990 7.365 0.277
30.6194 8.052 0.290
30.6399 7.563 0.281
30.6604 8.250 0.293
30.6808 7.583 0.281
30.7013 7.750 0.284
30.7217 8.365 0.295
30.7422 8.177 0.292
30.7627 8.458 0.297
30.7831 8.438 0.296
30.8036 8.719 0.301
30.8241 9.354 0.312
30.8445 9.646 0.317
30.8650 10.177 0.326
30.8854 11.125 0.340
30.9059 12.833 0.366
30.9264 15.813 0.406
30.9468 21.229 0.470
30.9673 31.667 0.574
30.9878 43.042 0.670
31.0082 50.948 0.728
31.0287 45.969 0.692
31.0491 41.740 0.659
31.0696 38.094 0.630
31.0901 35.625 0.609
31.1105 28.927 0.549
31.1310 21.719 0.476
31.1515 16.854 0.419
31.1719 14.260 0.385
31.1924 10.844 0.336
31.2128 10.729 0.334
31.2333 9.677 0.317
31.2538 10.302 0.328
31.2742 9.177 0.309
31.2947 9.385 0.313
31.3152 9.010 0.306
31.3356 9.292 0.311
31.3561 9.375 0.313
31.3766 8.917 0.305
31.3970 8.135 0.291
31.4175 8.323 0.294
31.4379 8.354 0.295
31.4584 8.250 0.293
31.4789 7.615 0.282
31.4993 7.979 0.288
31.5198 8.396 0.296
31.5403 7.781 0.285
31.5607 7.323 0.276
31.5812 7.813 0.285
31.6016 7.375 0.277
31.6221 8.031 0.289
31.6426 7.802 0.285
31.6630 7.750 0.284
31.6835 7.406 0.278
31.7040 7.792 0.285
31.7244 7.823 0.285
31.7449 8.125 0.291
31.7653 7.646 0.282
31.7858 7.958 0.288
31.8063 8.635 0.300
31.8267 8.010 0.289
31.8472 7.792 0.285
31.8677 7.792 0.285
31.8881 7.771 0.285
31.9086 7.615 0.282
31.9290 7.521 0.280
31.9495 7.979 0.288
31.9700 7.594 0.281
31.9904 8.083 0.290
32.0109 8.010 0.289
32.0314 8.438 0.296
32.0518 9.135 0.308
32.0723 10.260 0.327
32.0927 11.135 0.341
32.1132 10.896 0.337
32.1337 10.917 0.337
32.1541 10.115 0.325
32.1746 10.854 0.336
32.1951 11.052 0.339
32.2155 11.323 0.343
32.2360 10.729 0.334
32.2565 10.656 0.333
32.2769 10.417 0.329
32.2974 10.344 0.328
32.3178 11.177 0.341
32.3383 11.615 0.348
32.3588 12.781 0.365
32.3792 15.000 0.395
32.3997 17.125 0.422
32.4202 17.177 0.423
32.4406 16.740 0.418
32.4611 17.688 0.429
32.4815 17.260 0.424
32.5020 17.063 0.422
32.5225 16.708 0.417
32.5429 17.219 0.424
32.5634 19.698 0.453
32.5839 22.375 0.483
32.6043 25.719 0.518
32.6248 26.292 0.523
32.6452 22.875 0.488
32.6657 20.219 0.459
32.6862 19.719 0.453
32.7066 18.240 0.436
32.7271 14.406 0.387
32.7476 11.969 0.353
32.7680 9.792 0.319
32.7885 9.438 0.314
32.8089 9.292 0.311
32.8294 9.125 0.308
32.8499 8.969 0.306
32.8703 8.729 0.302
32.8908 8.021 0.289
32.9113 8.010 0.289
32.9317 7.833 0.286
32.9522 7.490 0.279
32.9726 7.813 0.285
32.9931 7.531 0.280
33.0136 7.990 0.288
33.0340 7.073 0.271
33.0545 7.854 0.286
33.0750 7.896 0.287
33.0954 7.323 0.276
33.1159 8.125 0.291
33.1364 7.552 0.280
33.1568 7.844 0.286
33.1773 7.292 0.276
33.1977 7.635 0.282
33.2182 7.760 0.284
33.2387 7.510 0.280
33.2591 7.448 0.279
33.2796 7.760 0.284
33.3001 7.240 0.275
33.3205 7.521 0.280
33.3410 7.677 0.283
33.3614 8.083 0.290
33.3819 7.323 0.276
33.4024 7.615 0.282
33.4228 7.563 0.281
33.4433 7.104 0.272
33.4638 7.521 0.280
33.4842 8.167 0.292
33.5047 6.906 0.268
33.5251 7.813 0.285
33.5456 7.656 0.282
33.5661 7.146 0.273
33.5865 7.042 0.271
33.6070 7.000 0.270
33.6275 6.813 0.266
33.6479 7.031 0.271
33.6684 7.813 0.285
33.6888 7.250 0.275
33.7093 6.979 0.270
33.7298 7.000 0.270
33.7502 7.271 0.275
33.7707 7.240 0.275
33.7912 6.667 0.264
33.8116 7.698 0.283
33.8321 7.073 0.271
33.8526 6.813 0.266
33.8730 7.198 0.274
33.8935 6.958 0.269
33.9139 7.198 0.274
33.9344 7.385 0.277
33.9549 7.479 0.279
33.9753 6.833 0.267
33.9958 7.635 0.282
34.0163 7.521 0.280
34.0367 7.115 0.272
34.0572 7.563 0.281
34.0776 7.427 0.278
34.0981 7.385 0.277
34.1186 7.552 0.280
34.1390 7.375 0.277
34.1595 8.063 0.290
34.1800 7.323 0.276
34.2004 7.260 0.275
34.2209 7.510 0.280
34.2413 7.458 0.279
34.2618 7.677 0.283
34.2823 7.531 0.280
34.3027 7.719 0.284
34.3232 7.427 0.278
34.3437 7.000 0.270
34.3641 6.990 0.270
34.3846 6.708 0.264
34.4050 7.042 0.271
34.4255 7.365 0.277
34.4460 7.156 0.273
34.4664 6.385 0.258
34.4869 6.938 0.269
34.5074 7.031 0.271
34.5278 6.677 0.264
34.5483 6.563 0.261
34.5687 6.625 0.263
34.5892 7.500 0.280
34.6097 6.844 0.267
34.6301 6.979 0.270
34.6506 6.854 0.267
34.6711 7.167 0.273
34.6915 6.833 0.267
34.7120 7.177 0.273
34.7325 6.917 0.268
34.7529 7.292 0.276
34.7734 7.156 0.273
34.7938 7.219 0.274
34.8143 7.146 0.273
34.8348 7.542 0.280
34.8552 7.125 0.272
34.8757 7.708 0.283
34.8962 7.406 0.278
34.9166 7.781 0.285
34.9371 8.406 0.296
34.9575 8.823 0.303
34.9780 8.563 0.299
34.9985 8.479 0.297
35.0189 8.583 0.299
35.0394 7.583 0.281
35.0599 7.563 0.281
35.0803 7.063 0.271
35.1008 6.938 0.269
35.1212 7.500 0.280
35.1417 6.854 0.267
35.1622 7.354 0.277
35.1826 7.427 0.278
35.2031 7.719 0.284
35.2236 7.875 0.286
35.2440 7.146 0.273
35.2645 7.313 0.276
35.2849 7.115 0.272
35.3054 7.417 0.278
35.3259 7.344 0.277
35.3463 7.583 0.281
35.3668 7.865 0.286
35.3873 8.042 0.289
35.4077 7.125 0.272
35.4282 7.740 0.284
35.4486 7.833 0.286
35.4691 7.948 0.288
35.4896 7.854 0.286
35.5100 8.042 0.289
35.5305 8.521 0.298
35.5510 8.708 0.301
35.5714 9.042 0.307
35.5919 9.281 0.311
35.6124 9.146 0.309
35.6328 9.354 0.312
35.6533 9.458 0.314
35.6737 9.021 0.307
35.6942 8.740 0.302
35.7147 8.625 0.300
35.7351 8.750 0.302
35.7556 8.042 0.289
35.7761 8.427 0.296
35.7965 8.479 0.297
35.8170 8.542 0.298
35.8374 8.479 0.297
35.8579 8.438 0.296
35.8784 8.125 0.291
35.8988 8.479 0.297
35.9193 8.719 0.301
35.9398 9.177 0.309
35.9602 9.990 0.323
35.9807 9.625 0.317
36.0011 10.208 0.326
36.0216 10.146 0.325
36.0421 10.365 0.329
36.0625 10.896 0.337
36.0830 11.417 0.345
36.1035 12.677 0.363
36.1239 12.979 0.368
36.1444 12.510 0.361
36.1648 13.219 0.371
36.1853 13.125 0.370
36.2058 12.750 0.364
36.2262 12.500 0.361
36.2467 12.219 0.357
36.2672 12.448 0.360
36.2876 11.333 0.344
36.3081 11.563 0.347
36.3285 11.573 0.347
36.3490 11.979 0.353
36.3695 12.156 0.356
36.3899 12.615 0.362
36.4104 13.073 0.369
36.4309 12.896 0.367
36.4513 13.708 0.378
36.4718 14.208 0.385
36.4923 15.229 0.398
36.5127 17.656 0.429
36.5332 19.063 0.446
36.5536 23.875 0.499
36.5741 28.802 0.548
36.5946 30.938 0.568
36.6150 27.083 0.531
36.6355 24.010 0.500
36.6560 22.354 0.483
36.6764 22.844 0.488
36.6969 22.375 0.483
36.7173 17.802 0.431
36.7378 15.490 0.402
36.7583 14.667 0.391
36.7787 14.188 0.384
36.7992 13.667 0.377
36.8197 14.021 0.382
36.8401 14.073 0.383
36.8606 14.125 0.384
36.8810 14.708 0.391
36.9015 14.740 0.392
36.9220 15.771 0.405
36.9424 17.260 0.424
36.9629 18.792 0.442
36.9834 20.885 0.466
37.0038 24.667 0.507
37.0243 29.719 0.556
37.0447 39.021 0.638
37.0652 43.333 0.672
37.0857 41.615 0.658
37.1061 35.615 0.609
37.1266 30.677 0.565
37.1471 30.698 0.565
37.1675 29.865 0.558
37.1880 25.719 0.518
37.2084 20.469 0.462
37.2289 17.302 0.425
37.2494 14.667 0.391
37.2698 13.271 0.372
37.2903 12.115 0.355
37.3108 11.740 0.350
37.3312 11.344 0.344
37.3517 10.938 0.338
37.3722 11.000 0.339
37.3926 10.552 0.332
37.4131 11.115 0.340
37.4335 10.833 0.336
37.4540 10.542 0.331
37.4745 11.500 0.346
37.4949 10.542 0.331
37.5154 10.979 0.338
37.5359 10.438 0.330
37.5563 10.802 0.335
37.5768 10.292 0.327
37.5972 10.583 0.332
37.6177 10.510 0.331
37.6382 10.375 0.329
37.6586 10.365 0.329
37.6791 10.219 0.326
37.6996 10.135 0.325
37.7200 9.750 0.319
37.7405 10.219 0.326
37.7609 10.198 0.326
37.7814 10.615 0.333
37.8019 10.063 0.324
37.8223 10.063 0.324
37.8428 10.396 0.329
37.8633 10.271 0.327
37.8837 10.427 0.330
37.9042 10.531 0.331
37.9246 11.583 0.347
37.9451 12.615 0.362
37.9656 15.354 0.400
37.9860 18.188 0.435
38.0065 19.969 0.456
38.0270 19.667 0.453
38.0474 17.771 0.430
38.0679 16.146 0.410
38.0884 16.823 0.419
38.1088 17.271 0.424
38.1293 16.208 0.411
38.1497 13.469 0.375
38.1702 13.427 0.374
38.1907 11.490 0.346
38.2111 11.948 0.353
38.2316 11.875 0.352
38.2521 10.875 0.337
38.2725 11.042 0.339
38.2930 10.938 0.338
38.3134 11.198 0.342
38.3339 10.708 0.334
38.3544 11.938 0.353
38.3748 12.146 0.356
38.3953 12.729 0.364
38.4158 14.625 0.390
38.4362 15.865 0.407
38.4567 17.115 0.422
38.4771 16.115 0.410
38.4976 14.073 0.383
38.5181 13.781 0.379
38.5385 13.885 0.380
38.5590 13.260 0.372
38.5795 12.750 0.364
38.5999 10.979 0.338
38.6204 10.354 0.328
38.6408 10.563 0.332
38.6613 10.094 0.324
38.6818 9.813 0.320
38.7022 9.771 0.319
38.7227 9.146 0.309
38.7432 9.406 0.313
38.7636 8.958 0.305
38.7841 8.958 0.305
38.8045 8.552 0.298
38.8250 9.031 0.307
38.8455 9.354 0.312
38.8659 8.750 0.302
38.8864 9.271 0.311
38.9069 9.031 0.307
38.9273 8.990 0.306
38.9478 9.052 0.307
38.9683 8.385 0.296
38.9887 9.063 0.307
39.0092 9.281 0.311
39.0296 8.823 0.303
39.0501 8.813 0.303
39.0706 8.906 0.305
39.0910 8.875 0.304
39.1115 8.917 0.305
39.1320 9.156 0.309
39.1524 8.677 0.301
39.1729 8.771 0.302
39.1933 8.802 0.303
39.2138 9.427 0.313
39.2343 8.583 0.299
39.2547 8.667 0.300
39.2752 9.083 0.308
39.2957 8.917 0.305
39.3161 9.073 0.307
39.3366 8.792 0.303
39.3570 9.333 0.312
39.3775 9.844 0.320
39.3980 8.958 0.305
39.4184 9.365 0.312
39.4389 9.635 0.317
39.4594 9.594 0.316
39.4798 9.802 0.320
39.5003 9.313 0.311
39.5207 9.646 0.317
39.5412 9.573 0.316
39.5617 9.406 0.313
39.5821 9.813 0.320
39.6026 9.740 0.319
39.6231 10.125 0.325
39.6435 10.656 0.333
39.6640 10.500 0.331
39.6844 11.042 0.339
39.7049 10.854 0.336
39.7254 12.083 0.355
39.7458 12.448 0.360
39.7663 14.531 0.389
39.7868 14.979 0.395
39.8072 14.969 0.395
39.8277 13.406 0.374
39.8482 13.021 0.368
39.8686 13.427 0.374
39.8891 13.594 0.376
39.9095 13.229 0.371
39.9300 13.563 0.376
39.9505 13.792 0.379
39.9709 14.292 0.386
39.9914 14.021 0.382
40.0119 13.969 0.381
40.0323 13.375 0.373
40.0528 12.552 0.362
40.0732 13.000 0.368
40.0937 12.635 0.363
40.1142 12.167 0.356
40.1346 12.042 0.354
40.1551 12.198 0.356
40.1756 13.510 0.375
40.1960 15.000 0.395
40.2165 19.333 0.449
40.2369 31.865 0.576
40.2574 43.094 0.670
40.2779 39.385 0.641
40.2983 22.823 0.488
40.3188 18.802 0.443
40.3393 21.250 0.470
40.3597 27.354 0.534
40.3802 27.573 0.536
40.4006 18.083 0.434
40.4211 13.563 0.376
40.4416 12.115 0.355
40.4620 11.813 0.351
40.4825 11.156 0.341
40.5030 11.281 0.343
40.5234 10.698 0.334
40.5439 10.635 0.333
40.5643 11.115 0.340
40.5848 10.781 0.335
40.6053 10.063 0.324
40.6257 9.969 0.322
40.6462 9.042 0.307
40.6667 9.396 0.313
40.6871 9.000 0.306
40.7076 9.323 0.312
40.7281 9.250 0.310
40.7485 9.427 0.313
40.7690 9.198 0.310
40.7894 8.854 0.304
40.8099 9.083 0.308
40.8304 9.156 0.309
40.8508 8.844 0.304
40.8713 8.573 0.299
40.8918 9.333 0.312
40.9122 8.677 0.301
40.9327 8.656 0.300
40.9531 8.771 0.302
40.9736 9.240 0.310
40.9941 9.667 0.317
41.0145 9.240 0.310
41.0350 10.302 0.328
41.0555 10.813 0.336
41.0759 13.094 0.369
41.0964 14.490 0.389
41.1168 17.458 0.426
41.1373 16.021 0.409
41.1578 14.344 0.387
41.1782 12.458 0.360
41.1987 12.750 0.364
41.2192 13.406 0.374
41.2396 12.917 0.367
41.2601 11.469 0.346
41.2805 9.948 0.322
41.3010 9.021 0.307
41.3215 9.698 0.318
41.3419 8.615 0.300
41.3624 8.188 0.292
41.3829 8.542 0.298
41.4033 8.115 0.291
41.4238 8.021 0.289
41.4442 8.177 0.292
41.4647 8.063 0.290
41.4852 8.000 0.289
41.5056 7.156 0.273
41.5261 7.635 0.282
41.5466 7.000 0.270
41.5670 7.292 0.276
41.5875 7.823 0.285
41.6080 7.042 0.271
41.6284 7.698 0.283
41.6489 7.469 0.279
41.6693 7.031 0.271
41.6898 7.292 0.276
41.7103 6.927 0.269
41.7307 6.656 0.263
41.7512 6.948 0.269
41.7717 7.313 0.276
41.7921 7.063 0.271
41.8126 7.063 0.271
41.8330 7.594 0.281
41.8535 7.583 0.281
41.8740 7.510 0.280
41.8944 7.740 0.284
41.9149 7.635 0.282
41.9354 7.938 0.288
41.9558 7.552 0.280
41.9763 7.104 0.272
41.9967 7.583 0.281
42.0172 7.521 0.280
42.0377 7.271 0.275
42.0581 7.010 0.270
42.0786 7.938 0.288
42.0991 7.385 0.277
42.1195 7.552 0.280
42.1400 7.865 0.286
42.1604 7.552 0.280
42.1809 7.302 0.276
42.2014 7.323 0.276
42.2218 7.458 0.279
42.2423 8.240 0.293
42.2628 7.542 0.280
42.2832 7.594 0.281
42.3037 7.365 0.277
42.3242 7.594 0.281
42.3446 8.115 0.291
42.3651 8.031 0.289
42.3855 7.740 0.284
42.4060 7.510 0.280
42.4265 7.927 0.287
42.4469 8.010 0.289
42.4674 8.188 0.292
42.4879 8.156 0.291
42.5083 7.646 0.282
42.5288 8.448 0.297
42.5492 8.021 0.289
42.5697 8.469 0.297
42.5902 8.083 0.290
42.6106 7.833 0.286
42.6311 8.646 0.300
42.6516 8.906 0.305
42.6720 8.854 0.304
42.6925 8.656 0.300
42.7129 7.854 0.286
42.7334 8.094 0.290
42.7539 7.615 0.282
42.7743 8.521 0.298
42.7948 7.938 0.288
42.8153 7.865 0.286
42.8357 7.990 0.288
42.8562 7.854 0.286
42.8766 7.542 0.280
42.8971 7.646 0.282
42.9176 8.073 0.290
42.9380 8.063 0.290
42.9585 7.656 0.282
42.9790 7.646 0.282
42.9994 8.542 0.298
43.0199 8.156 0.291
43.0403 7.906 0.287
43.0608 7.906 0.287
43.0813 8.104 0.291
43.1017 8.604 0.299
43.1222 8.948 0.305
43.1427 9.760 0.319
43.1631 9.323 0.312
43.1836 10.479 0.330
43.2041 10.833 0.336
43.2245 10.448 0.330
43.2450 9.604 0.316
43.2654 9.406 0.313
43.2859 9.854 0.320
43.3064 10.250 0.327
43.3268 9.844 0.320
43.3473 10.354 0.328
43.3678 9.781 0.319
43.3882 10.438 0.330
43.4087 10.063 0.324
43.4291 10.188 0.326
43.4496 10.177 0.326
43.4701 10.875 0.337
43.4905 11.406 0.345
43.5110 11.938 0.353
43.5315 14.021 0.382
43.5519 15.344 0.400
43.5724 18.031 0.433
43.5928 21.917 0.478
43.6133 26.927 0.530
43.6338 25.927 0.520
43.6542 22.000 0.479
43.6747 18.563 0.440
43.6952 17.365 0.425
43.7156 18.344 0.437
43.7361 18.573 0.440
43.7565 15.719 0.405
43.7770 13.906 0.381
43.7975 11.583 0.347
43.8179 11.104 0.340
43.8384 9.990 0.323
43.8589 9.208 0.310
43.8793 9.208 0.310
43.8998 8.594 0.299
43.9202 8.177 0.292
43.9407 8.146 0.291
43.9612 7.906 0.287
43.9816 8.135 0.291
44.0021 7.760 0.284
44.0226 7.656 0.282
44.0430 7.260 0.275
44.0635 7.229 0.274
44.0840 7.688 0.283
44.1044 7.448 0.279
44.1249 7.240 0.275
44.1453 7.177 0.273
44.1658 7.688 0.283
44.1863 7.813 0.285
44.2067 7.198 0.274
44.2272 7.104 0.272
44.2477 7.281 0.275
44.2681 7.490 0.279
44.2886 7.188 0.274
44.3090 7.135 0.273
44.3295 7.271 0.275
44.3500 6.979 0.270
44.3704 7.125 0.272
44.3909 7.219 0.274
44.4114 6.990 0.270
44.4318 7.406 0.278
44.4523 7.458 0.279
44.4727 7.698 0.283
44.4932 7.073 0.271
44.5137 7.427 0.278
44.5341 7.333 0.276
44.5546 7.354 0.277
44.5751 7.188 0.274
44.5955 7.042 0.271
44.6160 7.250 0.275
44.6364 7.344 0.277
44.6569 7.417 0.278
44.6774 7.604 0.281
44.6978 6.865 0.267
44.7183 7.031 0.271
44.7388 7.365 0.277
44.7592 7.667 0.283
44.7797 7.365 0.277
44.8001 7.792 0.285
44.8206 8.406 0.296
44.8411 8.552 0.298
44.8615 8.719 0.301
44.8820 8.354 0.295
44.9025 8.719 0.301
44.9229 8.302 0.294
44.9434 9.219 0.310
44.9639 8.823 0.303
44.9843 9.104 0.308
45.0048 8.719 0.301
45.0252 8.948 0.305
45.0457 9.385 0.313
45.0662 8.771 0.302
45.0866 8.604 0.299
45.1071 9.448 0.314
45.1276 9.771 0.319
45.1480 10.010 0.323
45.1685 11.448 0.345
45.1889 12.917 0.367
45.2094 14.302 0.386
45.2299 16.063 0.409
45.2503 15.583 0.403
45.2708 14.063 0.383
45.2913 13.979 0.382
45.3117 12.885 0.366
45.3322 12.938 0.367
45.3526 13.052 0.369
45.3731 11.750 0.350
45.3936 10.854 0.336
45.4140 9.823 0.320
45.4345 9.042 0.307
45.4550 8.365 0.295
45.4754 8.323 0.294
45.4959 8.021 0.289
45.5163 7.656 0.282
45.5368 7.594 0.281
45.5573 7.656 0.282
45.5777 7.948 0.288
45.5982 7.073 0.271
45.6187 6.979 0.270
45.6391 7.094 0.272
45.6596 6.802 0.266
45.6800 6.906 0.268
45.7005 7.198 0.274
45.7210 6.719 0.265
45.7414 6.750 0.265
45.7619 6.990 0.270
45.7824 7.042 0.271
45.8028 6.688 0.264
45.8233 7.104 0.272
45.8438 6.688 0.264
45.8642 7.010 0.270
45.8847 6.823 0.267
45.9051 6.771 0.266
45.9256 7.135 0.273
45.9461 6.677 0.264
45.9665 6.594 0.262
45.9870 6.469 0.260
46.0075 6.760 0.265
46.0279 6.938 0.269
46.0484 6.854 0.267
46.0688 6.698 0.264
46.0893 6.469 0.260
46.1098 6.677 0.264
46.1302 6.729 0.265
46.1507 6.698 0.264
46.1712 7.271 0.275
46.1916 6.563 0.261
46.2121 6.271 0.256
46.2325 6.469 0.260
46.2530 6.208 0.254
46.2735 6.292 0.256
46.2939 6.510 0.260
46.3144 6.479 0.260
46.3349 6.656 0.263
46.3553 6.615 0.262
46.3758 6.688 0.264
46.3962 6.635 0.263
46.4167 7.010 0.270
46.4372 6.427 0.259
46.4576 6.323 0.257
46.4781 7.104 0.272
46.4986 6.896 0.268
46.5190 6.667 0.264
46.5395 7.000 0.270
46.5600 6.927 0.269
46.5804 7.313 0.276
46.6009 7.385 0.277
46.6213 7.125 0.272
46.6418 7.667 0.283
46.6623 6.740 0.265
46.6827 6.750 0.265
46.7032 6.927 0.269
46.7237 7.021 0.270
46.7441 7.156 0.273
46.7646 6.781 0.266
46.7850 6.750 0.265
46.8055 6.510 0.260
46.8260 6.750 0.265
46.8464 6.479 0.260
46.8669 6.177 0.254
46.8874 6.240 0.255
46.9078 6.594 0.262
46.9283 6.635 0.263
46.9487 6.750 0.265
46.9692 6.094 0.252
46.9897 6.604 0.262
47.0101 6.521 0.261
47.0306 5.896 0.248
47.0511 6.375 0.258
47.0715 6.719 0.265
47.0920 6.292 0.256
47.1124 6.875 0.268
47.1329 6.438 0.259
47.1534 6.823 0.267
47.1738 6.281 0.256
47.1943 6.563 0.261
47.2148 6.167 0.253
47.2352 6.719 0.265
47.2557 6.813 0.266
47.2761 6.917 0.268
47.2966 6.500 0.260
47.3171 7.177 0.273
47.3375 7.479 0.279
47.3580 6.969 0.269
47.3785 7.479 0.279
47.3989 7.313 0.276
47.4194 7.281 0.275
47.4399 7.021 0.270
47.4603 6.875 0.268
47.4808 8.229 0.293
47.5012 7.844 0.286
47.5217 8.448 0.297
47.5422 10.229 0.326
47.5626 11.479 0.346
47.5831 12.729 0.364
47.6036 13.313 0.372
47.6240 11.760 0.350
47.6445 10.729 0.334
47.6649 10.438 0.330
47.6854 11.146 0.341
47.7059 11.500 0.346
47.7263 12.125 0.355
47.7468 10.781 0.335
47.7673 9.896 0.321
47.7877 8.688 0.301
47.8082 8.708 0.301
47.8286 8.542 0.298
47.8491 7.698 0.283
47.8696 7.667 0.283
47.8900 7.521 0.280
47.9105 7.948 0.288
47.9310 7.563 0.281
47.9514 7.698 0.283
47.9719 7.302 0.276
47.9923 7.427 0.278
48.0128 7.208 0.274
48.0333 7.354 0.277
48.0537 6.333 0.257
48.0742 7.156 0.273
48.0947 6.938 0.269
48.1151 6.823 0.267
48.1356 7.438 0.278
48.1560 6.740 0.265
48.1765 7.156 0.273
48.1970 7.385 0.277
48.2174 7.438 0.278
48.2379 7.031 0.271
48.2584 7.635 0.282
48.2788 7.656 0.282
48.2993 8.146 0.291
48.3198 8.833 0.303
48.3402 8.042 0.289
48.3607 7.854 0.286
48.3811 8.385 0.296
48.4016 7.875 0.286
48.4221 8.344 0.295
48.4425 8.208 0.292
48.4630 8.031 0.289
48.4835 7.708 0.283
48.5039 7.854 0.286
48.5244 7.521 0.280
48.5448 7.625 0.282
48.5653 7.469 0.279
48.5858 7.073 0.271
48.6062 7.125 0.272
48.6267 7.333 0.276
48.6472 8.344 0.295
48.6676 7.792 0.285
48.6881 8.552 0.298
48.7085 8.667 0.300
48.7290 7.635 0.282
48.7495 8.344 0.295
48.7699 7.417 0.278
48.7904 7.510 0.280
48.8109 7.396 0.278
48.8313 7.906 0.287
48.8518 7.406 0.278
48.8722 7.344 0.277
48.8927 6.771 0.266
48.9132 6.615 0.262
48.9336 6.646 0.263
48.9541 6.698 0.264
48.9746 6.469 0.260
48.9950 6.781 0.266
49.0155 6.979 0.270
49.0359 6.917 0.268
49.0564 6.875 0.268
49.0769 7.208 0.274
49.0973 6.604 0.262
49.1178 7.125 0.272
49.1383 6.698 0.264
49.1587 6.552 0.261
49.1792 6.875 0.268
49.1997 6.365 0.257
49.2201 7.448 0.279
49.2406 6.865 0.267
49.2610 6.906 0.268
49.2815 7.063 0.271
49.3020 6.688 0.264
49.3224 6.927 0.269
49.3429 6.844 0.267
49.3634 6.385 0.258
49.3838 7.240 0.275
49.4043 6.844 0.267
49.4247 6.490 0.260
49.4452 6.771 0.266
49.4657 7.167 0.273
49.4861 7.104 0.272
49.5066 7.271 0.275
49.5271 6.500 0.260
49.5475 7.365 0.277
49.5680 7.448 0.279
49.5884 7.396 0.278
49.6089 6.938 0.269
49.6294 7.948 0.288
49.6498 7.615 0.282
49.6703 7.948 0.288
49.6908 8.135 0.291
49.7112 8.552 0.298
49.7317 9.365 0.312
49.7521 10.469 0.330
49.7726 11.177 0.341
49.7931 13.365 0.373
49.8135 15.208 0.398
49.8340 16.042 0.409
49.8545 16.708 0.417
49.8749 15.313 0.399
49.8954 13.656 0.377
49.9158 12.792 0.365
49.9363 13.010 0.368
49.9568 12.802 0.365
49.9772 13.156 0.370
49.9977 13.281 0.372
50.0182 10.792 0.335
50.0386 9.885 0.321
50.0591 9.281 0.311
50.0796 8.833 0.303
50.1000 8.844 0.304
50.1205 9.135 0.308
50.1409 9.240 0.310
50.1614 10.156 0.325
50.1819 10.531 0.331
50.2023 10.750 0.335
50.2228 9.323 0.312
50.2433 8.917 0.305
50.2637 8.635 0.300
50.2842 8.729 0.302
50.3046 8.885 0.304
50.3251 9.521 0.315
50.3456 8.646 0.300
50.3660 8.333 0.295
50.3865 7.417 0.278
50.4070 7.344 0.277
50.4274 7.052 0.271
50.4479 7.135 0.273
50.4683 6.781 0.266
50.4888 7.344 0.277
50.5093 6.833 0.267
50.5297 6.885 0.268
50.5502 6.802 0.266
50.5707 6.927 0.269
50.5911 6.708 0.264
50.6116 7.500 0.280
50.6320 7.229 0.274
50.6525 7.104 0.272
50.6730 7.229 0.274
50.6934 6.771 0.266
50.7139 7.115 0.272
50.7344 7.323 0.276
50.7548 6.792 0.266
50.7753 7.177 0.273
50.7958 7.427 0.278
50.8162 7.031 0.271
50.8367 7.271 0.275
50.8571 8.146 0.291
50.8776 8.708 0.301
50.8981 9.885 0.321
50.9185 11.750 0.350
50.9390 15.979 0.408
50.9595 21.990 0.479
50.9799 18.604 0.440
51.0004 12.583 0.362
51.0208 9.927 0.322
51.0413 9.990 0.323
51.0618 10.719 0.334
51.0822 13.031 0.368
51.1027 15.031 0.396
51.1232 12.063 0.354
51.1436 8.844 0.304
51.1641 8.479 0.297
51.1845 7.906 0.287
51.2050 8.531 0.298
51.2255 8.146 0.291
51.2459 8.302 0.294
51.2664 8.792 0.303
51.2869 8.458 0.297
51.3073 8.313 0.294
51.3278 7.990 0.288
51.3482 7.313 0.276
51.3687 7.521 0.280
51.3892 7.510 0.280
51.4096 7.469 0.279
51.4301 7.458 0.279
51.4506 6.729 0.265
51.4710 6.938 0.269
51.4915 6.552 0.261
51.5119 6.802 0.266
51.5324 6.635 0.263
51.5529 6.896 0.268
51.5733 7.583 0.281
51.5938 7.271 0.275
51.6143 7.177 0.273
51.6347 7.573 0.281
51.6552 7.833 0.286
51.6757 7.833 0.286
51.6961 7.958 0.288
51.7166 6.750 0.265
51.7370 6.896 0.268
51.7575 7.208 0.274
51.7780 7.135 0.273
51.7984 6.917 0.268
51.8189 6.688 0.264
51.8394 6.594 0.262
51.8598 6.969 0.269
51.8803 6.177 0.254
51.9007 6.344 0.257
51.9212 5.906 0.248
51.9417 6.125 0.253
51.9621 5.719 0.244
51.9826 6.198 0.254
52.0031 6.094 0.252
52.0235 6.396 0.258
52.0440 6.573 0.262
52.0644 6.188 0.254
52.0849 5.813 0.246
52.1054 6.042 0.251
52.1258 5.802 0.246
52.1463 5.510 0.240
52.1668 6.188 0.254
52.1872 5.833 0.247
52.2077 5.885 0.248
52.2281 5.500 0.239
52.2486 5.948 0.249
52.2691 5.688 0.243
52.2895 5.823 0.246
52.3100 5.677 0.243
52.3305 5.948 0.249
52.3509 6.010 0.250
52.3714 6.677 0.264
52.3918 6.448 0.259
52.4123 6.052 0.251
52.4328 6.333 0.257
52.4532 5.875 0.247
52.4737 6.031 0.251
52.4942 6.073 0.252
52.5146 6.146 0.253
52.5351 6.146 0.253
52.5556 6.198 0.254
52.5760 6.208 0.254
52.5965 5.771 0.245
52.6169 5.490 0.239
52.6374 5.542 0.240
52.6579 5.406 0.237
52.6783 5.260 0.234
52.6988 5.354 0.236
52.7193 5.990 0.250
52.7397 4.979 0.228
52.7602 5.750 0.245
52.7806 5.323 0.235
52.8011 5.729 0.244
52.8216 5.604 0.242
52.8420 5.688 0.243
52.8625 6.021 0.250
52.8830 5.833 0.247
52.9034 5.781 0.245
52.9239 5.854 0.247
52.9443 5.938 0.249
52.9648 6.000 0.250
52.9853 6.052 0.251
53.0057 6.313 0.256
53.0262 6.167 0.253
53.0467 6.531 0.261
53.0671 6.115 0.252
53.0876 6.854 0.267
53.1080 6.865 0.267
53.1285 6.365 0.257
53.1490 6.156 0.253
53.1694 6.083 0.252
53.1899 6.052 0.251
53.2104 5.813 0.246
53.2308 6.167 0.253
53.2513 6.333 0.257
53.2717 6.625 0.263
53.2922 6.490 0.260
53.3127 6.594 0.262
53.3331 6.281 0.256
53.3536 6.646 0.263
53.3741 6.667 0.264
53.3945 6.927 0.269
53.4150 7.448 0.279
53.4355 7.167 0.273
53.4559 6.948 0.269
53.4764 7.500 0.280
53.4968 7.323 0.276
53.5173 7.719 0.284
53.5378 7.354 0.277
53.5582 6.875 0.268
53.5787 7.156 0.273
53.5992 7.698 0.283
53.6196 6.542 0.261
53.6401 7.031 0.271
53.6605 6.500 0.260
53.6810 6.458 0.259
53.7015 6.229 0.255
53.7219 5.906 0.248
53.7424 5.781 0.245
53.7629 6.271 0.256
53.7833 5.969 0.249
53.8038 5.781 0.245
53.8242 5.969 0.249
53.8447 5.563 0.241
53.8652 5.875 0.247
53.8856 5.563 0.241
53.9061 5.438 0.238
53.9266 5.135 0.231
53.9470 6.000 0.250
53.9675 5.969 0.249
53.9879 5.719 0.244
54.0084 5.563 0.241
54.0289 5.604 0.242
54.0493 5.938 0.249
54.0698 5.927 0.248
54.0903 6.865 0.267
54.1107 6.500 0.260
54.1312 6.271 0.256
54.1516 6.104 0.252
54.1721 6.156 0.253
54.1926 6.333 0.257
54.2130 5.927 0.248
54.2335 5.635 0.242
54.2540 6.302 0.256
54.2744 6.115 0.252
54.2949 6.177 0.254
54.3154 6.010 0.250
54.3358 5.781 0.245
54.3563 5.615 0.242
54.3767 5.969 0.249
54.3972 6.167 0.253
54.4177 5.667 0.243
54.4381 5.865 0.247
54.4586 5.688 0.243
54.4791 6.104 0.252
54.4995 5.698 0.244
54.5200 6.115 0.252
54.5404 5.750 0.245
54.5609 6.052 0.251
54.5814 5.906 0.248
54.6018 5.979 0.250
54.6223 6.177 0.254
54.6428 6.125 0.253
54.6632 5.438 0.238
54.6837 5.698 0.244
54.7041 6.063 0.251
54.7246 6.052 0.251
54.7451 6.198 0.254
54.7655 5.844 0.247
54.7860 5.500 0.239
54.8065 5.802 0.246
54.8269 5.490 0.239
54.8474 6.010 0.250
54.8678 6.385 0.258
54.8883 6.125 0.253
54.9088 6.125 0.253
54.9292 5.875 0.247
54.9497 6.167 0.253
54.9702 6.531 0.261
54.9906 6.823 0.267
55.0111 6.594 0.262
55.0316 7.146 0.273
55.0520 7.667 0.283
55.0725 8.760 0.302
55.0929 9.865 0.321
55.1134 11.927 0.352
55.1339 14.667 0.391
55.1543 15.990 0.408
55.1748 16.510 0.415
55.1953 14.927 0.394
55.2157 13.760 0.379
55.2362 12.740 0.364
55.2566 12.542 0.361
55.2771 12.760 0.365
55.2976 13.281 0.372
55.3180 12.938 0.367
55.3385 11.281 0.343
55.3590 10.271 0.327
55.3794 8.990 0.306
55.3999 8.531 0.298
55.4203 8.177 0.292
55.4408 7.979 0.288
55.4613 7.208 0.274
55.4817 7.406 0.278
55.5022 7.479 0.279
55.5227 6.760 0.265
55.5431 6.646 0.263
55.5636 7.052 0.271
55.5840 7.354 0.277
55.6045 7.719 0.284
55.6250 8.063 0.290
55.6454 8.448 0.297
55.6659 8.469 0.297
55.6864 8.469 0.297
55.7068 8.594 0.299
55.7273 8.375 0.295
55.7477 7.979 0.288
55.7682 8.323 0.294
55.7887 8.313 0.294
55.8091 8.177 0.292
55.8296 8.521 0.298
55.8501 8.833 0.303
55.8705 8.938 0.305
55.8910 8.146 0.291
55.9115 7.938 0.288
55.9319 7.021 0.270
55.9524 6.781 0.266
55.9728 7.344 0.277
55.9933 6.656 0.263
56.0138 7.698 0.283
56.0342 7.302 0.276
56.0547 7.438 0.278
56.0752 7.302 0.276
56.0956 7.948 0.288
56.1161 9.063 0.307
56.1365 10.115 0.325
56.1570 11.563 0.347
56.1775 12.927 0.367
56.1979 12.844 0.366
56.2184 11.552 0.347
56.2389 10.688 0.334
56.2593 9.948 0.322
56.2798 9.302 0.311
56.3002 9.552 0.315
56.3207 9.635 0.317
56.3412 9.896 0.321
56.3616 9.271 0.311
56.3821 8.427 0.296
56.4026 6.698 0.264
56.4230 6.792 0.266
56.4435 6.729 0.265
56.4639 6.219 0.255
56.4844 6.073 0.252
56.5049 5.844 0.247
56.5253 5.365 0.236
56.5458 5.125 0.231
56.5663 5.313 0.235
56.5867 5.688 0.243
56.6072 5.250 0.234
56.6276 5.281 0.235
56.6481 5.469 0.239
56.6686 5.583 0.241
56.6890 5.885 0.248
56.7095 5.563 0.241
56.7300 5.615 0.242
56.7504 5.146 0.232
56.7709 5.583 0.241
56.7914 5.385 0.237
56.8118 5.542 0.240
56.8323 5.219 0.233
56.8527 5.896 0.248
56.8732 5.979 0.250
56.8937 5.563 0.241
56.9141 4.906 0.226
56.9346 4.906 0.226
56.9551 5.052 0.229
56.9755 5.188 0.232
56.9960 5.042 0.229
57.0164 5.042 0.229
57.0369 5.146 0.232
57.0574 5.146 0.232
57.0778 5.635 0.242
57.0983 4.656 0.220
57.1188 4.969 0.228
57.1392 5.313 0.235
57.1597 5.344 0.236
57.1801 4.885 0.226
57.2006 5.063 0.230
57.2211 4.948 0.227
57.2415 4.781 0.223
57.2620 4.917 0.226
57.2825 5.010 0.228
57.3029 5.073 0.230
57.3234 4.927 0.227
57.3438 4.729 0.222
57.3643 5.510 0.240
57.3848 4.927 0.227
57.4052 5.479 0.239
57.4257 5.010 0.228
57.4462 5.323 0.235
57.4666 5.302 0.235
57.4871 5.302 0.235
57.5075 5.240 0.234
57.5280 5.198 0.233
57.5485 5.729 0.244
57.5689 5.313 0.235
57.5894 5.458 0.238
57.6099 5.281 0.235
57.6303 5.969 0.249
57.6508 5.406 0.237
57.6713 5.781 0.245
57.6917 5.990 0.250
57.7122 5.938 0.249
57.7326 5.854 0.247
57.7531 5.844 0.247
57.7736 6.531 0.261
57.7940 6.771 0.266
57.8145 6.833 0.267
57.8350 7.875 0.286
57.8554 8.333 0.295
57.8759 10.167 0.325
57.8963 9.740 0.319
57.9168 9.781 0.319
57.9373 9.354 0.312
57.9577 7.885 0.287
57.9782 7.958 0.288
57.9987 7.594 0.281
58.0191 8.167 0.292
58.0396 7.490 0.279
58.0600 8.542 0.298
58.0805 7.979 0.288
58.1010 7.042 0.271
58.1214 6.646 0.263
58.1419 6.667 0.264
58.1624 6.365 0.257
58.1828 6.010 0.250
58.2033 5.771 0.245
58.2237 6.260 0.255
58.2442 5.292 0.235
58.2647 5.604 0.242
58.2851 5.354 0.236
58.3056 5.490 0.239
58.3261 5.323 0.235
58.3465 5.406 0.237
58.3670 5.365 0.236
58.3874 5.479 0.239
58.4079 5.823 0.246
58.4284 5.771 0.245
58.4488 5.771 0.245
58.4693 5.813 0.246
58.4898 5.583 0.241
58.5102 5.802 0.246
58.5307 5.865 0.247
58.5512 5.458 0.238
58.5716 5.031 0.229
58.5921 5.708 0.244
58.6125 5.365 0.236
58.6330 5.323 0.235
58.6535 5.854 0.247
58.6739 5.031 0.229
58.6944 5.417 0.238
58.7149 5.344 0.236
58.7353 5.448 0.238
58.7558 5.573 0.241
58.7762 5.906 0.248
58.7967 5.365 0.236
58.8172 5.969 0.249
58.8376 6.167 0.253
58.8581 5.573 0.241
58.8786 5.552 0.240
58.8990 5.792 0.246
58.9195 6.146 0.253
58.9399 5.771 0.245
58.9604 5.760 0.245
58.9809 6.094 0.252
59.0013 6.302 0.256
59.0218 6.458 0.259
59.0423 6.094 0.252
59.0627 6.125 0.253
59.0832 6.688 0.264
59.1036 6.719 0.265
59.1241 6.885 0.268
59.1446 7.365 0.277
59.1650 8.625 0.300
59.1855 8.667 0.300
59.2060 8.615 0.300
59.2264 8.167 0.292
59.2469 7.573 0.281
59.2674 7.323 0.276
59.2878 6.885 0.268
59.3083 7.073 0.271
59.3287 6.719 0.265
59.3492 7.146 0.273
59.3697 7.063 0.271
59.3901 6.344 0.257
59.4106 6.510 0.260
59.4311 5.813 0.246
59.4515 5.667 0.243
59.4720 5.656 0.243
59.4924 5.323 0.235
59.5129 5.333 0.236
59.5334 5.625 0.242
59.5538 5.688 0.243
59.5743 5.958 0.249
59.5948 5.385 0.237
59.6152 4.844 0.225
59.6357 5.313 0.235
59.6561 5.240 0.234
59.6766 5.729 0.244
59.6971 5.646 0.243
59.7175 6.052 0.251
59.7380 5.854 0.247
59.7585 6.417 0.259
59.7789 5.771 0.245
59.7994 6.406 0.258
59.8198 7.438 0.278
59.8403 8.177 0.292
59.8608 9.000 0.306
59.8812 8.500 0.298
59.9017 8.292 0.294
59.9222 7.656 0.282
59.9426 7.115 0.272
59.9631 7.021 0.270
59.9835 6.948 0.269
60.0040 7.135 0.273
60.0245 7.292 0.276
60.0449 7.198 0.274
60.0654 6.667 0.264
60.0859 6.375 0.258
60.1063 6.135 0.253
60.1268 6.104 0.252
60.1473 5.583 0.241
60.1677 5.802 0.246
60.1882 5.083 0.230
60.2086 5.021 0.229
60.2291 5.354 0.236
60.2496 5.156 0.232
60.2700 5.083 0.230
60.2905 4.875 0.225
60.3110 4.667 0.220
60.3314 4.500 0.217
60.3519 4.875 0.225
60.3723 4.833 0.224
60.3928 4.875 0.225
60.4133 5.125 0.231
60.4337 4.938 0.227
60.4542 4.573 0.218
60.4747 4.594 0.219
60.4951 4.896 0.226
60.5156 5.292 0.235
60.5360 4.938 0.227
60.5565 4.677 0.221
60.5770 5.031 0.229
60.5974 4.990 0.228
60.6179 4.719 0.222
60.6384 5.010 0.228
60.6588 4.990 0.228
60.6793 5.125 0.231
60.6997 4.448 0.215
60.7202 4.781 0.223
60.7407 4.760 0.223
60.7611 5.448 0.238
60.7816 4.854 0.225
60.8021 5.406 0.237
60.8225 5.500 0.239
60.8430 5.125 0.231
60.8634 5.021 0.229
60.8839 4.938 0.227
60.9044 5.313 0.235
60.9248 4.885 0.226
60.9453 5.385 0.237
60.9658 5.323 0.235
60.9862 4.479 0.216
61.0067 4.802 0.224
61.0272 4.969 0.228
61.0476 4.865 0.225
61.0681 5.177 0.232
61.0885 4.885 0.226
61.1090 5.188 0.232
61.1295 4.917 0.226
61.1499 5.167 0.232
61.1704 4.792 0.223
61.1909 4.677 0.221
61.2113 4.510 0.217
61.2318 4.615 0.219
61.2522 4.573 0.218
61.2727 4.396 0.214
61.2932 4.385 0.214
61.3136 5.094 0.230
61.3341 4.792 0.223
61.3546 4.500 0.217
61.3750 4.885 0.226
61.3955 4.625 0.219
61.4159 4.573 0.218
61.4364 4.531 0.217
61.4569 4.844 0.225
61.4773 4.625 0.219
61.4978 4.667 0.220
61.5183 4.906 0.226
61.5387 4.531 0.217
61.5592 4.719 0.222
61.5796 4.500 0.217
61.6001 4.896 0.226
61.6206 4.396 0.214
61.6410 4.844 0.225
61.6615 4.646 0.220
61.6820 4.500 0.217
61.7024 4.688 0.221
61.7229 4.896 0.226
61.7433 4.750 0.222
61.7638 4.531 0.217
61.7843 4.656 0.220
61.8047 4.479 0.216
61.8252 4.917 0.226
61.8457 4.792 0.223
61.8661 4.594 0.219
61.8866 4.583 0.219
61.9071 4.615 0.219
61.9275 4.802 0.224
61.9480 4.740 0.222
61.9684 4.563 0.218
61.9889 4.688 0.221
62.0094 4.792 0.223
62.0298 5.146 0.232
62.0503 5.052 0.229
62.0708 5.490 0.239
62.0912 5.844 0.247
62.1117 6.260 0.255
62.1321 6.031 0.251
62.1526 6.333 0.257
62.1731 6.240 0.255
62.1935 5.927 0.248
62.2140 5.573 0.241
62.2345 5.135 0.231
62.2549 5.708 0.244
62.2754 5.729 0.244
62.2958 5.615 0.242
62.3163 5.667 0.243
62.3368 5.333 0.236
62.3572 5.073 0.230
62.3777 4.833 0.224
62.3982 5.010 0.228
62.4186 4.542 0.218
62.4391 4.646 0.220
62.4595 4.927 0.227
62.4800 4.708 0.221
62.5005 4.688 0.221
62.5209 4.708 0.221
62.5414 4.760 0.223
62.5619 4.354 0.213
62.5823 4.750 0.222
62.6028 4.635 0.220
62.6232 4.813 0.224
62.6437 4.990 0.228
62.6642 4.385 0.214
62.6846 4.417 0.214
62.7051 4.969 0.228
62.7256 4.135 0.208
62.7460 4.469 0.216
62.7665 4.833 0.224
62.7870 4.573 0.218
62.8074 4.719 0.222
62.8279 4.875 0.225
62.8483 4.740 0.222
62.8688 4.677 0.221
62.8893 4.677 0.221
62.9097 4.802 0.224
62.9302 4.667 0.220
62.9507 4.563 0.218
62.9711 4.729 0.222
62.9916 4.479 0.216
63.0120 5.229 0.233
63.0325 4.615 0.219
63.0530 4.542 0.218
63.0734 4.938 0.227
63.0939 5.063 0.230
63.1144 4.750 0.222
63.1348 4.802 0.224
63.1553 4.281 0.211
63.1757 4.438 0.215
63.1962 4.667 0.220
63.2167 5.260 0.234
63.2371 4.594 0.219
63.2576 4.615 0.219
63.2781 4.500 0.217
63.2985 4.958 0.227
63.3190 4.833 0.224
63.3394 4.771 0.223
63.3599 4.625 0.219
63.3804 4.844 0.225
63.4008 4.948 0.227
63.4213 5.083 0.230
63.4418 4.833 0.224
63.4622 4.927 0.227
63.4827 4.396 0.214
63.5032 4.750 0.222
63.5236 5.146 0.232
63.5441 4.896 0.226
63.5645 5.302 0.235
63.5850 5.250 0.234
63.6055 5.010 0.228
63.6259 5.260 0.234
63.6464 5.573 0.241
63.6669 5.385 0.237
63.6873 5.302 0.235
63.7078 5.302 0.235
63.7282 5.396 0.237
63.7487 5.333 0.236
63.7692 4.917 0.226
63.7896 5.021 0.229
63.8101 5.792 0.246
63.8306 4.990 0.228
63.8510 5.146 0.232
63.8715 4.969 0.228
63.8919 5.083 0.230
63.9124 5.396 0.237
63.9329 5.938 0.249
63.9533 6.188 0.254
63.9738 5.625 0.242
63.9943 5.813 0.246
64.0147 6.073 0.252
64.0352 6.021 0.250
64.0556 5.990 0.250
64.0761 5.708 0.244
64.0966 5.510 0.240
64.1170 5.177 0.232
64.1375 5.021 0.229
64.1580 5.781 0.245
64.1784 5.885 0.248
64.1989 5.542 0.240
64.2193 5.583 0.241
64.2398 5.510 0.240
64.2603 5.208 0.233
64.2807 5.896 0.248
64.3012 5.010 0.228
64.3217 5.719 0.244
64.3421 5.573 0.241
64.3626 5.958 0.249
64.3831 5.417 0.238
64.4035 5.188 0.232
64.4240 5.677 0.243
64.4444 5.479 0.239
64.4649 6.219 0.255
64.4854 5.698 0.244
64.5058 6.271 0.256
64.5263 6.750 0.265
64.5468 6.708 0.264
64.5672 7.292 0.276
64.5877 7.885 0.287
64.6081 8.302 0.294
64.6286 8.677 0.301
64.6491 8.146 0.291
64.6695 8.135 0.291
64.6900 7.688 0.283
64.7105 7.250 0.275
64.7309 6.854 0.267
64.7514 7.010 0.270
64.7718 7.365 0.277
64.7923 7.813 0.285
64.8128 7.708 0.283
64.8332 7.281 0.275
64.8537 6.875 0.268
64.8742 6.448 0.259
64.8946 6.646 0.263
64.9151 5.375 0.237
64.9355 5.594 0.241
64.9560 5.427 0.238
64.9765 5.000 0.228
64.9969 5.635 0.242
65.0174 5.281 0.235
65.0379 5.292 0.235
65.0583 4.917 0.226
65.0788 5.156 0.232
65.0992 5.208 0.233
65.1197 4.854 0.225
65.1402 4.594 0.219
65.1606 4.573 0.218
65.1811 4.385 0.214
65.2016 4.771 0.223
65.2220 4.979 0.228
65.2425 4.490 0.216
65.2630 4.979 0.228
65.2834 4.927 0.227
65.3039 4.729 0.222
65.3243 5.240 0.234
65.3448 4.823 0.224
65.3653 5.031 0.229
65.3857 4.938 0.227
65.4062 5.427 0.238
65.4267 4.781 0.223
65.4471 5.031 0.229
65.4676 5.115 0.231
65.4880 5.094 0.230
65.5085 5.833 0.247
65.5290 5.885 0.248
65.5494 6.177 0.254
65.5699 5.948 0.249
65.5904 6.063 0.251
65.6108 5.813 0.246
65.6313 5.354 0.236
65.6517 5.563 0.241
65.6722 4.969 0.228
65.6927 5.083 0.230
65.7131 5.563 0.241
65.7336 5.094 0.230
65.7541 5.458 0.238
65.7745 5.260 0.234
65.7950 5.333 0.236
65.8154 5.250 0.234
65.8359 4.885 0.226
65.8564 4.833 0.224
65.8768 5.021 0.229
65.8973 4.521 0.217
65.9178 4.531 0.217
65.9382 4.542 0.218
65.9587 4.563 0.218
65.9791 4.583 0.219
65.9996 4.594 0.219
66.0201 4.500 0.217
66.0405 4.531 0.217
66.0610 4.073 0.206
66.0815 4.677 0.221
66.1019 4.240 0.210
66.1224 4.573 0.218
66.1429 4.583 0.219
66.1633 4.198 0.209
66.1838 4.604 0.219
66.2042 4.438 0.215
66.2247 4.094 0.207
66.2452 4.438 0.215
66.2656 4.448 0.215
66.2861 4.396 0.214
66.3066 4.271 0.211
66.3270 4.104 0.207
66.3475 4.615 0.219
66.3679 4.698 0.221
66.3884 4.500 0.217
66.4089 4.229 0.210
66.4293 4.531 0.217
66.4498 4.667 0.220
66.4703 4.719 0.222
66.4907 4.604 0.219
66.5112 4.271 0.211
66.5316 4.490 0.216
66.5521 4.333 0.212
66.5726 4.302 0.212
66.5930 4.479 0.216
66.6135 4.063 0.206
66.6340 4.073 0.206
66.6544 4.490 0.216
66.6749 4.448 0.215
66.6953 4.490 0.216
66.7158 4.375 0.213
66.7363 4.583 0.219
66.7567 4.552 0.218
66.7772 4.708 0.221
66.7977 4.458 0.216
66.8181 4.500 0.217
66.8386 4.760 0.223
66.8590 5.260 0.234
66.8795 4.552 0.218
66.9000 4.896 0.226
66.9204 5.208 0.233
66.9409 5.240 0.234
66.9614 5.115 0.231
66.9818 5.073 0.230
67.0023 5.552 0.240
67.0228 5.938 0.249
67.0432 5.719 0.244
67.0637 6.500 0.260
67.0841 7.177 0.273
67.1046 8.375 0.295
67.1251 8.833 0.303
67.1455 8.979 0.306
67.1660 8.542 0.298
67.1865 8.385 0.296
67.2069 7.063 0.271
67.2274 6.552 0.261
67.2478 6.781 0.266
67.2683 7.208 0.274
67.2888 6.667 0.264
67.3092 7.281 0.275
67.3297 7.302 0.276
67.3502 7.208 0.274
67.3706 6.698 0.264
67.3911 6.271 0.256
67.4115 5.583 0.241
67.4320 5.906 0.248
67.4525 5.510 0.240
67.4729 5.260 0.234
67.4934 4.969 0.228
67.5139 5.583 0.241
67.5343 5.260 0.234
67.5548 5.042 0.229
67.5752 4.875 0.225
67.5957 4.958 0.227
67.6162 5.031 0.229
67.6366 4.958 0.227
67.6571 5.115 0.231
67.6776 4.531 0.217
67.6980 4.896 0.226
67.7185 4.927 0.227
67.7389 4.865 0.225
67.7594 4.833 0.224
67.7799 5.604 0.242
67.8003 5.802 0.246
67.8208 5.115 0.231
67.8413 4.969 0.228
67.8617 5.635 0.242
67.8822 5.156 0.232
67.9027 5.656 0.243
67.9231 5.417 0.238
67.9436 5.083 0.230
67.9640 5.385 0.237
67.9845 5.323 0.235
68.0050 5.188 0.232
68.0254 5.438 0.238
68.0459 5.531 0.240
68.0664 5.229 0.233
68.0868 5.406 0.237
68.1073 5.063 0.230
68.1277 4.885 0.226
68.1482 4.677 0.221
68.1687 4.885 0.226
68.1891 5.208 0.233
68.2096 5.063 0.230
68.2301 5.417 0.238
68.2505 5.104 0.231
68.2710 5.198 0.233
68.2914 5.813 0.246
68.3119 6.094 0.252
68.3324 6.385 0.258
68.3528 6.302 0.256
68.3733 5.438 0.238
68.3938 5.938 0.249
68.4142 5.302 0.235
68.4347 5.042 0.229
68.4551 4.760 0.223
68.4756 5.313 0.235
68.4961 5.021 0.229
68.5165 5.417 0.238
68.5370 5.250 0.234
68.5575 4.760 0.223
68.5779 4.813 0.224
68.5984 5.240 0.234
68.6189 4.448 0.215
68.6393 4.740 0.222
68.6598 4.677 0.221
68.6802 4.688 0.221
68.7007 4.396 0.214
68.7212 4.656 0.220
68.7416 4.448 0.215
68.7621 4.177 0.209
68.7826 4.146 0.208
68.8030 4.417 0.214
68.8235 4.500 0.217
68.8439 4.594 0.219
68.8644 4.896 0.226
68.8849 5.448 0.238
68.9053 5.396 0.237
68.9258 5.448 0.238
68.9463 5.594 0.241
68.9667 5.344 0.236
68.9872 5.677 0.243
69.0076 6.365 0.257
69.0281 5.583 0.241
69.0486 5.021 0.229
69.0690 5.344 0.236
69.0895 5.083 0.230
69.1100 4.979 0.228
69.1304 5.406 0.237
69.1509 4.969 0.228
69.1713 5.656 0.243
69.1918 5.385 0.237
69.2123 6.010 0.250
69.2327 5.500 0.239
69.2532 4.958 0.227
69.2737 5.573 0.241
69.2941 5.167 0.232
69.3146 5.125 0.231
69.3350 4.552 0.218
69.3555 4.927 0.227
69.3760 4.292 0.211
69.3964 5.281 0.235
69.4169 4.479 0.216
69.4374 4.781 0.223
69.4578 5.063 0.230
69.4783 4.896 0.226
69.4988 4.792 0.223
69.5192 4.250 0.210
69.5397 4.250 0.210
69.5601 4.063 0.206
69.5806 4.094 0.207
69.6011 4.208 0.209
69.6215 4.385 0.214
69.6420 4.313 0.212
69.6625 4.135 0.208
69.6829 4.135 0.208
69.7034 4.104 0.207
69.7238 4.448 0.215
69.7443 4.740 0.222
69.7648 4.240 0.210
69.7852 4.438 0.215
69.8057 4.271 0.211
69.8262 4.729 0.222
69.8466 4.313 0.212
69.8671 4.458 0.216
69.8875 4.594 0.219
69.9080 4.458 0.216
69.9285 4.302 0.212
69.9489 4.260 0.211
69.9694 4.604 0.219
69.9899 4.146 0.208
70.0103 4.052 0.205
70.0308 4.052 0.205
70.0512 4.229 0.210
70.0717 4.615 0.219
70.0922 4.479 0.216
70.1126 4.521 0.217
70.1331 4.073 0.206
70.1536 4.406 0.214
70.1740 4.135 0.208
70.1945 4.219 0.210
70.2149 4.240 0.210
70.2354 4.167 0.208
70.2559 3.979 0.204
70.2763 4.167 0.208
70.2968 4.083 0.206
70.3173 4.542 0.218
70.3377 4.438 0.215
70.3582 4.365 0.213
70.3787 4.323 0.212
70.3991 3.958 0.203
70.4196 4.042 0.205
70.4400 3.688 0.196
70.4605 4.344 0.213
70.4810 4.354 0.213
70.5014 4.115 0.207
70.5219 4.583 0.219
70.5424 3.990 0.204
70.5628 4.229 0.210
70.5833 4.052 0.205
70.6037 4.010 0.204
70.6242 4.396 0.214
70.6447 4.167 0.208
70.6651 4.167 0.208
70.6856 4.135 0.208
70.7061 4.219 0.210
70.7265 4.135 0.208
70.7470 4.135 0.208
70.7674 4.135 0.208
70.7879 3.865 0.201
70.8084 3.896 0.201
70.8288 4.010 0.204
70.8493 4.073 0.206
70.8698 4.208 0.209
70.8902 4.115 0.207
70.9107 4.260 0.211
70.9311 3.792 0.199
70.9516 4.292 0.211
70.9721 4.385 0.214
70.9925 3.958 0.203
71.0130 4.094 0.207
71.0335 4.250 0.210
71.0539 4.448 0.215
71.0744 4.208 0.209
71.0948 4.292 0.211
71.1153 4.271 0.211
71.1358 4.521 0.217
71.1562 4.063 0.206
71.1767 3.979 0.204
71.1972 4.010 0.204
71.2176 4.021 0.205
71.2381 3.948 0.203
71.2586 3.969 0.203
71.2790 4.208 0.209
71.2995 3.875 0.201
71.3199 3.969 0.203
71.3404 4.115 0.207
71.3609 4.104 0.207
71.3813 4.167 0.208
71.4018 4.156 0.208
71.4223 4.167 0.208
71.4427 3.969 0.203
71.4632 3.729 0.197
71.4836 3.781 0.198
71.5041 4.375 0.213
71.5246 4.167 0.208
71.5450 3.938 0.203
71.5655 3.573 0.193
71.5860 4.073 0.206
71.6064 4.510 0.217
71.6269 4.365 0.213
71.6473 4.302 0.212
71.6678 4.208 0.209
71.6883 4.510 0.217
71.7087 4.563 0.218
71.7292 4.406 0.214
71.7497 4.396 0.214
71.7701 4.365 0.213
71.7906 3.646 0.195
71.8110 4.458 0.216
71.8315 4.323 0.212
71.8520 3.927 0.202
71.8724 4.281 0.211
71.8929 4.104 0.207
71.9134 4.313 0.212
71.9338 4.063 0.206
71.9543 4.073 0.206
71.9747 3.969 0.203
71.9952 4.115 0.207
72.0157 3.938 0.203
72.0361 3.865 0.201
72.0566 3.990 0.204
72.0771 4.063 0.206
72.0975 3.656 0.195
72.1180 3.979 0.204
72.1385 3.854 0.200
72.1589 3.771 0.198
72.1794 4.115 0.207
72.1998 3.906 0.202
72.2203 4.240 0.210
72.2408 3.875 0.201
72.2612 3.708 0.197
72.2817 3.865 0.201
72.3022 4.167 0.208
72.3226 3.708 0.197
72.3431 3.813 0.199
72.3635 3.906 0.202
72.3840 3.677 0.196
72.4045 4.031 0.205
72.4249 3.823 0.200
72.4454 3.708 0.197
72.4659 3.635 0.195
72.4863 3.885 0.201
72.5068 3.979 0.204
72.5272 3.990 0.204
72.5477 3.583 0.193
72.5682 4.219 0.210
72.5886 4.135 0.208
72.6091 3.813 0.199
72.6296 3.708 0.197
72.6500 3.854 0.200
72.6705 4.240 0.210
72.6909 3.885 0.201
72.7114 4.083 0.206
72.7319 4.438 0.215
72.7523 4.104 0.207
72.7728 4.354 0.213
72.7933 4.115 0.207
72.8137 4.469 0.216
72.8342 4.635 0.220
72.8547 4.594 0.219
72.8751 4.063 0.206
72.8956 4.792 0.223
72.9160 4.302 0.212
72.9365 4.115 0.207
72.9570 3.896 0.201
72.9774 3.969 0.203
72.9979 4.104 0.207
73.0184 4.250 0.210
73.0388 4.365 0.213
73.0593 3.740 0.197
73.0797 3.729 0.197
73.1002 4.281 0.211
73.1207 3.906 0.202
73.1411 3.958 0.203
73.1616 3.833 0.200
73.1821 3.885 0.201
73.2025 3.656 0.195
73.2230 3.646 0.195
73.2434 3.365 0.187
73.2639 3.500 0.191
73.2844 3.500 0.191
73.3048 3.542 0.192
73.3253 3.594 0.193
73.3458 3.396 0.188
73.3662 3.698 0.196
73.3867 3.813 0.199
73.4071 3.781 0.198
73.4276 3.646 0.195
73.4481 4.125 0.207
73.4685 3.552 0.192
73.4890 3.521 0.192
73.5095 3.479 0.190
73.5299 3.823 0.200
73.5504 3.260 0.184
73.5708 3.521 0.192
73.5913 3.542 0.192
73.6118 3.281 0.185
73.6322 3.813 0.199
73.6527 3.521 0.192
73.6732 3.760 0.198
73.6936 3.677 0.196
73.7141 3.490 0.191
73.7346 3.938 0.203
73.7550 3.375 0.188
73.7755 3.708 0.197
73.7959 3.740 0.197
73.8164 3.948 0.203
73.8369 3.760 0.198
73.8573 3.573 0.193
73.8778 3.688 0.196
73.8983 3.208 0.183
73.9187 3.500 0.191
73.9392 3.760 0.198
73.9596 3.573 0.193
73.9801 3.688 0.196
74.0006 4.031 0.205
74.0210 4.042 0.205
74.0415 3.844 0.200
74.0620 4.115 0.207
74.0824 3.760 0.198
74.1029 4.177 0.209
74.1233 3.656 0.195
74.1438 3.625 0.194
74.1643 3.906 0.202
74.1847 3.760 0.198
74.2052 4.250 0.210
74.2257 3.552 0.192
74.2461 3.750 0.198
74.2666 3.958 0.203
74.2870 4.229 0.210
74.3075 3.573 0.193
74.3280 3.656 0.195
74.3484 3.677 0.196
74.3689 3.729 0.197
74.3894 3.490 0.191
74.4098 3.635 0.195
74.4303 4.000 0.204
74.4507 4.073 0.206
74.4712 3.750 0.198
74.4917 3.490 0.191
74.5121 3.552 0.192
74.5326 3.823 0.200
74.5531 3.656 0.195
74.5735 3.615 0.194
74.5940 3.677 0.196
74.6145 3.406 0.188
74.6349 3.677 0.196
74.6554 3.885 0.201
74.6758 3.656 0.195
74.6963 3.542 0.192
74.7168 3.531 0.192
74.7372 3.354 0.187
74.7577 3.708 0.197
74.7782 3.646 0.195
74.7986 3.792 0.199
74.8191 3.510 0.191
74.8395 3.865 0.201
74.8600 3.635 0.195
74.8805 3.458 0.190
74.9009 3.688 0.196
74.9214 3.250 0.184
74.9419 3.260 0.184
74.9623 4.063 0.206
74.9828 3.917 0.202
75.0032 3.677 0.196
75.0237 3.500 0.191
75.0442 3.677 0.196
75.0646 3.771 0.198
75.0851 3.625 0.194
75.1056 3.448 0.190
75.1260 3.823 0.200
75.1465 3.292 0.185
75.1669 3.583 0.193
75.1874 3.802 0.199
75.2079 3.583 0.193
75.2283 3.844 0.200
75.2488 3.604 0.194
75.2693 3.865 0.201
75.2897 3.490 0.191
75.3102 3.677 0.196
75.3306 3.917 0.202
75.3511 3.552 0.192
75.3716 3.604 0.194
75.3920 3.760 0.198
75.4125 3.615 0.194
75.4330 3.479 0.190
75.4534 3.156 0.181
75.4739 3.688 0.196
75.4944 3.635 0.195
75.5148 3.917 0.202
75.5353 3.927 0.202
75.5557 3.677 0.196
75.5762 3.729 0.197
75.5967 4.198 0.209
75.6171 3.938 0.203
75.6376 3.833 0.200
75.6581 4.219 0.210
75.6785 4.240 0.210
75.6990 3.969 0.203
75.7194 4.510 0.217
75.7399 4.698 0.221
75.7604 5.073 0.230
75.7808 5.594 0.241
75.8013 5.188 0.232
75.8218 5.115 0.231
75.8422 4.792 0.223
75.8627 4.854 0.225
75.8831 4.458 0.216
75.9036 4.479 0.216
75.9241 4.708 0.221
75.9445 4.792 0.223
75.9650 4.677 0.221
75.9855 4.677 0.221
76.0059 4.865 0.225
76.0264 4.521 0.217
76.0468 4.531 0.217
76.0673 4.156 0.208
76.0878 4.042 0.205
76.1082 4.125 0.207
76.1287 4.198 0.209
76.1492 4.177 0.209
76.1696 3.917 0.202
76.1901 3.979 0.204
76.2105 3.969 0.203
76.2310 3.625 0.194
76.2515 3.510 0.191
76.2719 3.833 0.200
76.2924 4.052 0.205
76.3129 3.688 0.196
76.3333 3.708 0.197
76.3538 3.688 0.196
76.3743 4.104 0.207
76.3947 4.063 0.206
76.4152 3.531 0.192
76.4356 3.760 0.198
76.4561 3.438 0.189
76.4766 3.438 0.189
76.4970 3.458 0.190
76.5175 3.615 0.194
76.5380 3.938 0.203
76.5584 3.823 0.200
76.5789 3.427 0.189
76.5993 3.823 0.200
76.6198 3.271 0.185
76.6403 4.052 0.205
76.6607 3.542 0.192
76.6812 3.948 0.203
76.7017 3.469 0.190
76.7221 3.531 0.192
76.7426 3.885 0.201
76.7630 3.344 0.187
76.7835 3.198 0.183
76.8040 3.708 0.197
76.8244 3.604 0.194
76.8449 3.281 0.185
76.8654 3.417 0.189
76.8858 3.865 0.201
76.9063 3.823 0.200
76.9267 3.281 0.185
76.9472 3.552 0.192
76.9677 3.854 0.200
76.9881 3.833 0.200
77.0086 3.708 0.197
77.0291 3.281 0.185
77.0495 3.063 0.179
77.0700 3.344 0.187
77.0905 3.448 0.190
77.1109 3.552 0.192
77.1314 3.615 0.194
77.1518 3.500 0.191
77.1723 3.563 0.193
77.1928 3.792 0.199
77.2132 3.510 0.191
77.2337 3.448 0.190
77.2542 3.510 0.191
77.2746 3.813 0.199
77.2951 3.438 0.189
77.3155 3.375 0.188
77.3360 3.313 0.186
77.3565 3.948 0.203
77.3769 3.844 0.200
77.3974 3.865 0.201
77.4179 4.010 0.204
77.4383 3.823 0.200
77.4588 4.292 0.211
77.4792 4.240 0.210
77.4997 3.865 0.201
77.5202 4.042 0.205
77.5406 4.448 0.215
77.5611 4.104 0.207
77.5816 4.438 0.215
77.6020 4.260 0.211
77.6225 3.979 0.204
77.6429 4.313 0.212
77.6634 4.083 0.206
77.6839 3.813 0.199
77.7043 3.656 0.195
77.7248 4.365 0.213
77.7453 4.354 0.213
77.7657 4.031 0.205
77.7862 4.490 0.216
77.8066 4.323 0.212
77.8271 4.427 0.215
77.8476 4.167 0.208
77.8680 4.000 0.204
77.8885 4.260 0.211
77.9090 3.844 0.200
77.9294 3.823 0.200
77.9499 4.125 0.207
77.9704 3.833 0.200
77.9908 4.198 0.209
78.0113 4.042 0.205
78.0317 4.073 0.206
78.0522 3.646 0.195
78.0727 4.125 0.207
78.0931 3.708 0.197
78.1136 3.708 0.197
78.1341 3.740 0.197
78.1545 3.698 0.196
78.1750 3.677 0.196
78.1954 4.260 0.211
78.2159 3.635 0.195
78.2364 3.688 0.196
78.2568 3.552 0.192
78.2773 3.708 0.197
78.2978 3.792 0.199
78.3182 3.833 0.200
78.3387 3.708 0.197
78.3591 3.531 0.192
78.3796 3.875 0.201
78.4001 4.427 0.215
78.4205 3.729 0.197
78.4410 3.833 0.200
78.4615 3.677 0.196
78.4819 4.208 0.209
78.5024 4.063 0.206
78.5228 3.708 0.197
78.5433 3.938 0.203
78.5638 3.604 0.194
78.5842 3.677 0.196
78.6047 4.177 0.209
78.6252 4.365 0.213
78.6456 4.135 0.208
78.6661 3.719 0.197
78.6865 3.823 0.200
78.7070 3.719 0.197
78.7275 3.813 0.199
78.7479 3.438 0.189
78.7684 3.729 0.197
78.7889 3.833 0.200
78.8093 3.646 0.195
78.8298 3.771 0.198
78.8503 3.656 0.195
78.8707 3.990 0.204
78.8912 3.656 0.195
78.9116 3.656 0.195
78.9321 3.656 0.195
78.9526 3.760 0.198
78.9730 3.979 0.204
78.9935 3.771 0.198
79.0140 3.885 0.201
79.0344 3.646 0.195
79.0549 3.865 0.201
79.0753 3.844 0.200
79.0958 3.833 0.200
79.1163 3.771 0.198
79.1367 3.708 0.197
79.1572 3.646 0.195
79.1777 3.656 0.195
79.1981 3.781 0.198
79.2186 3.906 0.202
79.2390 3.563 0.193
79.2595 3.740 0.197
79.2800 3.667 0.195
79.3004 3.406 0.188
79.3209 3.698 0.196
79.3414 3.760 0.198
79.3618 3.479 0.190
79.3823 3.802 0.199
79.4027 3.698 0.196
79.4232 3.646 0.195
79.4437 3.896 0.201
79.4641 4.094 0.207
79.4846 4.115 0.207
79.5051 4.385 0.214
79.5255 4.417 0.214
79.5460 4.594 0.219
79.5664 4.438 0.215
79.5869 4.406 0.214
79.6074 4.219 0.210
79.6278 3.875 0.201
79.6483 3.583 0.193
79.6688 3.792 0.199
79.6892 3.740 0.197
79.7097 3.948 0.203
79.7302 3.708 0.197
79.7506 4.010 0.204
79.7711 3.906 0.202
79.7915 3.719 0.197
79.8120 3.542 0.192
79.8325 3.823 0.200
79.8529 3.625 0.194
79.8734 3.385 0.188
79.8939 4.021 0.205
79.9143 3.573 0.193
79.9348 3.667 0.195
79.9552 3.594 0.193
79.9757 3.406 0.188
79.9962 3.729 0.197
