'Id: "" Comment: "" Operator: "Lab Manager" Anode: "Cu" Scantype: "Locked Coupled" TimePerStep: "96" X: "0" Y: "0" Z: "0" 
5.0000 24.604 0.506
5.0205 25.083 0.511
5.0409 24.896 0.509
5.0614 24.521 0.505
5.0819 24.646 0.507
5.1023 24.865 0.509
5.1228 24.479 0.505
5.1432 24.719 0.507
5.1637 25.219 0.513
5.1842 24.271 0.503
5.2046 24.656 0.507
5.2251 24.813 0.508
5.2456 24.385 0.504
5.2660 24.260 0.503
5.2865 23.365 0.493
5.3069 23.677 0.497
5.3274 23.260 0.492
5.3479 23.760 0.497
5.3683 23.990 0.500
5.3888 24.344 0.504
5.4093 24.115 0.501
5.4297 23.385 0.494
5.4502 22.708 0.486
5.4706 23.542 0.495
5.4911 23.448 0.494
5.5116 24.281 0.503
5.5320 23.135 0.491
5.5525 23.135 0.491
5.5730 22.948 0.489
5.5934 23.167 0.491
5.6139 22.969 0.489
5.6343 23.521 0.495
5.6548 22.115 0.480
5.6753 22.313 0.482
5.6957 22.813 0.487
5.7162 22.792 0.487
5.7367 22.094 0.480
5.7571 22.406 0.483
5.7776 22.438 0.483
5.7980 22.927 0.489
5.8185 22.792 0.487
5.8390 21.865 0.477
5.8594 21.271 0.471
5.8799 23.406 0.494
5.9004 21.969 0.478
5.9208 22.094 0.480
5.9413 21.854 0.477
5.9618 22.094 0.480
5.9822 22.479 0.484
6.0027 22.448 0.484
6.0231 22.219 0.481
6.0436 21.938 0.478
6.0641 21.979 0.478
6.0845 22.021 0.479
6.1050 22.802 0.487
6.1255 21.740 0.476
6.1459 21.542 0.474
6.1664 22.604 0.485
6.1868 22.198 0.481
6.2073 21.781 0.476
6.2278 22.156 0.480
6.2482 22.188 0.481
6.2687 22.281 0.482
6.2892 21.771 0.476
6.3096 22.063 0.479
6.3301 22.802 0.487
6.3505 21.865 0.477
6.3710 22.344 0.482
6.3915 22.250 0.481
6.4119 22.792 0.487
6.4324 22.052 0.479
6.4529 22.125 0.480
6.4733 22.021 0.479
6.4938 21.135 0.469
6.5142 22.271 0.482
6.5347 22.104 0.480
6.5552 20.792 0.465
6.5756 21.583 0.474
6.5961 22.094 0.480
6.6166 22.031 0.479
6.6370 22.146 0.480
6.6575 22.667 0.486
6.6779 23.229 0.492
6.6984 21.625 0.475
6.7189 22.615 0.485
6.7393 22.406 0.483
6.7598 23.542 0.495
6.7803 24.115 0.501
6.8007 23.969 0.500
6.8212 24.125 0.501
6.8417 26.417 0.525
6.8621 26.406 0.524
6.8826 26.469 0.525
6.9030 28.750 0.547
6.9235 29.667 0.556
6.9440 32.438 0.581
6.9644 34.615 0.600
6.9849 38.240 0.631
7.0054 46.063 0.693
7.0258 54.146 0.751
7.0463 66.500 0.832
7.0667 84.688 0.939
7.0872 96.552 1.003
7.1077 95.083 0.995
7.1281 80.813 0.917
7.1486 62.625 0.808
7.1691 50.490 0.725
7.1895 42.292 0.664
7.2100 36.823 0.619
7.2304 33.677 0.592
7.2509 32.813 0.585
7.2714 30.042 0.559
7.2918 30.177 0.561
7.3123 28.333 0.543
7.3328 28.542 0.545
7.3532 27.625 0.536
7.3737 27.969 0.540
7.3941 25.823 0.519
7.4146 26.240 0.523
7.4351 24.885 0.509
7.4555 25.448 0.515
7.4760 25.073 0.511
7.4965 25.271 0.513
7.5169 24.313 0.503
7.5374 24.063 0.501
7.5579 23.979 0.500
7.5783 24.781 0.508
7.5988 23.885 0.499
7.6192 23.458 0.494
7.6397 24.219 0.502
7.6602 24.031 0.500
7.6806 23.854 0.498
7.7011 24.115 0.501
7.7216 23.135 0.491
7.7420 23.760 0.497
7.7625 23.573 0.496
7.7829 22.323 0.482
7.8034 22.990 0.489
7.8239 23.990 0.500
7.8443 24.063 0.501
7.8648 23.146 0.491
7.8853 23.438 0.494
7.9057 23.802 0.498
7.9262 24.271 0.503
7.9466 22.750 0.487
7.9671 23.333 0.493
7.9876 23.375 0.493
8.0080 23.729 0.497
8.0285 24.427 0.504
8.0490 23.188 0.491
8.0694 24.740 0.508
8.0899 22.990 0.489
8.1103 23.333 0.493
8.1308 22.615 0.485
8.1513 23.979 0.500
8.1717 24.188 0.502
8.1922 23.615 0.496
8.2127 24.854 0.509
8.2331 25.500 0.515
8.2536 24.760 0.508
8.2740 24.094 0.501
8.2945 24.333 0.503
8.3150 24.302 0.503
8.3354 24.302 0.503
8.3559 24.469 0.505
8.3764 24.594 0.506
8.3968 23.688 0.497
8.4173 25.198 0.512
8.4378 25.042 0.511
8.4582 25.125 0.512
8.4787 25.490 0.515
8.4991 26.021 0.521
8.5196 26.271 0.523
8.5401 26.240 0.523
8.5605 25.896 0.519
8.5810 26.583 0.526
8.6015 27.667 0.537
8.6219 26.031 0.521
8.6424 26.740 0.528
8.6628 25.938 0.520
8.6833 26.708 0.527
8.7038 26.688 0.527
8.7242 26.979 0.530
8.7447 27.510 0.535
8.7652 27.094 0.531
8.7856 27.448 0.535
8.8061 27.438 0.535
8.8265 28.167 0.542
8.8470 29.438 0.554
8.8675 30.135 0.560
8.8879 32.031 0.578
8.9084 33.438 0.590
8.9289 34.708 0.601
8.9493 36.958 0.620
8.9698 37.594 0.626
8.9902 41.375 0.656
9.0107 46.698 0.697
9.0312 55.646 0.761
9.0516 74.781 0.883
9.0721 96.917 1.005
9.0926 131.042 1.168
9.1130 133.521 1.179
9.1335 101.021 1.026
9.1539 59.646 0.788
9.1744 40.729 0.651
9.1949 36.781 0.619
9.2153 35.844 0.611
9.2358 36.688 0.618
9.2563 37.146 0.622
9.2767 38.969 0.637
9.2972 39.656 0.643
9.3177 40.229 0.647
9.3381 41.083 0.654
9.3586 41.229 0.655
9.3790 43.167 0.671
9.3995 44.042 0.677
9.4200 45.625 0.689
9.4404 47.865 0.706
9.4609 48.771 0.713
9.4814 52.865 0.742
9.5018 57.385 0.773
9.5223 62.865 0.809
9.5427 68.917 0.847
9.5632 77.646 0.899
9.5837 86.823 0.951
9.6041 96.135 1.001
9.6246 108.698 1.064
9.6451 118.823 1.113
9.6655 132.729 1.176
9.6860 146.042 1.233
9.7064 163.156 1.304
9.7269 185.406 1.390
9.7474 223.906 1.527
9.7678 273.552 1.688
9.7883 347.021 1.901
9.8088 467.844 2.208
9.8292 658.229 2.619
9.8497 961.229 3.164
9.8701 1409.760 3.832
9.8906 1903.865 4.453
9.9111 1975.990 4.537
9.9315 1373.073 3.782
9.9520 686.833 2.675
9.9725 336.500 1.872
9.9929 217.198 1.504
10.0134 170.771 1.334
10.0338 143.521 1.223
10.0543 126.552 1.148
10.0748 114.750 1.093
10.0952 105.510 1.048
10.1157 96.208 1.001
10.1362 86.146 0.947
10.1566 74.615 0.882
10.1771 65.427 0.826
10.1976 59.313 0.786
10.2180 54.365 0.753
10.2385 52.563 0.740
10.2589 49.563 0.719
10.2794 46.865 0.699
10.2999 47.177 0.701
10.3203 44.958 0.684
10.3408 43.198 0.671
10.3613 41.198 0.655
10.3817 40.000 0.645
10.4022 39.708 0.643
10.4226 40.188 0.647
10.4431 37.313 0.623
10.4636 37.552 0.625
10.4840 35.458 0.608
10.5045 35.448 0.608
10.5250 34.875 0.603
10.5454 34.656 0.601
10.5659 33.604 0.592
10.5863 31.833 0.576
10.6068 32.656 0.583
10.6273 32.156 0.579
10.6477 32.875 0.585
10.6682 31.375 0.572
10.6887 30.490 0.564
10.7091 30.635 0.565
10.7296 29.729 0.556
10.7500 29.698 0.556
10.7705 29.521 0.555
10.7910 29.427 0.554
10.8114 28.479 0.545
10.8319 28.063 0.541
10.8524 27.469 0.535
10.8728 26.313 0.524
10.8933 25.698 0.517
10.9137 25.729 0.518
10.9342 25.167 0.512
10.9547 25.229 0.513
10.9751 24.448 0.505
10.9956 24.042 0.500
11.0161 23.729 0.497
11.0365 24.302 0.503
11.0570 24.479 0.505
11.0775 23.083 0.490
11.0979 23.271 0.492
11.1184 22.781 0.487
11.1388 22.323 0.482
11.1593 23.500 0.495
11.1798 22.073 0.480
11.2002 22.646 0.486
11.2207 21.823 0.477
11.2412 22.760 0.487
11.2616 21.896 0.478
11.2821 21.594 0.474
11.3025 21.969 0.478
11.3230 22.604 0.485
11.3435 21.208 0.470
11.3639 20.802 0.465
11.3844 20.604 0.463
11.4049 21.104 0.469
11.4253 19.865 0.455
11.4458 19.563 0.451
11.4662 19.969 0.456
11.4867 19.990 0.456
11.5072 19.458 0.450
11.5276 19.563 0.451
11.5481 19.865 0.455
11.5686 19.219 0.447
11.5890 19.260 0.448
11.6095 19.292 0.448
11.6299 18.802 0.443
11.6504 19.344 0.449
11.6709 18.896 0.444
11.6913 18.354 0.437
11.7118 17.917 0.432
11.7323 18.250 0.436
11.7527 18.177 0.435
11.7732 19.021 0.445
11.7937 17.615 0.428
11.8141 18.167 0.435
11.8346 17.073 0.422
11.8550 18.375 0.438
11.8755 17.417 0.426
11.8960 17.135 0.422
11.9164 16.583 0.416
11.9369 17.083 0.422
11.9574 17.938 0.432
11.9778 17.010 0.421
11.9983 17.208 0.423
12.0187 16.396 0.413
12.0392 16.917 0.420
12.0597 16.740 0.418
12.0801 16.604 0.416
12.1006 16.052 0.409
12.1211 15.781 0.405
12.1415 16.469 0.414
12.1620 16.583 0.416
12.1824 15.604 0.403
12.2029 16.135 0.410
12.2234 15.979 0.408
12.2438 16.365 0.413
12.2643 16.990 0.421
12.2848 16.917 0.420
12.3052 15.615 0.403
12.3257 14.948 0.395
12.3461 15.406 0.401
12.3666 15.552 0.402
12.3871 15.333 0.400
12.4075 15.458 0.401
12.4280 15.604 0.403
12.4485 15.823 0.406
12.4689 16.042 0.409
12.4894 15.479 0.402
12.5098 14.427 0.388
12.5303 14.896 0.394
12.5508 14.344 0.387
12.5712 15.104 0.397
12.5917 14.406 0.387
12.6122 14.604 0.390
12.6326 14.083 0.383
12.6531 14.323 0.386
12.6736 14.833 0.393
12.6940 13.948 0.381
12.7145 14.927 0.394
12.7349 14.750 0.392
12.7554 14.719 0.392
12.7759 14.750 0.392
12.7963 14.198 0.385
12.8168 14.604 0.390
12.8373 13.313 0.372
12.8577 14.094 0.383
12.8782 14.063 0.383
12.8986 13.771 0.379
12.9191 13.844 0.380
12.9396 13.927 0.381
12.9600 13.604 0.376
12.9805 14.385 0.387
13.0010 13.313 0.372
13.0214 14.406 0.387
13.0419 13.500 0.375
13.0623 13.250 0.372
13.0828 13.292 0.372
13.1033 13.042 0.369
13.1237 13.188 0.371
13.1442 12.906 0.367
13.1647 12.677 0.363
13.1851 12.542 0.361
13.2056 13.063 0.369
13.2260 13.688 0.378
13.2465 12.802 0.365
13.2670 12.906 0.367
13.2874 13.958 0.381
13.3079 13.094 0.369
13.3284 13.771 0.379
13.3488 13.000 0.368
13.3693 13.583 0.376
13.3897 12.896 0.367
13.4102 13.802 0.379
13.4307 12.969 0.368
13.4511 13.260 0.372
13.4716 13.802 0.379
13.4921 13.260 0.372
13.5125 12.917 0.367
13.5330 12.583 0.362
13.5535 12.344 0.359
13.5739 12.302 0.358
13.5944 13.073 0.369
13.6148 12.406 0.359
13.6353 13.188 0.371
13.6558 11.813 0.351
13.6762 12.458 0.360
13.6967 12.708 0.364
13.7172 12.021 0.354
13.7376 13.063 0.369
13.7581 12.865 0.366
13.7785 12.552 0.362
13.7990 12.958 0.367
13.8195 12.792 0.365
13.8399 12.646 0.363
13.8604 12.542 0.361
13.8809 13.073 0.369
13.9013 12.906 0.367
13.9218 13.750 0.378
13.9422 13.250 0.372
13.9627 12.844 0.366
13.9832 14.365 0.387
14.0036 14.073 0.383
14.0241 14.177 0.384
14.0446 15.125 0.397
14.0650 16.063 0.409
14.0855 17.948 0.432
14.1059 20.510 0.462
14.1264 24.198 0.502
14.1469 28.656 0.546
14.1673 30.031 0.559
14.1878 28.948 0.549
14.2083 27.740 0.538
14.2287 23.521 0.495
14.2492 20.333 0.460
14.2696 18.115 0.434
14.2901 16.896 0.420
14.3106 15.479 0.402
14.3310 14.719 0.392
14.3515 14.802 0.393
14.3720 14.292 0.386
14.3924 13.000 0.368
14.4129 13.188 0.371
14.4334 13.000 0.368
14.4538 12.448 0.360
14.4743 11.740 0.350
14.4947 12.156 0.356
14.5152 11.365 0.344
14.5357 12.302 0.358
14.5561 11.635 0.348
14.5766 11.573 0.347
14.5971 11.740 0.350
14.6175 11.375 0.344
14.6380 12.260 0.357
14.6584 11.469 0.346
14.6789 11.510 0.346
14.6994 12.188 0.356
14.7198 12.052 0.354
14.7403 12.406 0.359
14.7608 11.354 0.344
14.7812 11.719 0.349
14.8017 11.542 0.347
14.8221 11.719 0.349
14.8426 11.573 0.347
14.8631 11.125 0.340
14.8835 11.385 0.344
14.9040 11.417 0.345
14.9245 11.260 0.342
14.9449 11.635 0.348
14.9654 11.104 0.340
14.9858 10.948 0.338
15.0063 11.083 0.340
15.0268 10.781 0.335
15.0472 11.656 0.348
15.0677 11.260 0.342
15.0882 11.385 0.344
15.1086 11.302 0.343
15.1291 10.469 0.330
15.1495 10.969 0.338
15.1700 11.000 0.339
15.1905 11.104 0.340
15.2109 10.958 0.338
15.2314 11.021 0.339
15.2519 11.167 0.341
15.2723 11.406 0.345
15.2928 11.219 0.342
15.3133 11.396 0.345
15.3337 12.000 0.354
15.3542 12.052 0.354
15.3746 12.958 0.367
15.3951 12.219 0.357
15.4156 11.813 0.351
15.4360 11.750 0.350
15.4565 11.771 0.350
15.4770 11.719 0.349
15.4974 11.438 0.345
15.5179 11.927 0.352
15.5383 11.479 0.346
15.5588 11.833 0.351
15.5793 11.823 0.351
15.5997 11.927 0.352
15.6202 11.885 0.352
15.6407 12.427 0.360
15.6611 14.115 0.383
15.6816 14.375 0.387
15.7020 16.885 0.419
15.7225 22.750 0.487
15.7430 31.406 0.572
15.7634 45.865 0.691
15.7839 54.417 0.753
15.8044 42.719 0.667
15.8248 32.438 0.581
15.8453 22.333 0.482
15.8657 14.208 0.385
15.8862 12.750 0.364
15.9067 12.500 0.361
15.9271 11.365 0.344
15.9476 11.635 0.348
15.9681 11.823 0.351
15.9885 11.750 0.350
16.0090 11.500 0.346
16.0295 11.760 0.350
16.0499 11.333 0.344
16.0704 11.000 0.339
16.0908 11.052 0.339
16.1113 10.552 0.332
16.1318 10.625 0.333
16.1522 10.531 0.331
16.1727 10.396 0.329
16.1932 10.813 0.336
16.2136 10.385 0.329
16.2341 11.448 0.345
16.2545 10.594 0.332
16.2750 10.740 0.334
16.2955 10.729 0.334
16.3159 11.760 0.350
16.3364 10.927 0.337
16.3569 10.063 0.324
16.3773 10.938 0.338
16.3978 10.927 0.337
16.4182 10.844 0.336
16.4387 10.760 0.335
16.4592 11.260 0.342
16.4796 10.833 0.336
16.5001 10.979 0.338
16.5206 10.948 0.338
16.5410 10.667 0.333
16.5615 11.521 0.346
16.5819 10.583 0.332
16.6024 10.740 0.334
16.6229 11.177 0.341
16.6433 10.240 0.327
16.6638 10.729 0.334
16.6843 10.927 0.337
16.7047 11.396 0.345
16.7252 10.865 0.336
16.7456 11.604 0.348
16.7661 11.104 0.340
16.7866 11.427 0.345
16.8070 11.531 0.347
16.8275 11.438 0.345
16.8480 10.917 0.337
16.8684 11.104 0.340
16.8889 11.563 0.347
16.9094 11.281 0.343
16.9298 11.333 0.344
16.9503 11.635 0.348
16.9707 12.354 0.359
16.9912 12.417 0.360
17.0117 12.240 0.357
17.0321 12.573 0.362
17.0526 12.760 0.365
17.0731 11.375 0.344
17.0935 12.094 0.355
17.1140 11.552 0.347
17.1344 12.031 0.354
17.1549 12.292 0.358
17.1754 12.271 0.358
17.1958 12.552 0.362
17.2163 12.042 0.354
17.2368 12.802 0.365
17.2572 11.979 0.353
17.2777 12.563 0.362
17.2981 12.760 0.365
17.3186 11.823 0.351
17.3391 12.510 0.361
17.3595 13.375 0.373
17.3800 12.323 0.358
17.4005 13.021 0.368
17.4209 12.333 0.358
17.4414 13.563 0.376
17.4618 13.052 0.369
17.4823 13.104 0.369
17.5028 13.427 0.374
17.5232 13.979 0.382
17.5437 13.281 0.372
17.5642 12.990 0.368
17.5846 13.531 0.375
17.6051 13.271 0.372
17.6255 14.229 0.385
17.6460 13.250 0.372
17.6665 14.021 0.382
17.6869 13.969 0.381
17.7074 15.073 0.396
17.7279 14.719 0.392
17.7483 14.906 0.394
17.7688 15.729 0.405
17.7893 17.833 0.431
17.8097 19.573 0.452
17.8302 22.333 0.482
17.8506 19.563 0.451
17.8711 19.469 0.450
17.8916 18.979 0.445
17.9120 17.281 0.424
17.9325 17.302 0.425
17.9530 18.240 0.436
17.9734 17.344 0.425
17.9939 17.521 0.427
18.0143 17.438 0.426
18.0348 17.375 0.425
18.0553 19.104 0.446
18.0757 19.865 0.455
18.0962 20.198 0.459
18.1167 20.073 0.457
18.1371 19.854 0.455
18.1576 19.813 0.454
18.1780 19.208 0.447
18.1985 20.240 0.459
18.2190 21.969 0.478
18.2394 22.479 0.484
18.2599 22.365 0.483
18.2804 22.594 0.485
18.3008 22.063 0.479
18.3213 22.865 0.488
18.3417 22.667 0.486
18.3622 23.417 0.494
18.3827 22.698 0.486
18.4031 23.021 0.490
18.4236 23.000 0.489
18.4441 23.938 0.499
18.4645 23.656 0.496
18.4850 23.313 0.493
18.5054 22.604 0.485
18.5259 22.844 0.488
18.5464 23.438 0.494
18.5668 23.010 0.490
18.5873 22.354 0.483
18.6078 22.469 0.484
18.6282 22.167 0.481
18.6487 22.510 0.484
18.6692 22.594 0.485
18.6896 22.104 0.480
18.7101 22.385 0.483
18.7305 21.802 0.477
18.7510 21.563 0.474
18.7715 22.719 0.486
18.7919 21.260 0.471
18.8124 21.354 0.472
18.8329 23.104 0.491
18.8533 24.479 0.505
18.8738 27.458 0.535
18.8942 27.896 0.539
18.9147 25.573 0.516
18.9352 23.979 0.500
18.9556 21.698 0.475
18.9761 19.563 0.451
18.9966 19.031 0.445
19.0170 19.302 0.448
19.0375 19.021 0.445
19.0579 19.281 0.448
19.0784 18.521 0.439
19.0989 18.552 0.440
19.1193 18.906 0.444
19.1398 19.500 0.451
19.1603 19.729 0.453
19.1807 19.135 0.446
19.2012 20.000 0.456
19.2216 19.979 0.456
19.2421 21.146 0.469
19.2626 20.875 0.466
19.2830 20.865 0.466
19.3035 21.385 0.472
19.3240 22.469 0.484
19.3444 21.958 0.478
19.3649 22.802 0.487
19.3853 23.104 0.491
19.4058 22.708 0.486
19.4263 23.042 0.490
19.4467 24.938 0.510
19.4672 25.135 0.512
19.4877 27.688 0.537
19.5081 29.396 0.553
19.5286 29.260 0.552
19.5491 32.177 0.579
19.5695 35.385 0.607
19.5900 37.281 0.623
19.6104 40.250 0.648
19.6309 43.469 0.673
19.6514 47.729 0.705
19.6718 51.646 0.733
19.6923 58.813 0.783
19.7128 67.802 0.840
19.7332 82.281 0.926
19.7537 103.302 1.037
19.7741 140.406 1.209
19.7946 209.854 1.479
19.8151 329.396 1.852
19.8355 488.542 2.256
19.8560 527.979 2.345
19.8765 407.698 2.061
19.8969 331.656 1.859
19.9174 222.885 1.524
19.9378 121.375 1.124
19.9583 80.021 0.913
19.9788 61.938 0.803
19.9992 51.260 0.731
20.0197 46.896 0.699
20.0402 41.469 0.657
20.0606 38.375 0.632
20.0811 36.625 0.618
20.1015 32.833 0.585
20.1220 29.438 0.554
20.1425 29.052 0.550
20.1629 27.719 0.537
20.1834 26.563 0.526
20.2039 25.771 0.518
20.2243 24.927 0.510
20.2448 23.531 0.495
20.2653 22.563 0.485
20.2857 23.438 0.494
20.3062 21.802 0.477
20.3266 22.510 0.484
20.3471 23.260 0.492
20.3676 22.573 0.485
20.3880 22.198 0.481
20.4085 22.563 0.485
20.4290 22.219 0.481
20.4494 21.490 0.473
20.4699 21.885 0.477
20.4903 21.000 0.468
20.5108 21.135 0.469
20.5313 21.656 0.475
20.5517 20.406 0.461
20.5722 19.635 0.452
20.5927 20.302 0.460
20.6131 19.083 0.446
20.6336 18.969 0.445
20.6540 18.417 0.438
20.6745 17.760 0.430
20.6950 18.781 0.442
20.7154 17.510 0.427
20.7359 17.021 0.421
20.7564 16.885 0.419
20.7768 16.917 0.420
20.7973 16.417 0.414
20.8177 16.656 0.417
20.8382 16.271 0.412
20.8587 16.031 0.409
20.8791 15.969 0.408
20.8996 15.365 0.400
20.9201 15.438 0.401
20.9405 15.542 0.402
20.9610 15.104 0.397
20.9814 14.667 0.391
21.0019 15.229 0.398
21.0224 15.115 0.397
21.0428 15.500 0.402
21.0633 14.813 0.393
21.0838 15.792 0.406
21.1042 14.740 0.392
21.1247 15.417 0.401
21.1452 16.490 0.414
21.1656 16.469 0.414
21.1861 17.510 0.427
21.2065 18.948 0.444
21.2270 20.948 0.467
21.2475 23.510 0.495
21.2679 27.531 0.536
21.2884 32.625 0.583
21.3089 33.271 0.589
21.3293 33.500 0.591
21.3498 31.458 0.572
21.3702 29.604 0.555
21.3907 24.938 0.510
21.4112 22.604 0.485
21.4316 21.333 0.471
21.4521 19.771 0.454
21.4726 18.583 0.440
21.4930 17.094 0.422
21.5135 16.448 0.414
21.5339 16.302 0.412
21.5544 15.063 0.396
21.5749 14.667 0.391
21.5953 14.323 0.386
21.6158 14.000 0.382
21.6363 14.094 0.383
21.6567 13.406 0.374
21.6772 13.042 0.369
21.6976 13.292 0.372
21.7181 12.198 0.356
21.7386 12.521 0.361
21.7590 12.531 0.361
21.7795 12.719 0.364
21.8000 12.917 0.367
21.8204 12.396 0.359
21.8409 12.219 0.357
21.8613 12.208 0.357
21.8818 12.177 0.356
21.9023 12.229 0.357
21.9227 12.354 0.359
21.9432 12.917 0.367
21.9637 13.115 0.370
21.9841 13.031 0.368
22.0046 14.146 0.384
22.0251 14.083 0.383
22.0455 15.104 0.397
22.0660 15.573 0.403
22.0864 17.448 0.426
22.1069 18.573 0.440
22.1274 20.938 0.467
22.1478 25.500 0.515
22.1683 30.969 0.568
22.1888 39.573 0.642
22.2092 42.760 0.667
22.2297 38.500 0.633
22.2501 34.625 0.601
22.2706 29.521 0.555
22.2911 24.458 0.505
22.3115 19.875 0.455
22.3320 18.583 0.440
22.3525 16.458 0.414
22.3729 15.438 0.401
22.3934 15.104 0.397
22.4138 15.406 0.401
22.4343 13.802 0.379
22.4548 13.865 0.380
22.4752 12.938 0.367
22.4957 12.833 0.366
22.5162 12.094 0.355
22.5366 12.438 0.360
22.5571 11.469 0.346
22.5775 11.552 0.347
22.5980 11.344 0.344
22.6185 10.938 0.338
22.6389 11.990 0.353
22.6594 11.667 0.349
22.6799 11.833 0.351
22.7003 11.552 0.347
22.7208 11.167 0.341
22.7412 11.688 0.349
22.7617 11.458 0.345
22.7822 11.813 0.351
22.8026 11.677 0.349
22.8231 12.063 0.354
22.8436 13.354 0.373
22.8640 15.042 0.396
22.8845 18.990 0.445
22.9050 23.469 0.494
22.9254 23.573 0.496
22.9459 19.667 0.453
22.9663 18.646 0.441
22.9868 16.052 0.409
23.0073 12.708 0.364
23.0277 11.760 0.350
23.0482 11.375 0.344
23.0687 11.063 0.339
23.0891 10.979 0.338
23.1096 10.760 0.335
23.1300 10.990 0.338
23.1505 9.896 0.321
23.1710 11.146 0.341
23.1914 10.438 0.330
23.2119 10.219 0.326
23.2324 10.167 0.325
23.2528 10.198 0.326
23.2733 10.229 0.326
23.2937 9.906 0.321
23.3142 10.469 0.330
23.3347 10.104 0.324
23.3551 9.479 0.314
23.3756 10.208 0.326
23.3961 9.948 0.322
23.4165 10.021 0.323
23.4370 9.500 0.315
23.4574 10.427 0.330
23.4779 9.802 0.320
23.4984 9.927 0.322
23.5188 9.823 0.320
23.5393 9.750 0.319
23.5598 9.917 0.321
23.5802 9.615 0.316
23.6007 9.708 0.318
23.6211 9.990 0.323
23.6416 9.938 0.322
23.6621 9.604 0.316
23.6825 11.083 0.340
23.7030 10.938 0.338
23.7235 10.302 0.328
23.7439 10.469 0.330
23.7644 10.417 0.329
23.7849 9.615 0.316
23.8053 9.865 0.321
23.8258 9.594 0.316
23.8462 10.198 0.326
23.8667 9.521 0.315
23.8872 9.354 0.312
23.9076 9.344 0.312
23.9281 9.292 0.311
23.9486 9.563 0.316
23.9690 9.604 0.316
23.9895 9.667 0.317
24.0099 9.698 0.318
24.0304 9.708 0.318
24.0509 9.823 0.320
24.0713 9.542 0.315
24.0918 9.375 0.313
24.1123 9.865 0.321
24.1327 9.365 0.312
24.1532 10.406 0.329
24.1736 10.635 0.333
24.1941 10.781 0.335
24.2146 10.885 0.337
24.2350 10.750 0.335
24.2555 10.667 0.333
24.2760 10.802 0.335
24.2964 10.740 0.334
24.3169 11.531 0.347
24.3373 12.135 0.356
24.3578 12.625 0.363
24.3783 12.115 0.355
24.3987 11.490 0.346
24.4192 11.521 0.346
24.4397 10.573 0.332
24.4601 10.188 0.326
24.4806 10.313 0.328
24.5011 9.813 0.320
24.5215 9.833 0.320
24.5420 9.552 0.315
24.5624 9.760 0.319
24.5829 9.458 0.314
24.6034 9.667 0.317
24.6238 9.750 0.319
24.6443 9.583 0.316
24.6648 11.010 0.339
24.6852 11.208 0.342
24.7057 11.208 0.342
24.7261 10.885 0.337
24.7466 10.458 0.330
24.7671 10.052 0.324
24.7875 8.813 0.303
24.8080 8.865 0.304
24.8285 9.198 0.310
24.8489 8.573 0.299
24.8694 9.052 0.307
24.8898 8.563 0.299
24.9103 8.938 0.305
24.9308 8.719 0.301
24.9512 8.375 0.295
24.9717 8.635 0.300
24.9922 9.063 0.307
25.0126 8.948 0.305
25.0331 8.906 0.305
25.0535 8.229 0.293
25.0740 9.323 0.312
25.0945 9.063 0.307
25.1149 9.042 0.307
25.1354 8.708 0.301
25.1559 8.938 0.305
25.1763 9.177 0.309
25.1968 9.281 0.311
25.2172 8.552 0.298
25.2377 8.844 0.304
25.2582 8.771 0.302
25.2786 8.781 0.302
25.2991 8.500 0.298
25.3196 8.677 0.301
25.3400 8.927 0.305
25.3605 8.594 0.299
25.3810 9.000 0.306
25.4014 8.625 0.300
25.4219 8.427 0.296
25.4423 8.542 0.298
25.4628 9.000 0.306
25.4833 8.844 0.304
25.5037 9.917 0.321
25.5242 10.135 0.325
25.5447 11.438 0.345
25.5651 13.375 0.373
25.5856 16.510 0.415
25.6060 17.229 0.424
25.6265 14.292 0.386
25.6470 13.521 0.375
25.6674 13.656 0.377
25.6879 10.948 0.338
25.7084 10.354 0.328
25.7288 9.729 0.318
25.7493 9.646 0.317
25.7697 9.750 0.319
25.7902 8.583 0.299
25.8107 9.021 0.307
25.8311 8.854 0.304
25.8516 9.010 0.306
25.8721 8.875 0.304
25.8925 8.958 0.305
25.9130 8.448 0.297
25.9334 9.042 0.307
25.9539 8.844 0.304
25.9744 9.167 0.309
25.9948 8.333 0.295
26.0153 8.615 0.300
26.0358 9.146 0.309
26.0562 9.115 0.308
26.0767 9.156 0.309
26.0971 8.760 0.302
26.1176 8.969 0.306
26.1381 8.854 0.304
26.1585 8.969 0.306
26.1790 8.563 0.299
26.1995 8.427 0.296
26.2199 8.792 0.303
26.2404 8.667 0.300
26.2609 8.031 0.289
26.2813 8.052 0.290
26.3018 8.729 0.302
26.3222 8.229 0.293
26.3427 8.083 0.290
26.3632 8.302 0.294
26.3836 8.281 0.294
26.4041 9.063 0.307
26.4246 8.427 0.296
26.4450 8.344 0.295
26.4655 8.500 0.298
26.4859 8.531 0.298
26.5064 8.198 0.292
26.5269 8.240 0.293
26.5473 8.250 0.293
26.5678 8.240 0.293
26.5883 8.292 0.294
26.6087 8.448 0.297
26.6292 8.771 0.302
26.6496 8.260 0.293
26.6701 8.906 0.305
26.6906 8.490 0.297
26.7110 8.281 0.294
26.7315 8.188 0.292
26.7520 8.667 0.300
26.7724 8.250 0.293
26.7929 8.219 0.293
26.8133 8.375 0.295
26.8338 8.240 0.293
26.8543 8.625 0.300
26.8747 8.219 0.293
26.8952 8.469 0.297
26.9157 8.500 0.298
26.9361 8.813 0.303
26.9566 8.354 0.295
26.9770 8.625 0.300
26.9975 8.188 0.292
27.0180 8.604 0.299
27.0384 8.010 0.289
27.0589 8.208 0.292
27.0794 8.667 0.300
27.0998 8.760 0.302
27.1203 8.667 0.300
27.1408 9.302 0.311
27.1612 8.510 0.298
27.1817 8.979 0.306
27.2021 9.083 0.308
27.2226 8.552 0.298
27.2431 9.885 0.321
27.2635 9.469 0.314
27.2840 9.927 0.322
27.3045 9.583 0.316
27.3249 9.510 0.315
27.3454 8.406 0.296
27.3658 8.406 0.296
27.3863 8.802 0.303
27.4068 9.417 0.313
27.4272 9.583 0.316
27.4477 11.167 0.341
27.4682 12.958 0.367
27.4886 15.802 0.406
27.5091 14.333 0.386
27.5295 12.406 0.359
27.5500 12.021 0.354
27.5705 11.625 0.348
27.5909 9.563 0.316
27.6114 8.990 0.306
27.6319 8.896 0.304
27.6523 9.083 0.308
27.6728 8.677 0.301
27.6932 8.677 0.301
27.7137 8.417 0.296
27.7342 8.458 0.297
27.7546 8.500 0.298
27.7751 8.563 0.299
27.7956 8.250 0.293
27.8160 8.271 0.294
27.8365 8.490 0.297
27.8569 8.667 0.300
27.8774 8.781 0.302
27.8979 8.208 0.292
27.9183 8.104 0.291
27.9388 8.198 0.292
27.9593 8.260 0.293
27.9797 8.167 0.292
28.0002 8.406 0.296
28.0207 8.063 0.290
28.0411 7.750 0.284
28.0616 8.177 0.292
28.0820 8.563 0.299
28.1025 7.469 0.279
28.1230 7.823 0.285
28.1434 8.135 0.291
28.1639 8.479 0.297
28.1844 7.729 0.284
28.2048 8.281 0.294
28.2253 8.021 0.289
28.2457 7.563 0.281
28.2662 7.594 0.281
28.2867 7.813 0.285
28.3071 7.938 0.288
28.3276 8.344 0.295
28.3481 8.240 0.293
28.3685 7.552 0.280
28.3890 7.948 0.288
28.4094 8.042 0.289
28.4299 7.885 0.287
28.4504 7.760 0.284
28.4708 7.781 0.285
28.4913 8.469 0.297
28.5118 7.510 0.280
28.5322 8.302 0.294
28.5527 7.635 0.282
28.5731 7.625 0.282
28.5936 7.708 0.283
28.6141 7.823 0.285
28.6345 7.948 0.288
28.6550 8.198 0.292
28.6755 8.083 0.290
28.6959 7.781 0.285
28.7164 7.854 0.286
28.7368 8.021 0.289
28.7573 8.240 0.293
28.7778 8.458 0.297
28.7982 7.688 0.283
28.8187 8.188 0.292
28.8392 7.875 0.286
28.8596 7.781 0.285
28.8801 7.573 0.281
28.9006 7.917 0.287
28.9210 7.958 0.288
28.9415 7.719 0.284
28.9619 7.896 0.287
28.9824 7.833 0.286
29.0029 7.448 0.279
29.0233 7.969 0.288
29.0438 7.438 0.278
29.0643 8.271 0.294
29.0847 8.010 0.289
29.1052 8.219 0.293
29.1256 7.521 0.280
29.1461 7.500 0.280
29.1666 7.750 0.284
29.1870 7.865 0.286
29.2075 7.417 0.278
29.2280 8.125 0.291
29.2484 7.896 0.287
29.2689 7.865 0.286
29.2893 7.750 0.284
29.3098 7.333 0.276
29.3303 7.552 0.280
29.3507 8.323 0.294
29.3712 7.823 0.285
29.3917 8.135 0.291
29.4121 7.240 0.275
29.4326 7.656 0.282
29.4530 8.323 0.294
29.4735 7.427 0.278
29.4940 7.927 0.287
29.5144 8.344 0.295
29.5349 7.948 0.288
29.5554 8.208 0.292
29.5758 8.635 0.300
29.5963 9.219 0.310
29.6168 8.333 0.295
29.6372 8.302 0.294
29.6577 8.156 0.291
29.6781 8.052 0.290
29.6986 7.823 0.285
29.7191 7.563 0.281
29.7395 7.135 0.273
29.7600 7.052 0.271
29.7805 7.125 0.272
29.8009 7.313 0.276
29.8214 7.042 0.271
29.8418 7.521 0.280
29.8623 6.927 0.269
29.8828 7.865 0.286
29.9032 7.667 0.283
29.9237 7.708 0.283
29.9442 7.750 0.284
29.9646 7.885 0.287
29.9851 7.833 0.286
30.0055 7.781 0.285
30.0260 8.188 0.292
30.0465 7.635 0.282
30.0669 7.271 0.275
30.0874 7.344 0.277
30.1079 7.344 0.277
30.1283 7.333 0.276
30.1488 7.302 0.276
30.1692 7.573 0.281
30.1897 7.427 0.278
30.2102 7.344 0.277
30.2306 7.146 0.273
30.2511 7.917 0.287
30.2716 7.385 0.277
30.2920 7.542 0.280
30.3125 7.656 0.282
30.3329 7.208 0.274
30.3534 7.448 0.279
30.3739 6.802 0.266
30.3943 7.052 0.271
30.4148 6.906 0.268
30.4353 7.271 0.275
30.4557 7.479 0.279
30.4762 6.896 0.268
30.4967 7.073 0.271
30.5171 7.188 0.274
30.5376 7.313 0.276
30.5580 7.365 0.277
30.5785 7.521 0.280
30.5990 7.583 0.281
30.6194 7.635 0.282
30.6399 7.427 0.278
30.6604 7.896 0.287
30.6808 7.844 0.286
30.7013 7.635 0.282
30.7217 7.760 0.284
30.7422 7.719 0.284
30.7627 8.063 0.290
30.7831 8.240 0.293
30.8036 8.198 0.292
30.8241 8.323 0.294
30.8445 8.583 0.299
30.8650 8.625 0.300
30.8854 9.552 0.315
30.9059 9.646 0.317
30.9264 10.792 0.335
30.9468 13.604 0.376
30.9673 15.510 0.402
30.9878 20.667 0.464
31.0082 27.594 0.536
31.0287 34.031 0.595
31.0491 34.646 0.601
31.0696 31.333 0.571
31.0901 28.760 0.547
31.1105 27.042 0.531
31.1310 24.042 0.500
31.1515 18.969 0.445
31.1719 15.479 0.402
31.1924 12.948 0.367
31.2128 11.885 0.352
31.2333 10.448 0.330
31.2538 9.521 0.315
31.2742 8.948 0.305
31.2947 9.010 0.306
31.3152 8.573 0.299
31.3356 8.260 0.293
31.3561 8.438 0.296
31.3766 9.552 0.315
31.3970 9.479 0.314
31.4175 8.729 0.302
31.4379 8.646 0.300
31.4584 8.438 0.296
31.4789 8.135 0.291
31.4993 8.531 0.298
31.5198 7.385 0.277
31.5403 7.667 0.283
31.5607 7.667 0.283
31.5812 7.146 0.273
31.6016 7.083 0.272
31.6221 7.375 0.277
31.6426 7.677 0.283
31.6630 7.740 0.284
31.6835 7.823 0.285
31.7040 7.677 0.283
31.7244 7.583 0.281
31.7449 7.927 0.287
31.7653 7.823 0.285
31.7858 8.688 0.301
31.8063 8.177 0.292
31.8267 9.177 0.309
31.8472 9.635 0.317
31.8677 8.698 0.301
31.8881 8.896 0.304
31.9086 8.604 0.299
31.9290 9.063 0.307
31.9495 8.219 0.293
31.9700 8.427 0.296
31.9904 8.771 0.302
32.0109 8.156 0.291
32.0314 8.188 0.292
32.0518 8.885 0.304
32.0723 9.583 0.316
32.0927 10.115 0.325
32.1132 10.396 0.329
32.1337 10.958 0.338
32.1541 10.927 0.337
32.1746 12.208 0.357
32.1951 14.854 0.393
32.2155 17.156 0.423
32.2360 18.521 0.439
32.2565 15.083 0.396
32.2769 13.000 0.368
32.2974 12.698 0.364
32.3178 13.542 0.376
32.3383 11.146 0.341
32.3588 9.427 0.313
32.3792 8.969 0.306
32.3997 9.135 0.308
32.4202 8.625 0.300
32.4406 9.094 0.308
32.4611 9.427 0.313
32.4815 9.000 0.306
32.5020 9.635 0.317
32.5225 9.615 0.316
32.5429 10.135 0.325
32.5634 11.479 0.346
32.5839 12.719 0.364
32.6043 14.021 0.382
32.6248 16.740 0.418
32.6452 16.896 0.420
32.6657 16.760 0.418
32.6862 14.906 0.394
32.7066 14.344 0.387
32.7271 14.240 0.385
32.7476 12.521 0.361
32.7680 11.135 0.341
32.7885 9.688 0.318
32.8089 9.771 0.319
32.8294 9.094 0.308
32.8499 7.990 0.288
32.8703 8.917 0.305
32.8908 9.198 0.310
32.9113 7.938 0.288
32.9317 8.677 0.301
32.9522 7.615 0.282
32.9726 8.427 0.296
32.9931 8.052 0.290
33.0136 8.104 0.291
33.0340 8.208 0.292
33.0545 7.615 0.282
33.0750 7.583 0.281
33.0954 7.885 0.287
33.1159 7.698 0.283
33.1364 8.542 0.298
33.1568 9.604 0.316
33.1773 9.833 0.320
33.1977 9.417 0.313
33.2182 8.052 0.290
33.2387 8.885 0.304
33.2591 8.344 0.295
33.2796 8.594 0.299
33.3001 7.615 0.282
33.3205 7.667 0.283
33.3410 7.865 0.286
33.3614 8.615 0.300
33.3819 8.875 0.304
33.4024 8.396 0.296
33.4228 7.813 0.285
33.4433 7.802 0.285
33.4638 8.375 0.295
33.4842 8.052 0.290
33.5047 7.927 0.287
33.5251 7.979 0.288
33.5456 7.240 0.275
33.5661 7.719 0.284
33.5865 7.323 0.276
33.6070 7.365 0.277
33.6275 6.979 0.270
33.6479 7.438 0.278
33.6684 7.156 0.273
33.6888 7.177 0.273
33.7093 7.542 0.280
33.7298 7.688 0.283
33.7502 7.542 0.280
33.7707 7.354 0.277
33.7912 7.885 0.287
33.8116 7.208 0.274
33.8321 7.115 0.272
33.8526 7.198 0.274
33.8730 7.375 0.277
33.8935 7.542 0.280
33.9139 7.260 0.275
33.9344 7.000 0.270
33.9549 7.510 0.280
33.9753 7.531 0.280
33.9958 7.885 0.287
34.0163 7.813 0.285
34.0367 7.302 0.276
34.0572 7.823 0.285
34.0776 7.635 0.282
34.0981 7.594 0.281
34.1186 8.167 0.292
34.1390 8.385 0.296
34.1595 8.958 0.305
34.1800 9.021 0.307
34.2004 10.479 0.330
34.2209 13.240 0.371
34.2413 14.625 0.390
34.2618 13.563 0.376
34.2823 12.156 0.356
34.3027 11.708 0.349
34.3232 12.250 0.357
34.3437 11.667 0.349
34.3641 9.813 0.320
34.3846 9.354 0.312
34.4050 8.604 0.299
34.4255 8.469 0.297
34.4460 8.323 0.294
34.4664 7.948 0.288
34.4869 7.021 0.270
34.5074 7.677 0.283
34.5278 7.458 0.279
34.5483 7.510 0.280
34.5687 7.167 0.273
34.5892 7.677 0.283
34.6097 6.833 0.267
34.6301 7.313 0.276
34.6506 7.354 0.277
34.6711 7.865 0.286
34.6915 7.771 0.285
34.7120 7.313 0.276
34.7325 7.719 0.284
34.7529 7.167 0.273
34.7734 7.354 0.277
34.7938 7.719 0.284
34.8143 7.677 0.283
34.8348 8.083 0.290
34.8552 8.104 0.291
34.8757 8.073 0.290
34.8962 8.781 0.302
34.9166 10.115 0.325
34.9371 12.771 0.365
34.9575 16.219 0.411
34.9780 16.688 0.417
34.9985 13.188 0.371
35.0189 11.375 0.344
35.0394 12.313 0.358
35.0599 13.177 0.370
35.0803 11.042 0.339
35.1008 9.156 0.309
35.1212 8.667 0.300
35.1417 8.677 0.301
35.1622 7.385 0.277
35.1826 7.583 0.281
35.2031 8.063 0.290
35.2236 7.927 0.287
35.2440 7.948 0.288
35.2645 8.198 0.292
35.2849 7.354 0.277
35.3054 7.250 0.275
35.3259 8.010 0.289
35.3463 7.135 0.273
35.3668 7.667 0.283
35.3873 7.333 0.276
35.4077 7.594 0.281
35.4282 7.583 0.281
35.4486 8.104 0.291
35.4691 7.844 0.286
35.4896 8.156 0.291
35.5100 8.198 0.292
35.5305 8.490 0.297
35.5510 8.365 0.295
35.5714 7.823 0.285
35.5919 8.344 0.295
35.6124 7.927 0.287
35.6328 8.313 0.294
35.6533 7.656 0.282
35.6737 7.833 0.286
35.6942 7.990 0.288
35.7147 7.802 0.285
35.7351 8.438 0.296
35.7556 7.729 0.284
35.7761 8.594 0.299
35.7965 8.458 0.297
35.8170 8.302 0.294
35.8374 9.177 0.309
35.8579 9.521 0.315
35.8784 9.094 0.308
35.8988 9.698 0.318
35.9193 9.646 0.317
35.9398 10.229 0.326
35.9602 10.313 0.328
35.9807 9.615 0.316
36.0011 10.552 0.332
36.0216 10.698 0.334
36.0421 11.594 0.348
36.0625 12.250 0.357
36.0830 12.781 0.365
36.1035 12.792 0.365
36.1239 12.083 0.355
36.1444 12.771 0.365
36.1648 12.677 0.363
36.1853 12.208 0.357
36.2058 12.854 0.366
36.2262 12.323 0.358
36.2467 11.510 0.346
36.2672 11.573 0.347
36.2876 12.240 0.357
36.3081 11.448 0.345
36.3285 12.000 0.354
36.3490 11.156 0.341
36.3695 12.063 0.354
36.3899 11.792 0.350
36.4104 12.438 0.360
36.4309 11.677 0.349
36.4513 12.479 0.361
36.4718 13.344 0.373
36.4923 13.250 0.372
36.5127 13.719 0.378
36.5332 14.510 0.389
36.5536 15.740 0.405
36.5741 17.490 0.427
36.5946 19.781 0.454
36.6150 22.615 0.485
36.6355 21.750 0.476
36.6560 20.615 0.463
36.6764 18.167 0.435
36.6969 18.604 0.440
36.7173 18.115 0.434
36.7378 16.958 0.420
36.7583 16.656 0.417
36.7787 14.125 0.384
36.7992 14.271 0.386
36.8197 13.333 0.373
36.8401 13.833 0.380
36.8606 14.146 0.384
36.8810 14.167 0.384
36.9015 14.885 0.394
36.9220 14.833 0.393
36.9424 15.521 0.402
36.9629 16.354 0.413
36.9834 17.125 0.422
37.0038 19.021 0.445
37.0243 20.448 0.462
37.0447 23.990 0.500
37.0652 28.302 0.543
37.0857 30.177 0.561
37.1061 31.500 0.573
37.1266 29.323 0.553
37.1471 27.156 0.532
37.1675 24.813 0.508
37.1880 24.323 0.503
37.2084 23.188 0.491
37.2289 20.375 0.461
37.2494 18.417 0.438
37.2698 18.396 0.438
37.2903 16.094 0.409
37.3108 14.969 0.395
37.3312 13.729 0.378
37.3517 14.083 0.383
37.3722 13.385 0.373
37.3926 12.875 0.366
37.4131 12.792 0.365
37.4335 11.469 0.346
37.4540 10.802 0.335
37.4745 11.646 0.348
37.4949 10.875 0.337
37.5154 10.344 0.328
37.5359 11.479 0.346
37.5563 11.031 0.339
37.5768 10.750 0.335
37.5972 10.573 0.332
37.6177 10.031 0.323
37.6382 10.406 0.329
37.6586 10.885 0.337
37.6791 10.333 0.328
37.6996 9.667 0.317
37.7200 10.656 0.333
37.7405 10.375 0.329
37.7609 10.771 0.335
37.7814 11.406 0.345
37.8019 10.969 0.338
37.8223 11.396 0.345
37.8428 11.260 0.342
37.8633 11.542 0.347
37.8837 11.552 0.347
37.9042 12.021 0.354
37.9246 13.406 0.374
37.9451 14.104 0.383
37.9656 14.427 0.388
37.9860 16.240 0.411
38.0065 18.063 0.434
38.0270 20.938 0.467
38.0474 21.396 0.472
38.0679 20.906 0.467
38.0884 19.490 0.451
38.1088 18.583 0.440
38.1293 18.167 0.435
38.1497 17.115 0.422
38.1702 15.510 0.402
38.1907 15.010 0.395
38.2111 14.177 0.384
38.2316 13.021 0.368
38.2521 12.594 0.362
38.2725 12.865 0.366
38.2930 13.104 0.369
38.3134 11.479 0.346
38.3339 11.833 0.351
38.3544 11.677 0.349
38.3748 11.875 0.352
38.3953 11.396 0.345
38.4158 12.146 0.356
38.4362 12.542 0.361
38.4567 12.615 0.362
38.4771 13.958 0.381
38.4976 13.990 0.382
38.5181 12.927 0.367
38.5385 12.396 0.359
38.5590 12.521 0.361
38.5795 12.417 0.360
38.5999 11.677 0.349
38.6204 11.042 0.339
38.6408 10.844 0.336
38.6613 9.813 0.320
38.6818 10.156 0.325
38.7022 9.802 0.320
38.7227 9.521 0.315
38.7432 9.625 0.317
38.7636 9.635 0.317
38.7841 9.385 0.313
38.8045 8.781 0.302
38.8250 9.063 0.307
38.8455 9.365 0.312
38.8659 8.740 0.302
38.8864 9.573 0.316
38.9069 8.771 0.302
38.9273 8.833 0.303
38.9478 8.938 0.305
38.9683 8.750 0.302
38.9887 9.042 0.307
39.0092 8.958 0.305
39.0296 9.052 0.307
39.0501 8.469 0.297
39.0706 9.000 0.306
39.0910 8.281 0.294
39.1115 8.677 0.301
39.1320 9.083 0.308
39.1524 8.385 0.296
39.1729 8.469 0.297
39.1933 8.354 0.295
39.2138 8.823 0.303
39.2343 8.990 0.306
39.2547 8.219 0.293
39.2752 8.958 0.305
39.2957 9.042 0.307
39.3161 8.573 0.299
39.3366 9.052 0.307
39.3570 9.146 0.309
39.3775 8.906 0.305
39.3980 8.823 0.303
39.4184 8.302 0.294
39.4389 8.156 0.291
39.4594 7.833 0.286
39.4798 8.656 0.300
39.5003 9.021 0.307
39.5207 8.177 0.292
39.5412 8.333 0.295
39.5617 8.990 0.306
39.5821 8.417 0.296
39.6026 8.500 0.298
39.6231 9.917 0.321
39.6435 8.917 0.305
39.6640 8.938 0.305
39.6844 8.865 0.304
39.7049 9.219 0.310
39.7254 9.823 0.320
39.7458 9.271 0.311
39.7663 10.688 0.334
39.7868 11.135 0.341
39.8072 11.083 0.340
39.8277 11.292 0.343
39.8482 11.177 0.341
39.8686 10.719 0.334
39.8891 10.240 0.327
39.9095 10.708 0.334
39.9300 10.125 0.325
39.9505 11.010 0.339
39.9709 10.313 0.328
39.9914 9.760 0.319
40.0119 9.583 0.316
40.0323 9.250 0.310
40.0528 8.927 0.305
40.0732 9.854 0.320
40.0937 9.813 0.320
40.1142 10.063 0.324
40.1346 10.490 0.331
40.1551 10.021 0.323
40.1756 10.417 0.329
40.1960 11.438 0.345
40.2165 12.042 0.354
40.2369 14.240 0.385
40.2574 17.615 0.428
40.2779 20.719 0.465
40.2983 22.385 0.483
40.3188 18.833 0.443
40.3393 17.354 0.425
40.3597 17.083 0.422
40.3802 17.740 0.430
40.4006 17.667 0.429
40.4211 15.438 0.401
40.4416 12.885 0.366
40.4620 11.271 0.343
40.4825 11.031 0.339
40.5030 10.698 0.334
40.5234 9.625 0.317
40.5439 9.656 0.317
40.5643 9.573 0.316
40.5848 9.406 0.313
40.6053 9.302 0.311
40.6257 9.333 0.312
40.6462 9.167 0.309
40.6667 9.417 0.313
40.6871 9.354 0.312
40.7076 9.802 0.320
40.7281 9.563 0.316
40.7485 10.198 0.326
40.7690 11.917 0.352
40.7894 14.281 0.386
40.8099 18.052 0.434
40.8304 15.740 0.405
40.8508 13.219 0.371
40.8713 12.063 0.354
40.8918 12.542 0.361
40.9122 13.865 0.380
40.9327 12.906 0.367
40.9531 12.042 0.354
40.9736 11.010 0.339
40.9941 10.354 0.328
41.0145 10.615 0.333
41.0350 10.958 0.338
41.0555 10.813 0.336
41.0759 11.573 0.347
41.0964 13.948 0.381
41.1168 15.219 0.398
41.1373 15.823 0.406
41.1578 16.583 0.416
41.1782 16.479 0.414
41.1987 14.198 0.385
41.2192 14.594 0.390
41.2396 14.479 0.388
41.2601 15.385 0.400
41.2805 14.125 0.384
41.3010 12.063 0.354
41.3215 11.021 0.339
41.3419 10.385 0.329
41.3624 10.323 0.328
41.3829 9.552 0.315
41.4033 9.104 0.308
41.4238 8.635 0.300
41.4442 8.635 0.300
41.4647 8.469 0.297
41.4852 8.781 0.302
41.5056 8.667 0.300
41.5261 7.865 0.286
41.5466 7.667 0.283
41.5670 8.302 0.294
41.5875 8.010 0.289
41.6080 8.031 0.289
41.6284 7.833 0.286
41.6489 8.042 0.289
41.6693 7.594 0.281
41.6898 7.833 0.286
41.7103 7.313 0.276
41.7307 7.938 0.288
41.7512 8.292 0.294
41.7717 8.302 0.294
41.7921 7.760 0.284
41.8126 7.813 0.285
41.8330 8.479 0.297
41.8535 9.313 0.311
41.8740 10.813 0.336
41.8944 12.000 0.354
41.9149 11.677 0.349
41.9354 10.063 0.324
41.9558 8.740 0.302
41.9763 9.313 0.311
41.9967 9.896 0.321
42.0172 10.094 0.324
42.0377 9.292 0.311
42.0581 8.417 0.296
42.0786 8.135 0.291
42.0991 8.135 0.291
42.1195 7.906 0.287
42.1400 7.594 0.281
42.1604 7.833 0.286
42.1809 8.115 0.291
42.2014 7.823 0.285
42.2218 7.781 0.285
42.2423 7.313 0.276
42.2628 7.698 0.283
42.2832 7.990 0.288
42.3037 7.969 0.288
42.3242 8.552 0.298
42.3446 7.917 0.287
42.3651 8.135 0.291
42.3855 8.250 0.293
42.4060 8.396 0.296
42.4265 7.958 0.288
42.4469 8.292 0.294
42.4674 9.115 0.308
42.4879 9.177 0.309
42.5083 8.510 0.298
42.5288 9.844 0.320
42.5492 9.448 0.314
42.5697 9.417 0.313
42.5902 9.146 0.309
42.6106 9.250 0.310
42.6311 9.646 0.317
42.6516 9.979 0.322
42.6720 9.552 0.315
42.6925 9.719 0.318
42.7129 9.833 0.320
42.7334 9.208 0.310
42.7539 9.260 0.311
42.7743 9.333 0.312
42.7948 8.760 0.302
42.8153 9.490 0.314
42.8357 8.594 0.299
42.8562 8.938 0.305
42.8766 8.563 0.299
42.8971 7.885 0.287
42.9176 8.167 0.292
42.9380 8.250 0.293
42.9585 8.240 0.293
42.9790 8.938 0.305
42.9994 8.531 0.298
43.0199 8.271 0.294
43.0403 8.094 0.290
43.0608 8.635 0.300
43.0813 8.771 0.302
43.1017 8.594 0.299
43.1222 8.552 0.298
43.1427 9.021 0.307
43.1631 8.583 0.299
43.1836 9.031 0.307
43.2041 9.719 0.318
43.2245 9.438 0.314
43.2450 10.125 0.325
43.2654 9.542 0.315
43.2859 9.667 0.317
43.3064 9.604 0.316
43.3268 10.406 0.329
43.3473 10.635 0.333
43.3678 10.083 0.324
43.3882 10.010 0.323
43.4087 10.229 0.326
43.4291 10.292 0.327
43.4496 10.552 0.332
43.4701 11.125 0.340
43.4905 11.240 0.342
43.5110 11.833 0.351
43.5315 12.604 0.362
43.5519 12.844 0.366
43.5724 14.417 0.388
43.5928 16.604 0.416
43.6133 18.104 0.434
43.6338 19.531 0.451
43.6542 20.375 0.461
43.6747 19.906 0.455
43.6952 18.281 0.436
43.7156 17.344 0.425
43.7361 16.500 0.415
43.7565 16.563 0.415
43.7770 15.938 0.407
43.7975 14.500 0.389
43.8179 13.104 0.369
43.8384 12.042 0.354
43.8589 11.271 0.343
43.8793 11.042 0.339
43.8998 10.313 0.328
43.9202 9.823 0.320
43.9407 8.802 0.303
43.9612 8.979 0.306
43.9816 8.604 0.299
44.0021 8.948 0.305
44.0226 8.781 0.302
44.0430 8.792 0.303
44.0635 8.750 0.302
44.0840 8.156 0.291
44.1044 8.500 0.298
44.1249 7.896 0.287
44.1453 7.771 0.285
44.1658 7.833 0.286
44.1863 7.698 0.283
44.2067 8.042 0.289
44.2272 7.948 0.288
44.2477 7.646 0.282
44.2681 7.740 0.284
44.2886 8.104 0.291
44.3090 8.063 0.290
44.3295 8.396 0.296
44.3500 7.938 0.288
44.3704 7.813 0.285
44.3909 8.083 0.290
44.4114 8.063 0.290
44.4318 7.563 0.281
44.4523 8.135 0.291
44.4727 7.958 0.288
44.4932 7.750 0.284
44.5137 7.781 0.285
44.5341 8.427 0.296
44.5546 7.563 0.281
44.5751 7.677 0.283
44.5955 7.208 0.274
44.6160 7.813 0.285
44.6364 7.635 0.282
44.6569 7.740 0.284
44.6774 7.698 0.283
44.6978 8.135 0.291
44.7183 7.927 0.287
44.7388 7.990 0.288
44.7592 8.010 0.289
44.7797 8.094 0.290
44.8001 8.208 0.292
44.8206 8.906 0.305
44.8411 8.573 0.299
44.8615 8.531 0.298
44.8820 8.875 0.304
44.9025 8.469 0.297
44.9229 8.573 0.299
44.9434 8.292 0.294
44.9639 9.240 0.310
44.9843 8.813 0.303
45.0048 9.240 0.310
45.0252 8.688 0.301
45.0457 8.698 0.301
45.0662 8.927 0.305
45.0866 8.448 0.297
45.1071 8.302 0.294
45.1276 8.552 0.298
45.1480 8.938 0.305
45.1685 9.052 0.307
45.1889 9.688 0.318
45.2094 10.135 0.325
45.2299 10.500 0.331
45.2503 10.656 0.333
45.2708 10.865 0.336
45.2913 10.250 0.327
45.3117 9.594 0.316
45.3322 9.802 0.320
45.3526 10.469 0.330
45.3731 9.813 0.320
45.3936 9.573 0.316
45.4140 8.760 0.302
45.4345 9.115 0.308
45.4550 8.490 0.297
45.4754 8.625 0.300
45.4959 7.531 0.280
45.5163 7.573 0.281
45.5368 8.531 0.298
45.5573 7.490 0.279
45.5777 7.875 0.286
45.5982 7.615 0.282
45.6187 7.521 0.280
45.6391 7.646 0.282
45.6596 7.510 0.280
45.6800 7.500 0.280
45.7005 7.542 0.280
45.7210 7.500 0.280
45.7414 7.792 0.285
45.7619 7.760 0.284
45.7824 7.552 0.280
45.8028 7.156 0.273
45.8233 7.125 0.272
45.8438 7.427 0.278
45.8642 8.448 0.297
45.8847 7.292 0.276
45.9051 7.542 0.280
45.9256 7.750 0.284
45.9461 6.969 0.269
45.9665 7.115 0.272
45.9870 7.250 0.275
46.0075 7.438 0.278
46.0279 7.250 0.275
46.0484 7.063 0.271
46.0688 7.292 0.276
46.0893 7.313 0.276
46.1098 7.010 0.270
46.1302 7.052 0.271
46.1507 7.010 0.270
46.1712 7.125 0.272
46.1916 6.354 0.257
46.2121 7.063 0.271
46.2325 7.073 0.271
46.2530 7.448 0.279
46.2735 7.333 0.276
46.2939 7.115 0.272
46.3144 6.844 0.267
46.3349 7.104 0.272
46.3553 7.073 0.271
46.3758 6.792 0.266
46.3962 6.896 0.268
46.4167 7.125 0.272
46.4372 7.073 0.271
46.4576 6.823 0.267
46.4781 6.573 0.262
46.4986 7.031 0.271
46.5190 6.906 0.268
46.5395 7.396 0.278
46.5600 7.333 0.276
46.5804 8.219 0.293
46.6009 8.677 0.301
46.6213 9.583 0.316
46.6418 9.604 0.316
46.6623 8.792 0.303
46.6827 8.260 0.293
46.7032 8.292 0.294
46.7237 7.677 0.283
46.7441 8.469 0.297
46.7646 8.802 0.303
46.7850 8.365 0.295
46.8055 7.833 0.286
46.8260 6.583 0.262
46.8464 7.219 0.274
46.8669 7.240 0.275
46.8874 6.771 0.266
46.9078 6.906 0.268
46.9283 7.000 0.270
46.9487 7.188 0.274
46.9692 6.917 0.268
46.9897 7.021 0.270
47.0101 7.031 0.271
47.0306 6.927 0.269
47.0511 7.115 0.272
47.0715 6.677 0.264
47.0920 6.323 0.257
47.1124 6.896 0.268
47.1329 7.313 0.276
47.1534 7.031 0.271
47.1738 6.854 0.267
47.1943 7.083 0.272
47.2148 6.615 0.262
47.2352 7.073 0.271
47.2557 6.792 0.266
47.2761 6.771 0.266
47.2966 6.854 0.267
47.3171 7.219 0.274
47.3375 7.563 0.281
47.3580 7.073 0.271
47.3785 7.208 0.274
47.3989 7.281 0.275
47.4194 7.688 0.283
47.4399 7.313 0.276
47.4603 8.219 0.293
47.4808 7.969 0.288
47.5012 8.615 0.300
47.5217 8.792 0.303
47.5422 9.990 0.323
47.5626 10.240 0.327
47.5831 11.281 0.343
47.6036 12.750 0.364
47.6240 13.021 0.368
47.6445 13.458 0.374
47.6649 12.604 0.362
47.6854 11.677 0.349
47.7059 11.854 0.351
47.7263 11.656 0.348
47.7468 11.917 0.352
47.7673 10.563 0.332
47.7877 10.250 0.327
47.8082 9.177 0.309
47.8286 9.042 0.307
47.8491 8.156 0.291
47.8696 8.208 0.292
47.8900 8.563 0.299
47.9105 8.063 0.290
47.9310 7.760 0.284
47.9514 7.896 0.287
47.9719 7.635 0.282
47.9923 7.198 0.274
48.0128 7.625 0.282
48.0333 7.781 0.285
48.0537 7.688 0.283
48.0742 7.333 0.276
48.0947 7.469 0.279
48.1151 7.552 0.280
48.1356 7.531 0.280
48.1560 7.490 0.279
48.1765 8.031 0.289
48.1970 7.292 0.276
48.2174 7.656 0.282
48.2379 6.885 0.268
48.2584 7.667 0.283
48.2788 7.385 0.277
48.2993 7.625 0.282
48.3198 7.750 0.284
48.3402 8.823 0.303
48.3607 8.115 0.291
48.3811 8.698 0.301
48.4016 8.104 0.291
48.4221 7.594 0.281
48.4425 7.594 0.281
48.4630 7.188 0.274
48.4835 7.563 0.281
48.5039 7.906 0.287
48.5244 7.490 0.279
48.5448 7.167 0.273
48.5653 7.396 0.278
48.5858 7.198 0.274
48.6062 7.104 0.272
48.6267 6.969 0.269
48.6472 7.448 0.279
48.6676 7.240 0.275
48.6881 7.771 0.285
48.7085 7.729 0.284
48.7290 7.510 0.280
48.7495 7.292 0.276
48.7699 7.219 0.274
48.7904 7.302 0.276
48.8109 7.073 0.271
48.8313 7.125 0.272
48.8518 7.188 0.274
48.8722 7.010 0.270
48.8927 6.604 0.262
48.9132 7.083 0.272
48.9336 7.052 0.271
48.9541 6.750 0.265
48.9746 6.479 0.260
48.9950 7.115 0.272
49.0155 6.958 0.269
49.0359 6.906 0.268
49.0564 6.500 0.260
49.0769 7.375 0.277
49.0973 7.594 0.281
49.1178 7.583 0.281
49.1383 6.740 0.265
49.1587 6.979 0.270
49.1792 6.688 0.264
49.1997 6.594 0.262
49.2201 7.417 0.278
49.2406 7.594 0.281
49.2610 6.625 0.263
49.2815 7.292 0.276
49.3020 7.156 0.273
49.3224 7.469 0.279
49.3429 8.375 0.295
49.3634 8.208 0.292
49.3838 7.156 0.273
49.4043 7.271 0.275
49.4247 7.292 0.276
49.4452 6.896 0.268
49.4657 7.885 0.287
49.4861 7.500 0.280
49.5066 7.385 0.277
49.5271 7.917 0.287
49.5475 7.719 0.284
49.5680 6.833 0.267
49.5884 7.594 0.281
49.6089 8.229 0.293
49.6294 8.031 0.289
49.6498 8.281 0.294
49.6703 8.698 0.301
49.6908 8.229 0.293
49.7112 8.594 0.299
49.7317 8.781 0.302
49.7521 9.833 0.320
49.7726 10.927 0.337
49.7931 12.073 0.355
49.8135 13.563 0.376
49.8340 14.469 0.388
49.8545 14.896 0.394
49.8749 15.396 0.400
49.8954 14.823 0.393
49.9158 14.750 0.392
49.9363 14.250 0.385
49.9568 13.510 0.375
49.9772 12.990 0.368
49.9977 13.167 0.370
50.0182 12.469 0.360
50.0386 11.833 0.351
50.0591 11.156 0.341
50.0796 10.240 0.327
50.1000 9.958 0.322
50.1205 9.177 0.309
50.1409 9.365 0.312
50.1614 9.271 0.311
50.1819 8.781 0.302
50.2023 10.010 0.323
50.2228 9.833 0.320
50.2433 9.510 0.315
50.2637 9.281 0.311
50.2842 10.396 0.329
50.3046 9.021 0.307
50.3251 9.271 0.311
50.3456 8.938 0.305
50.3660 8.281 0.294
50.3865 8.479 0.297
50.4070 8.177 0.292
50.4274 7.677 0.283
50.4479 8.052 0.290
50.4683 7.917 0.287
50.4888 7.906 0.287
50.5093 6.969 0.269
50.5297 7.479 0.279
50.5502 7.000 0.270
50.5707 7.292 0.276
50.5911 7.375 0.277
50.6116 7.354 0.277
50.6320 7.573 0.281
50.6525 6.833 0.267
50.6730 7.021 0.270
50.6934 7.125 0.272
50.7139 7.510 0.280
50.7344 7.115 0.272
50.7548 7.135 0.273
50.7753 7.229 0.274
50.7958 6.906 0.268
50.8162 7.427 0.278
50.8367 7.469 0.279
50.8571 7.354 0.277
50.8776 7.406 0.278
50.8981 7.583 0.281
50.9185 9.042 0.307
50.9390 9.271 0.311
50.9595 10.094 0.324
50.9799 11.229 0.342
51.0004 11.063 0.339
51.0208 10.125 0.325
51.0413 9.667 0.317
51.0618 9.625 0.317
51.0822 9.365 0.312
51.1027 9.344 0.312
51.1232 9.865 0.321
51.1436 8.917 0.305
51.1641 8.479 0.297
51.1845 7.771 0.285
51.2050 7.604 0.281
51.2255 7.479 0.279
51.2459 7.563 0.281
51.2664 7.177 0.273
51.2869 7.552 0.280
51.3073 7.646 0.282
51.3278 7.000 0.270
51.3482 7.115 0.272
51.3687 7.271 0.275
51.3892 7.188 0.274
51.4096 6.906 0.268
51.4301 7.427 0.278
51.4506 7.229 0.274
51.4710 6.844 0.267
51.4915 6.688 0.264
51.5119 6.698 0.264
51.5324 6.115 0.252
51.5529 6.938 0.269
51.5733 7.021 0.270
51.5938 7.708 0.283
51.6143 7.656 0.282
51.6347 8.271 0.294
51.6552 8.677 0.301
51.6757 8.469 0.297
51.6961 8.771 0.302
51.7166 7.917 0.287
51.7370 8.000 0.289
51.7575 7.729 0.284
51.7780 7.906 0.287
51.7984 7.938 0.288
51.8189 7.719 0.284
51.8394 7.729 0.284
51.8598 7.313 0.276
51.8803 7.250 0.275
51.9007 7.010 0.270
51.9212 7.521 0.280
51.9417 6.906 0.268
51.9621 6.646 0.263
51.9826 6.667 0.264
52.0031 6.563 0.261
52.0235 6.302 0.256
52.0440 6.448 0.259
52.0644 6.615 0.262
52.0849 6.594 0.262
52.1054 6.448 0.259
52.1258 6.302 0.256
52.1463 6.323 0.257
52.1668 6.917 0.268
52.1872 6.708 0.264
52.2077 6.563 0.261
52.2281 6.375 0.258
52.2486 6.365 0.257
52.2691 6.792 0.266
52.2895 6.448 0.259
52.3100 6.396 0.258
52.3305 7.354 0.277
52.3509 6.708 0.264
52.3714 6.552 0.261
52.3918 6.521 0.261
52.4123 6.865 0.267
52.4328 6.979 0.270
52.4532 6.375 0.258
52.4737 6.104 0.252
52.4942 6.271 0.256
52.5146 6.323 0.257
52.5351 6.188 0.254
52.5556 6.281 0.256
52.5760 6.281 0.256
52.5965 6.292 0.256
52.6169 5.969 0.249
52.6374 6.042 0.251
52.6579 6.177 0.254
52.6783 6.198 0.254
52.6988 6.323 0.257
52.7193 6.094 0.252
52.7397 6.250 0.255
52.7602 5.531 0.240
52.7806 6.333 0.257
52.8011 5.521 0.240
52.8216 5.635 0.242
52.8420 5.771 0.245
52.8625 5.813 0.246
52.8830 5.969 0.249
52.9034 5.708 0.244
52.9239 5.448 0.238
52.9443 6.188 0.254
52.9648 6.125 0.253
52.9853 5.948 0.249
53.0057 6.083 0.252
53.0262 6.490 0.260
53.0467 6.042 0.251
53.0671 7.031 0.271
53.0876 6.719 0.265
53.1080 5.865 0.247
53.1285 6.073 0.252
53.1490 6.333 0.257
53.1694 5.938 0.249
53.1899 6.146 0.253
53.2104 5.531 0.240
53.2308 5.448 0.238
53.2513 5.854 0.247
53.2717 5.813 0.246
53.2922 5.781 0.245
53.3127 6.010 0.250
53.3331 5.854 0.247
53.3536 5.792 0.246
53.3741 5.667 0.243
53.3945 5.698 0.244
53.4150 5.646 0.243
53.4355 5.365 0.236
53.4559 5.948 0.249
53.4764 5.635 0.242
53.4968 5.875 0.247
53.5173 5.854 0.247
53.5378 5.531 0.240
53.5582 5.865 0.247
53.5787 5.615 0.242
53.5992 5.708 0.244
53.6196 5.792 0.246
53.6401 5.625 0.242
53.6605 5.906 0.248
53.6810 5.802 0.246
53.7015 6.135 0.253
53.7219 6.021 0.250
53.7424 6.250 0.255
53.7629 5.958 0.249
53.7833 5.813 0.246
53.8038 5.698 0.244
53.8242 5.625 0.242
53.8447 5.792 0.246
53.8652 5.385 0.237
53.8856 5.885 0.248
53.9061 5.875 0.247
53.9266 5.927 0.248
53.9470 5.802 0.246
53.9675 5.708 0.244
53.9879 5.448 0.238
54.0084 5.792 0.246
54.0289 5.844 0.247
54.0493 5.635 0.242
54.0698 5.844 0.247
54.0903 5.604 0.242
54.1107 5.740 0.245
54.1312 5.844 0.247
54.1516 6.010 0.250
54.1721 5.792 0.246
54.1926 6.271 0.256
54.2130 5.531 0.240
54.2335 5.677 0.243
54.2540 6.531 0.261
54.2744 5.979 0.250
54.2949 6.000 0.250
54.3154 5.833 0.247
54.3358 6.198 0.254
54.3563 5.906 0.248
54.3767 5.990 0.250
54.3972 5.542 0.240
54.4177 5.625 0.242
54.4381 5.802 0.246
54.4586 5.771 0.245
54.4791 5.854 0.247
54.4995 5.719 0.244
54.5200 5.750 0.245
54.5404 5.938 0.249
54.5609 6.427 0.259
54.5814 6.354 0.257
54.6018 6.344 0.257
54.6223 5.563 0.241
54.6428 5.917 0.248
54.6632 6.073 0.252
54.6837 5.531 0.240
54.7041 5.917 0.248
54.7246 6.125 0.253
54.7451 5.667 0.243
54.7655 6.063 0.251
54.7860 5.458 0.238
54.8065 5.427 0.238
54.8269 5.510 0.240
54.8474 5.719 0.244
54.8678 6.000 0.250
54.8883 6.083 0.252
54.9088 5.333 0.236
54.9292 5.438 0.238
54.9497 6.156 0.253
54.9702 6.354 0.257
54.9906 6.333 0.257
55.0111 6.740 0.265
55.0316 7.219 0.274
55.0520 8.052 0.290
55.0725 7.917 0.287
55.0929 9.927 0.322
55.1134 10.458 0.330
55.1339 10.490 0.331
55.1543 11.729 0.350
55.1748 12.542 0.361
55.1953 13.500 0.375
55.2157 13.708 0.378
55.2362 13.396 0.374
55.2566 12.625 0.363
55.2771 11.073 0.340
55.2976 10.896 0.337
55.3180 10.917 0.337
55.3385 11.313 0.343
55.3590 10.458 0.330
55.3794 10.188 0.326
55.3999 8.469 0.297
55.4203 8.198 0.292
55.4408 7.646 0.282
55.4613 7.323 0.276
55.4817 7.552 0.280
55.5022 6.240 0.255
55.5227 6.677 0.264
55.5431 6.438 0.259
55.5636 6.458 0.259
55.5840 6.146 0.253
55.6045 6.000 0.250
55.6250 6.313 0.256
55.6454 5.979 0.250
55.6659 5.917 0.248
55.6864 6.260 0.255
55.7068 6.635 0.263
55.7273 6.719 0.265
55.7477 6.302 0.256
55.7682 5.813 0.246
55.7887 6.260 0.255
55.8091 6.510 0.260
55.8296 6.635 0.263
55.8501 6.302 0.256
55.8705 7.313 0.276
55.8910 6.667 0.264
55.9115 6.563 0.261
55.9319 6.302 0.256
55.9524 6.615 0.262
55.9728 6.500 0.260
55.9933 6.563 0.261
56.0138 6.396 0.258
56.0342 6.969 0.269
56.0547 7.177 0.273
56.0752 7.188 0.274
56.0956 7.750 0.284
56.1161 7.406 0.278
56.1365 7.729 0.284
56.1570 8.042 0.289
56.1775 8.854 0.304
56.1979 9.021 0.307
56.2184 9.552 0.315
56.2389 9.458 0.314
56.2593 8.656 0.300
56.2798 8.531 0.298
56.3002 8.385 0.296
56.3207 7.323 0.276
56.3412 7.385 0.277
56.3616 7.677 0.283
56.3821 7.177 0.273
56.4026 7.427 0.278
56.4230 7.750 0.284
56.4435 6.792 0.266
56.4639 6.896 0.268
56.4844 6.000 0.250
56.5049 6.188 0.254
56.5253 5.760 0.245
56.5458 6.063 0.251
56.5663 5.542 0.240
56.5867 5.729 0.244
56.6072 5.490 0.239
56.6276 6.010 0.250
56.6481 6.417 0.259
56.6686 6.333 0.257
56.6890 7.010 0.270
56.7095 7.354 0.277
56.7300 7.083 0.272
56.7504 6.313 0.256
56.7709 5.969 0.249
56.7914 5.885 0.248
56.8118 5.688 0.243
56.8323 6.104 0.252
56.8527 6.229 0.255
56.8732 6.302 0.256
56.8937 6.115 0.252
56.9141 5.729 0.244
56.9346 5.000 0.228
56.9551 5.385 0.237
56.9755 5.510 0.240
56.9960 4.896 0.226
57.0164 5.625 0.242
57.0369 5.219 0.233
57.0574 4.906 0.226
57.0778 5.448 0.238
57.0983 5.208 0.233
57.1188 5.417 0.238
57.1392 5.490 0.239
57.1597 4.813 0.224
57.1801 5.271 0.234
57.2006 5.344 0.236
57.2211 5.417 0.238
57.2415 5.646 0.243
57.2620 4.979 0.228
57.2825 5.927 0.248
57.3029 5.813 0.246
57.3234 5.188 0.232
57.3438 5.344 0.236
57.3643 5.250 0.234
57.3848 5.885 0.248
57.4052 5.021 0.229
57.4257 5.219 0.233
57.4462 5.333 0.236
57.4666 6.094 0.252
57.4871 5.323 0.235
57.5075 5.563 0.241
57.5280 5.740 0.245
57.5485 5.969 0.249
57.5689 5.427 0.238
57.5894 5.781 0.245
57.6099 6.021 0.250
57.6303 5.417 0.238
57.6508 5.802 0.246
57.6713 5.740 0.245
57.6917 5.875 0.247
57.7122 6.021 0.250
57.7326 6.104 0.252
57.7531 6.427 0.259
57.7736 6.146 0.253
57.7940 6.417 0.259
57.8145 6.552 0.261
57.8350 6.792 0.266
57.8554 8.365 0.295
57.8759 8.031 0.289
57.8963 8.458 0.297
57.9168 8.917 0.305
57.9373 9.292 0.311
57.9577 9.323 0.312
57.9782 8.729 0.302
57.9987 8.604 0.299
58.0191 8.375 0.295
58.0396 8.333 0.295
58.0600 8.063 0.290
58.0805 8.135 0.291
58.1010 8.229 0.293
58.1214 7.479 0.279
58.1419 7.146 0.273
58.1624 6.760 0.265
58.1828 6.531 0.261
58.2033 6.542 0.261
58.2237 6.740 0.265
58.2442 6.000 0.250
58.2647 6.156 0.253
58.2851 6.531 0.261
58.3056 5.844 0.247
58.3261 6.073 0.252
58.3465 6.406 0.258
58.3670 6.125 0.253
58.3874 6.156 0.253
58.4079 6.135 0.253
58.4284 6.083 0.252
58.4488 5.938 0.249
58.4693 5.823 0.246
58.4898 6.219 0.255
58.5102 5.719 0.244
58.5307 6.115 0.252
58.5512 6.542 0.261
58.5716 6.094 0.252
58.5921 6.021 0.250
58.6125 5.469 0.239
58.6330 5.760 0.245
58.6535 5.573 0.241
58.6739 5.719 0.244
58.6944 5.833 0.247
58.7149 5.906 0.248
58.7353 5.833 0.247
58.7558 5.875 0.247
58.7762 5.469 0.239
58.7967 5.760 0.245
58.8172 5.333 0.236
58.8376 5.625 0.242
58.8581 5.365 0.236
58.8786 5.490 0.239
58.8990 5.365 0.236
58.9195 5.021 0.229
58.9399 5.042 0.229
58.9604 5.458 0.238
58.9809 5.365 0.236
59.0013 5.292 0.235
59.0218 5.396 0.237
59.0423 5.427 0.238
59.0627 5.594 0.241
59.0832 5.896 0.248
59.1036 6.240 0.255
59.1241 6.333 0.257
59.1446 6.219 0.255
59.1650 6.760 0.265
59.1855 6.646 0.263
59.2060 7.510 0.280
59.2264 7.344 0.277
59.2469 6.750 0.265
59.2674 7.188 0.274
59.2878 6.792 0.266
59.3083 6.375 0.258
59.3287 6.344 0.257
59.3492 6.365 0.257
59.3697 6.281 0.256
59.3901 6.135 0.253
59.4106 6.063 0.251
59.4311 5.823 0.246
59.4515 6.094 0.252
59.4720 5.260 0.234
59.4924 5.479 0.239
59.5129 5.656 0.243
59.5334 5.688 0.243
59.5538 5.667 0.243
59.5743 5.281 0.235
59.5948 5.094 0.230
59.6152 5.448 0.238
59.6357 5.510 0.240
59.6561 5.604 0.242
59.6766 5.333 0.236
59.6971 5.521 0.240
59.7175 5.542 0.240
59.7380 5.490 0.239
59.7585 5.750 0.245
59.7789 6.000 0.250
59.7994 6.063 0.251
59.8198 6.365 0.257
59.8403 6.646 0.263
59.8608 6.625 0.263
59.8812 7.115 0.272
59.9017 7.469 0.279
59.9222 7.531 0.280
59.9426 7.271 0.275
59.9631 6.583 0.262
59.9835 6.479 0.260
60.0040 6.552 0.261
60.0245 6.667 0.264
60.0449 6.677 0.264
60.0654 6.198 0.254
60.0859 6.260 0.255
60.1063 6.542 0.261
60.1268 6.375 0.258
60.1473 5.667 0.243
60.1677 5.656 0.243
60.1882 5.323 0.235
60.2086 5.490 0.239
60.2291 5.469 0.239
60.2496 5.135 0.231
60.2700 5.448 0.238
60.2905 5.563 0.241
60.3110 5.281 0.235
60.3314 5.510 0.240
60.3519 5.156 0.232
60.3723 5.417 0.238
60.3928 5.302 0.235
60.4133 5.083 0.230
60.4337 5.344 0.236
60.4542 5.219 0.233
60.4747 5.229 0.233
60.4951 4.969 0.228
60.5156 4.750 0.222
60.5360 5.073 0.230
60.5565 5.094 0.230
60.5770 4.365 0.213
60.5974 4.646 0.220
60.6179 4.917 0.226
60.6384 4.729 0.222
60.6588 4.406 0.214
60.6793 5.271 0.234
60.6997 4.656 0.220
60.7202 5.094 0.230
60.7407 5.417 0.238
60.7611 4.792 0.223
60.7816 4.594 0.219
60.8021 5.271 0.234
60.8225 5.135 0.231
60.8430 4.906 0.226
60.8634 5.250 0.234
60.8839 5.427 0.238
60.9044 5.385 0.237
60.9248 5.427 0.238
60.9453 4.938 0.227
60.9658 5.302 0.235
60.9862 5.406 0.237
61.0067 5.208 0.233
61.0272 4.844 0.225
61.0476 5.083 0.230
61.0681 4.792 0.223
61.0885 5.031 0.229
61.1090 5.083 0.230
61.1295 4.833 0.224
61.1499 5.083 0.230
61.1704 4.844 0.225
61.1909 4.927 0.227
61.2113 4.885 0.226
61.2318 4.917 0.226
61.2522 5.208 0.233
61.2727 4.906 0.226
61.2932 4.563 0.218
61.3136 5.000 0.228
61.3341 4.760 0.223
61.3546 5.021 0.229
61.3750 5.583 0.241
61.3955 5.198 0.233
61.4159 5.406 0.237
61.4364 5.229 0.233
61.4569 5.198 0.233
61.4773 5.396 0.237
61.4978 5.000 0.228
61.5183 5.115 0.231
61.5387 5.615 0.242
61.5592 5.156 0.232
61.5796 5.302 0.235
61.6001 5.302 0.235
61.6206 4.781 0.223
61.6410 4.833 0.224
61.6615 5.271 0.234
61.6820 5.010 0.228
61.7024 5.135 0.231
61.7229 5.063 0.230
61.7433 4.917 0.226
61.7638 4.729 0.222
61.7843 4.219 0.210
61.8047 4.958 0.227
61.8252 4.958 0.227
61.8457 4.792 0.223
61.8661 4.802 0.224
61.8866 5.000 0.228
61.9071 5.167 0.232
61.9275 5.198 0.233
61.9480 5.250 0.234
61.9684 5.260 0.234
61.9889 5.156 0.232
62.0094 4.688 0.221
62.0298 5.396 0.237
62.0503 5.417 0.238
62.0708 5.573 0.241
62.0912 5.740 0.245
62.1117 5.635 0.242
62.1321 5.677 0.243
62.1526 5.698 0.244
62.1731 6.406 0.258
62.1935 6.094 0.252
62.2140 5.781 0.245
62.2345 5.729 0.244
62.2549 5.302 0.235
62.2754 5.344 0.236
62.2958 5.667 0.243
62.3163 5.625 0.242
62.3368 5.344 0.236
62.3572 5.563 0.241
62.3777 5.063 0.230
62.3982 5.563 0.241
62.4186 4.760 0.223
62.4391 5.083 0.230
62.4595 4.719 0.222
62.4800 4.917 0.226
62.5005 4.938 0.227
62.5209 4.854 0.225
62.5414 4.833 0.224
62.5619 4.990 0.228
62.5823 4.938 0.227
62.6028 4.802 0.224
62.6232 4.833 0.224
62.6437 4.625 0.219
62.6642 4.573 0.218
62.6846 4.656 0.220
62.7051 4.729 0.222
62.7256 4.708 0.221
62.7460 4.885 0.226
62.7665 4.875 0.225
62.7870 4.927 0.227
62.8074 4.729 0.222
62.8279 4.438 0.215
62.8483 4.677 0.221
62.8688 5.021 0.229
62.8893 4.625 0.219
62.9097 4.552 0.218
62.9302 4.865 0.225
62.9507 5.073 0.230
62.9711 4.740 0.222
62.9916 4.885 0.226
63.0120 4.552 0.218
63.0325 5.156 0.232
63.0530 4.781 0.223
63.0734 4.719 0.222
63.0939 4.573 0.218
63.1144 4.729 0.222
63.1348 4.948 0.227
63.1553 4.885 0.226
63.1757 5.042 0.229
63.1962 5.063 0.230
63.2167 5.219 0.233
63.2371 5.073 0.230
63.2576 5.177 0.232
63.2781 4.948 0.227
63.2985 5.010 0.228
63.3190 5.052 0.229
63.3394 4.552 0.218
63.3599 4.802 0.224
63.3804 4.990 0.228
63.4008 5.115 0.231
63.4213 4.823 0.224
63.4418 5.469 0.239
63.4622 5.365 0.236
63.4827 5.177 0.232
63.5032 4.958 0.227
63.5236 4.927 0.227
63.5441 5.313 0.235
63.5645 5.344 0.236
63.5850 5.240 0.234
63.6055 5.125 0.231
63.6259 5.604 0.242
63.6464 5.229 0.233
63.6669 5.219 0.233
63.6873 5.708 0.244
63.7078 5.302 0.235
63.7282 5.292 0.235
63.7487 4.667 0.220
63.7692 5.448 0.238
63.7896 5.333 0.236
63.8101 6.104 0.252
63.8306 5.469 0.239
63.8510 5.458 0.238
63.8715 5.604 0.242
63.8919 5.677 0.243
63.9124 5.146 0.232
63.9329 5.667 0.243
63.9533 5.333 0.236
63.9738 5.510 0.240
63.9943 5.792 0.246
64.0147 4.969 0.228
64.0352 5.802 0.246
64.0556 5.583 0.241
64.0761 5.260 0.234
64.0966 5.490 0.239
64.1170 5.792 0.246
64.1375 5.563 0.241
64.1580 5.469 0.239
64.1784 5.771 0.245
64.1989 5.719 0.244
64.2193 5.188 0.232
64.2398 5.333 0.236
64.2603 5.500 0.239
64.2807 5.479 0.239
64.3012 5.583 0.241
64.3217 5.667 0.243
64.3421 5.302 0.235
64.3626 5.521 0.240
64.3831 5.531 0.240
64.4035 5.667 0.243
64.4240 5.448 0.238
64.4444 5.365 0.236
64.4649 5.500 0.239
64.4854 5.740 0.245
64.5058 5.823 0.246
64.5263 5.677 0.243
64.5468 5.427 0.238
64.5672 5.938 0.249
64.5877 6.219 0.255
64.6081 6.583 0.262
64.6286 6.667 0.264
64.6491 6.750 0.265
64.6695 7.438 0.278
64.6900 7.292 0.276
64.7105 7.542 0.280
64.7309 7.229 0.274
64.7514 6.563 0.261
64.7718 6.865 0.267
64.7923 7.167 0.273
64.8128 6.594 0.262
64.8332 6.510 0.260
64.8537 6.698 0.264
64.8742 6.521 0.261
64.8946 6.094 0.252
64.9151 5.938 0.249
64.9355 5.823 0.246
64.9560 5.292 0.235
64.9765 5.813 0.246
64.9969 5.542 0.240
65.0174 5.125 0.231
65.0379 5.177 0.232
65.0583 5.469 0.239
65.0788 5.219 0.233
65.0992 5.115 0.231
65.1197 4.969 0.228
65.1402 5.073 0.230
65.1606 5.198 0.233
65.1811 5.354 0.236
65.2016 5.167 0.232
65.2220 4.844 0.225
65.2425 4.646 0.220
65.2630 4.906 0.226
65.2834 4.792 0.223
65.3039 5.167 0.232
65.3243 4.938 0.227
65.3448 5.146 0.232
65.3653 4.760 0.223
65.3857 4.938 0.227
65.4062 4.948 0.227
65.4267 5.010 0.228
65.4471 5.271 0.234
65.4676 4.896 0.226
65.4880 5.198 0.233
65.5085 4.781 0.223
65.5290 5.458 0.238
65.5494 5.271 0.234
65.5699 5.292 0.235
65.5904 5.729 0.244
65.6108 5.531 0.240
65.6313 5.885 0.248
65.6517 5.135 0.231
65.6722 5.313 0.235
65.6927 5.365 0.236
65.7131 5.375 0.237
65.7336 5.427 0.238
65.7541 5.406 0.237
65.7745 5.448 0.238
65.7950 5.167 0.232
65.8154 4.958 0.227
65.8359 5.271 0.234
65.8564 5.063 0.230
65.8768 4.823 0.224
65.8973 5.302 0.235
65.9178 5.365 0.236
65.9382 4.427 0.215
65.9587 4.490 0.216
65.9791 4.646 0.220
65.9996 5.063 0.230
66.0201 4.729 0.222
66.0405 4.427 0.215
66.0610 4.885 0.226
66.0815 5.167 0.232
66.1019 4.865 0.225
66.1224 4.813 0.224
66.1429 4.938 0.227
66.1633 5.000 0.228
66.1838 4.531 0.217
66.2042 4.135 0.208
66.2247 4.938 0.227
66.2452 4.740 0.222
66.2656 5.000 0.228
66.2861 4.823 0.224
66.3066 4.656 0.220
66.3270 5.031 0.229
66.3475 4.667 0.220
66.3679 4.521 0.217
66.3884 4.750 0.222
66.4089 4.802 0.224
66.4293 4.573 0.218
66.4498 4.792 0.223
66.4703 4.688 0.221
66.4907 4.771 0.223
66.5112 4.646 0.220
66.5316 4.510 0.217
66.5521 4.583 0.219
66.5726 4.563 0.218
66.5930 4.469 0.216
66.6135 4.875 0.225
66.6340 4.677 0.221
66.6544 4.760 0.223
66.6749 4.479 0.216
66.6953 4.865 0.225
66.7158 4.354 0.213
66.7363 4.563 0.218
66.7567 4.719 0.222
66.7772 5.073 0.230
66.7977 4.625 0.219
66.8181 4.698 0.221
66.8386 4.740 0.222
66.8590 4.688 0.221
66.8795 4.573 0.218
66.9000 4.938 0.227
66.9204 4.865 0.225
66.9409 5.135 0.231
66.9614 5.281 0.235
66.9818 5.229 0.233
67.0023 5.365 0.236
67.0228 6.135 0.253
67.0432 5.542 0.240
67.0637 5.698 0.244
67.0841 6.292 0.256
67.1046 7.135 0.273
67.1251 7.771 0.285
67.1455 7.854 0.286
67.1660 7.906 0.287
67.1865 8.031 0.289
67.2069 7.927 0.287
67.2274 7.771 0.285
67.2478 7.469 0.279
67.2683 6.823 0.267
67.2888 7.115 0.272
67.3092 7.156 0.273
67.3297 6.615 0.262
67.3502 7.156 0.273
67.3706 6.885 0.268
67.3911 6.823 0.267
67.4115 6.802 0.266
67.4320 6.281 0.256
67.4525 6.208 0.254
67.4729 5.604 0.242
67.4934 5.385 0.237
67.5139 4.844 0.225
67.5343 5.156 0.232
67.5548 5.396 0.237
67.5752 5.292 0.235
67.5957 5.271 0.234
67.6162 5.573 0.241
67.6366 5.188 0.232
67.6571 5.021 0.229
67.6776 4.854 0.225
67.6980 5.094 0.230
67.7185 5.219 0.233
67.7389 5.219 0.233
67.7594 4.625 0.219
67.7799 5.115 0.231
67.8003 4.740 0.222
67.8208 4.802 0.224
67.8413 4.656 0.220
67.8617 4.938 0.227
67.8822 4.604 0.219
67.9027 4.615 0.219
67.9231 4.750 0.222
67.9436 4.740 0.222
67.9640 4.573 0.218
67.9845 5.146 0.232
68.0050 4.833 0.224
68.0254 5.458 0.238
68.0459 5.240 0.234
68.0664 4.979 0.228
68.0868 5.063 0.230
68.1073 4.885 0.226
68.1277 4.729 0.222
68.1482 4.813 0.224
68.1687 5.125 0.231
68.1891 4.865 0.225
68.2096 5.146 0.232
68.2301 4.969 0.228
68.2505 5.281 0.235
68.2710 4.906 0.226
68.2914 5.563 0.241
68.3119 5.552 0.240
68.3324 5.500 0.239
68.3528 5.729 0.244
68.3733 6.156 0.253
68.3938 5.698 0.244
68.4142 6.198 0.254
68.4347 5.156 0.232
68.4551 5.396 0.237
68.4756 5.000 0.228
68.4961 5.354 0.236
68.5165 5.219 0.233
68.5370 4.792 0.223
68.5575 5.313 0.235
68.5779 5.240 0.234
68.5984 5.000 0.228
68.6189 4.677 0.221
68.6393 4.563 0.218
68.6598 4.885 0.226
68.6802 4.698 0.221
68.7007 4.927 0.227
68.7212 4.771 0.223
68.7416 4.948 0.227
68.7621 4.854 0.225
68.7826 4.813 0.224
68.8030 5.156 0.232
68.8235 4.833 0.224
68.8439 5.010 0.228
68.8644 5.448 0.238
68.8849 5.500 0.239
68.9053 5.500 0.239
68.9258 5.229 0.233
68.9463 5.458 0.238
68.9667 5.719 0.244
68.9872 5.792 0.246
69.0076 6.323 0.257
69.0281 6.083 0.252
69.0486 6.198 0.254
69.0690 5.990 0.250
69.0895 5.563 0.241
69.1100 5.885 0.248
69.1304 5.906 0.248
69.1509 5.469 0.239
69.1713 5.354 0.236
69.1918 5.479 0.239
69.2123 5.760 0.245
69.2327 5.563 0.241
69.2532 5.573 0.241
69.2737 5.375 0.237
69.2941 5.010 0.228
69.3146 5.375 0.237
69.3350 5.094 0.230
69.3555 4.542 0.218
69.3760 4.688 0.221
69.3964 4.646 0.220
69.4169 4.604 0.219
69.4374 4.583 0.219
69.4578 4.594 0.219
69.4783 4.604 0.219
69.4988 4.573 0.218
69.5192 4.188 0.209
69.5397 4.240 0.210
69.5601 4.552 0.218
69.5806 4.406 0.214
69.6011 4.385 0.214
69.6215 4.115 0.207
69.6420 4.094 0.207
69.6625 4.229 0.210
69.6829 4.208 0.209
69.7034 4.167 0.208
69.7238 3.990 0.204
69.7443 4.260 0.211
69.7648 4.448 0.215
69.7852 4.146 0.208
69.8057 4.281 0.211
69.8262 4.031 0.205
69.8466 3.688 0.196
69.8671 4.031 0.205
69.8875 4.385 0.214
69.9080 4.406 0.214
69.9285 4.302 0.212
69.9489 4.344 0.213
69.9694 4.125 0.207
69.9899 4.208 0.209
70.0103 4.260 0.211
70.0308 4.052 0.205
70.0512 3.958 0.203
70.0717 4.333 0.212
70.0922 4.417 0.214
70.1126 4.198 0.209
70.1331 4.135 0.208
70.1536 3.771 0.198
70.1740 4.135 0.208
70.1945 4.458 0.216
70.2149 4.469 0.216
70.2354 4.313 0.212
70.2559 4.313 0.212
70.2763 4.188 0.209
70.2968 4.646 0.220
70.3173 4.146 0.208
70.3377 4.427 0.215
70.3582 4.021 0.205
70.3787 4.073 0.206
70.3991 3.896 0.201
70.4196 4.104 0.207
70.4400 4.583 0.219
70.4605 4.531 0.217
70.4810 3.823 0.200
70.5014 4.219 0.210
70.5219 4.323 0.212
70.5424 4.458 0.216
70.5628 3.979 0.204
70.5833 3.688 0.196
70.6037 4.156 0.208
70.6242 4.573 0.218
70.6447 4.375 0.213
70.6651 3.938 0.203
70.6856 4.167 0.208
70.7061 4.219 0.210
70.7265 3.927 0.202
70.7470 3.844 0.200
70.7674 4.000 0.204
70.7879 4.042 0.205
70.8084 4.188 0.209
70.8288 3.875 0.201
70.8493 4.302 0.212
70.8698 4.271 0.211
70.8902 4.177 0.209
70.9107 4.365 0.213
70.9311 4.104 0.207
70.9516 4.240 0.210
70.9721 4.333 0.212
70.9925 4.052 0.205
71.0130 4.052 0.205
71.0335 4.490 0.216
71.0539 4.490 0.216
71.0744 4.438 0.215
71.0948 4.375 0.213
71.1153 4.490 0.216
71.1358 4.625 0.219
71.1562 4.781 0.223
71.1767 4.167 0.208
71.1972 4.146 0.208
71.2176 4.042 0.205
71.2381 4.219 0.210
71.2586 4.542 0.218
71.2790 4.094 0.207
71.2995 3.927 0.202
71.3199 4.010 0.204
71.3404 4.219 0.210
71.3609 4.010 0.204
71.3813 3.958 0.203
71.4018 3.510 0.191
71.4223 3.427 0.189
71.4427 3.917 0.202
71.4632 3.708 0.197
71.4836 3.917 0.202
71.5041 3.875 0.201
71.5246 3.875 0.201
71.5450 3.979 0.204
71.5655 3.760 0.198
71.5860 4.010 0.204
71.6064 4.135 0.208
71.6269 4.021 0.205
71.6473 4.292 0.211
71.6678 3.906 0.202
71.6883 3.833 0.200
71.7087 3.927 0.202
71.7292 3.865 0.201
71.7497 3.594 0.193
71.7701 4.250 0.210
71.7906 3.615 0.194
71.8110 4.115 0.207
71.8315 3.708 0.197
71.8520 3.813 0.199
71.8724 3.927 0.202
71.8929 3.854 0.200
71.9134 3.729 0.197
71.9338 3.771 0.198
71.9543 3.615 0.194
71.9747 3.823 0.200
71.9952 4.094 0.207
72.0157 3.677 0.196
72.0361 3.875 0.201
72.0566 3.625 0.194
72.0771 3.677 0.196
72.0975 3.938 0.203
72.1180 3.927 0.202
72.1385 3.906 0.202
72.1589 4.000 0.204
72.1794 4.125 0.207
72.1998 4.010 0.204
72.2203 4.125 0.207
72.2408 3.938 0.203
72.2612 3.854 0.200
72.2817 4.177 0.209
72.3022 3.719 0.197
72.3226 4.188 0.209
72.3431 3.760 0.198
72.3635 3.802 0.199
72.3840 4.010 0.204
72.4045 4.219 0.210
72.4249 3.552 0.192
72.4454 3.844 0.200
72.4659 3.938 0.203
72.4863 3.865 0.201
72.5068 3.542 0.192
72.5272 3.583 0.193
72.5477 4.073 0.206
72.5682 3.802 0.199
72.5886 3.917 0.202
72.6091 3.896 0.201
72.6296 3.865 0.201
72.6500 3.740 0.197
72.6705 3.833 0.200
72.6909 3.938 0.203
72.7114 4.156 0.208
72.7319 3.979 0.204
72.7523 3.656 0.195
72.7728 4.188 0.209
72.7933 3.969 0.203
72.8137 4.052 0.205
72.8342 4.146 0.208
72.8547 4.094 0.207
72.8751 4.021 0.205
72.8956 3.938 0.203
72.9160 4.094 0.207
72.9365 4.104 0.207
72.9570 4.188 0.209
72.9774 3.896 0.201
72.9979 3.760 0.198
73.0184 3.646 0.195
73.0388 4.292 0.211
73.0593 4.021 0.205
73.0797 3.990 0.204
73.1002 4.417 0.214
73.1207 3.719 0.197
73.1411 3.740 0.197
73.1616 3.615 0.194
73.1821 4.156 0.208
73.2025 3.406 0.188
73.2230 3.740 0.197
73.2434 3.740 0.197
73.2639 3.458 0.190
73.2844 3.906 0.202
73.3048 3.469 0.190
73.3253 3.760 0.198
73.3458 3.813 0.199
73.3662 3.490 0.191
73.3867 3.750 0.198
73.4071 3.448 0.190
73.4276 3.635 0.195
73.4481 3.823 0.200
73.4685 4.052 0.205
73.4890 3.802 0.199
73.5095 3.729 0.197
73.5299 3.667 0.195
73.5504 3.885 0.201
73.5708 3.885 0.201
73.5913 3.438 0.189
73.6118 3.865 0.201
73.6322 3.938 0.203
73.6527 3.667 0.195
73.6732 3.792 0.199
73.6936 3.500 0.191
73.7141 3.854 0.200
73.7346 3.563 0.193
73.7550 3.688 0.196
73.7755 3.677 0.196
73.7959 3.698 0.196
73.8164 3.771 0.198
73.8369 3.448 0.190
73.8573 3.740 0.197
73.8778 3.854 0.200
73.8983 3.656 0.195
73.9187 3.729 0.197
73.9392 3.802 0.199
73.9596 3.740 0.197
73.9801 3.781 0.198
74.0006 4.302 0.212
74.0210 4.125 0.207
74.0415 3.875 0.201
74.0620 3.792 0.199
74.0824 4.010 0.204
74.1029 4.958 0.227
74.1233 4.313 0.212
74.1438 3.750 0.198
74.1643 4.219 0.210
74.1847 3.469 0.190
74.2052 3.979 0.204
74.2257 3.740 0.197
74.2461 3.865 0.201
74.2666 3.813 0.199
74.2870 3.813 0.199
74.3075 3.729 0.197
74.3280 3.854 0.200
74.3484 3.719 0.197
74.3689 3.740 0.197
74.3894 3.490 0.191
74.4098 3.823 0.200
74.4303 3.354 0.187
74.4507 3.729 0.197
74.4712 3.833 0.200
74.4917 3.479 0.190
74.5121 3.479 0.190
74.5326 3.417 0.189
74.5531 3.542 0.192
74.5735 3.615 0.194
74.5940 3.865 0.201
74.6145 3.625 0.194
74.6349 3.396 0.188
74.6554 3.667 0.195
74.6758 3.885 0.201
74.6963 4.073 0.206
74.7168 3.667 0.195
74.7372 3.625 0.194
74.7577 3.615 0.194
74.7782 3.365 0.187
74.7986 3.646 0.195
74.8191 3.177 0.182
74.8395 3.740 0.197
74.8600 3.552 0.192
74.8805 3.781 0.198
74.9009 3.260 0.184
74.9214 3.542 0.192
74.9419 3.406 0.188
74.9623 4.010 0.204
74.9828 3.656 0.195
75.0032 3.448 0.190
75.0237 3.740 0.197
75.0442 3.906 0.202
75.0646 3.677 0.196
75.0851 3.823 0.200
75.1056 3.802 0.199
75.1260 3.542 0.192
75.1465 3.635 0.195
75.1669 3.698 0.196
75.1874 3.729 0.197
75.2079 3.406 0.188
75.2283 3.917 0.202
75.2488 3.896 0.201
75.2693 4.073 0.206
75.2897 3.521 0.192
75.3102 3.510 0.191
75.3306 3.729 0.197
75.3511 3.417 0.189
75.3716 3.885 0.201
75.3920 3.938 0.203
75.4125 3.552 0.192
75.4330 3.469 0.190
75.4534 3.781 0.198
75.4739 3.427 0.189
75.4944 3.500 0.191
75.5148 3.729 0.197
75.5353 3.885 0.201
75.5557 3.854 0.200
75.5762 3.865 0.201
75.5967 4.031 0.205
75.6171 3.833 0.200
75.6376 4.313 0.212
75.6581 4.271 0.211
75.6785 4.167 0.208
75.6990 4.521 0.217
75.7194 4.219 0.210
75.7399 4.458 0.216
75.7604 4.688 0.221
75.7808 5.229 0.233
75.8013 5.323 0.235
75.8218 5.219 0.233
75.8422 5.292 0.235
75.8627 4.896 0.226
75.8831 4.615 0.219
75.9036 4.750 0.222
75.9241 4.448 0.215
75.9445 4.604 0.219
75.9650 4.594 0.219
75.9855 4.406 0.214
76.0059 4.573 0.218
76.0264 4.969 0.228
76.0468 4.469 0.216
76.0673 4.833 0.224
76.0878 4.760 0.223
76.1082 4.198 0.209
76.1287 4.281 0.211
76.1492 3.833 0.200
76.1696 3.719 0.197
76.1901 3.792 0.199
76.2105 3.875 0.201
76.2310 3.708 0.197
76.2515 4.229 0.210
76.2719 3.896 0.201
76.2924 4.010 0.204
76.3129 4.302 0.212
76.3333 3.823 0.200
76.3538 3.927 0.202
76.3743 3.719 0.197
76.3947 3.688 0.196
76.4152 3.740 0.197
76.4356 3.823 0.200
76.4561 3.438 0.189
76.4766 4.000 0.204
76.4970 3.833 0.200
76.5175 3.552 0.192
76.5380 3.615 0.194
76.5584 3.625 0.194
76.5789 3.677 0.196
76.5993 4.063 0.206
76.6198 3.635 0.195
76.6403 3.469 0.190
76.6607 3.583 0.193
76.6812 3.375 0.188
76.7017 3.781 0.198
76.7221 3.750 0.198
76.7426 4.063 0.206
76.7630 3.479 0.190
76.7835 3.760 0.198
76.8040 3.646 0.195
76.8244 3.146 0.181
76.8449 3.729 0.197
76.8654 3.833 0.200
76.8858 3.354 0.187
76.9063 3.448 0.190
76.9267 3.802 0.199
76.9472 3.490 0.191
76.9677 3.969 0.203
76.9881 3.885 0.201
77.0086 3.344 0.187
77.0291 3.479 0.190
77.0495 3.521 0.192
77.0700 3.740 0.197
77.0905 3.719 0.197
77.1109 3.344 0.187
77.1314 3.646 0.195
77.1518 3.875 0.201
77.1723 3.365 0.187
77.1928 3.573 0.193
77.2132 3.531 0.192
77.2337 3.729 0.197
77.2542 3.729 0.197
77.2746 3.406 0.188
77.2951 3.615 0.194
77.3155 3.906 0.202
77.3360 3.813 0.199
77.3565 3.781 0.198
77.3769 3.917 0.202
77.3974 3.958 0.203
77.4179 3.760 0.198
77.4383 3.833 0.200
77.4588 3.948 0.203
77.4792 3.792 0.199
77.4997 4.281 0.211
77.5202 4.073 0.206
77.5406 4.052 0.205
77.5611 3.948 0.203
77.5816 4.031 0.205
77.6020 4.625 0.219
77.6225 4.104 0.207
77.6429 4.313 0.212
77.6634 4.177 0.209
77.6839 4.177 0.209
77.7043 3.865 0.201
77.7248 4.208 0.209
77.7453 4.021 0.205
77.7657 4.354 0.213
77.7862 4.646 0.220
77.8066 4.563 0.218
77.8271 4.490 0.216
77.8476 4.125 0.207
77.8680 4.135 0.208
77.8885 4.323 0.212
77.9090 4.490 0.216
77.9294 3.750 0.198
77.9499 4.083 0.206
77.9704 4.448 0.215
77.9908 3.896 0.201
78.0113 3.906 0.202
78.0317 3.979 0.204
78.0522 4.052 0.205
78.0727 3.656 0.195
78.0931 3.833 0.200
78.1136 3.948 0.203
78.1341 3.927 0.202
78.1545 3.563 0.193
78.1750 3.396 0.188
78.1954 3.479 0.190
78.2159 3.656 0.195
78.2364 3.833 0.200
78.2568 4.104 0.207
78.2773 4.323 0.212
78.2978 3.656 0.195
78.3182 3.865 0.201
78.3387 4.146 0.208
78.3591 4.188 0.209
78.3796 3.688 0.196
78.4001 3.771 0.198
78.4205 3.625 0.194
78.4410 3.615 0.194
78.4615 3.896 0.201
78.4819 3.833 0.200
78.5024 3.740 0.197
78.5228 3.990 0.204
78.5433 3.844 0.200
78.5638 3.948 0.203
78.5842 3.990 0.204
78.6047 3.771 0.198
78.6252 3.896 0.201
78.6456 3.615 0.194
78.6661 3.708 0.197
78.6865 3.969 0.203
78.7070 3.781 0.198
78.7275 3.917 0.202
78.7479 3.656 0.195
78.7684 3.708 0.197
78.7889 3.740 0.197
78.8093 4.042 0.205
78.8298 3.677 0.196
78.8503 3.719 0.197
78.8707 4.063 0.206
78.8912 4.052 0.205
78.9116 3.729 0.197
78.9321 4.063 0.206
78.9526 3.740 0.197
78.9730 3.813 0.199
78.9935 3.583 0.193
79.0140 3.854 0.200
79.0344 3.729 0.197
79.0549 3.854 0.200
79.0753 4.094 0.207
79.0958 3.677 0.196
79.1163 4.063 0.206
79.1367 3.781 0.198
79.1572 3.833 0.200
79.1777 3.729 0.197
79.1981 3.677 0.196
79.2186 3.865 0.201
79.2390 3.625 0.194
79.2595 3.833 0.200
79.2800 3.844 0.200
79.3004 3.865 0.201
79.3209 4.010 0.204
79.3414 3.823 0.200
79.3618 3.813 0.199
79.3823 3.865 0.201
79.4027 4.083 0.206
79.4232 3.573 0.193
79.4437 4.031 0.205
79.4641 3.938 0.203
79.4846 4.063 0.206
79.5051 4.052 0.205
79.5255 4.188 0.209
79.5460 4.052 0.205
79.5664 4.448 0.215
79.5869 4.167 0.208
79.6074 3.833 0.200
79.6278 4.063 0.206
79.6483 3.823 0.200
79.6688 3.813 0.199
79.6892 4.010 0.204
79.7097 3.969 0.203
79.7302 3.917 0.202
79.7506 3.552 0.192
79.7711 4.125 0.207
79.7915 3.844 0.200
79.8120 3.750 0.198
79.8325 4.000 0.204
79.8529 3.604 0.194
79.8734 3.927 0.202
79.8939 3.500 0.191
79.9143 3.906 0.202
79.9348 3.365 0.187
79.9552 3.833 0.200
79.9757 3.760 0.198
79.9962 3.917 0.202
