'Id: "" Comment: "" Operator: "Lab Manager" Anode: "Cu" Scantype: "Locked Coupled" TimePerStep: "96" X: "0" Y: "0" Z: "0" 
5.0000 19.094 0.446
5.0205 19.698 0.453
5.0409 18.406 0.438
5.0614 19.458 0.450
5.0819 19.083 0.446
5.1023 19.469 0.450
5.1228 18.740 0.442
5.1432 18.750 0.442
5.1637 18.229 0.436
5.1842 18.573 0.440
5.2046 17.542 0.427
5.2251 19.354 0.449
5.2456 18.406 0.438
5.2660 17.948 0.432
5.2865 18.969 0.445
5.3069 17.885 0.432
5.3274 18.667 0.441
5.3479 18.198 0.435
5.3683 18.250 0.436
5.3888 17.188 0.423
5.4093 17.677 0.429
5.4297 18.073 0.434
5.4502 17.406 0.426
5.4706 17.469 0.427
5.4911 17.323 0.425
5.5116 17.542 0.427
5.5320 17.781 0.430
5.5525 17.719 0.430
5.5730 18.260 0.436
5.5934 17.833 0.431
5.6139 17.417 0.426
5.6343 17.510 0.427
5.6548 17.990 0.433
5.6753 17.250 0.424
5.6957 17.000 0.421
5.7162 17.063 0.422
5.7367 17.302 0.425
5.7571 17.115 0.422
5.7776 17.021 0.421
5.7980 17.281 0.424
5.8185 17.188 0.423
5.8390 16.646 0.416
5.8594 16.354 0.413
5.8799 16.938 0.420
5.9004 16.156 0.410
5.9208 16.500 0.415
5.9413 15.510 0.402
5.9618 15.938 0.407
5.9822 17.094 0.422
6.0027 16.677 0.417
6.0231 16.365 0.413
6.0436 15.844 0.406
6.0641 15.458 0.401
6.0845 16.479 0.414
6.1050 16.396 0.413
6.1255 16.375 0.413
6.1459 16.531 0.415
6.1664 16.510 0.415
6.1868 16.198 0.411
6.2073 16.500 0.415
6.2278 15.969 0.408
6.2482 15.417 0.401
6.2687 16.219 0.411
6.2892 15.938 0.407
6.3096 16.146 0.410
6.3301 15.573 0.403
6.3505 15.615 0.403
6.3710 15.917 0.407
6.3915 15.948 0.408
6.4119 15.979 0.408
6.4324 15.729 0.405
6.4529 16.073 0.409
6.4733 15.375 0.400
6.4938 15.479 0.402
6.5142 15.750 0.405
6.5347 15.802 0.406
6.5552 15.938 0.407
6.5756 15.604 0.403
6.5961 15.625 0.403
6.6166 15.385 0.400
6.6370 15.604 0.403
6.6575 15.771 0.405
6.6779 15.531 0.402
6.6984 15.698 0.404
6.7189 16.031 0.409
6.7393 15.948 0.408
6.7598 16.292 0.412
6.7803 16.729 0.417
6.8007 15.656 0.404
6.8212 15.844 0.406
6.8417 14.979 0.395
6.8621 15.750 0.405
6.8826 15.115 0.397
6.9030 16.750 0.418
6.9235 16.313 0.412
6.9440 17.552 0.428
6.9644 16.500 0.415
6.9849 17.000 0.421
7.0054 16.531 0.415
7.0258 17.667 0.429
7.0463 19.094 0.446
7.0667 19.042 0.445
7.0872 20.688 0.464
7.1077 22.781 0.487
7.1281 23.896 0.499
7.1486 25.198 0.512
7.1691 25.010 0.510
7.1895 24.771 0.508
7.2100 21.917 0.478
7.2304 20.240 0.459
7.2509 19.281 0.448
7.2714 18.104 0.434
7.2918 17.865 0.431
7.3123 17.292 0.424
7.3328 17.385 0.426
7.3532 16.646 0.416
7.3737 16.563 0.415
7.3941 17.313 0.425
7.4146 15.875 0.407
7.4351 15.927 0.407
7.4555 16.396 0.413
7.4760 16.458 0.414
7.4965 16.208 0.411
7.5169 16.281 0.412
7.5374 16.500 0.415
7.5579 16.604 0.416
7.5783 15.896 0.407
7.5988 16.438 0.414
7.6192 17.010 0.421
7.6397 17.052 0.421
7.6602 16.198 0.411
7.6806 15.969 0.408
7.7011 16.646 0.416
7.7216 16.063 0.409
7.7420 16.302 0.412
7.7625 16.823 0.419
7.7829 17.271 0.424
7.8034 16.771 0.418
7.8239 16.552 0.415
7.8443 17.313 0.425
7.8648 16.229 0.411
7.8853 17.052 0.421
7.9057 16.802 0.418
7.9262 17.188 0.423
7.9466 16.771 0.418
7.9671 16.938 0.420
7.9876 16.948 0.420
8.0080 17.010 0.421
8.0285 16.667 0.417
8.0490 17.104 0.422
8.0694 17.135 0.422
8.0899 18.344 0.437
8.1103 17.615 0.428
8.1308 18.281 0.436
8.1513 17.875 0.432
8.1717 17.865 0.431
8.1922 18.417 0.438
8.2127 18.083 0.434
8.2331 18.646 0.441
8.2536 19.781 0.454
8.2740 19.802 0.454
8.2945 20.146 0.458
8.3150 19.927 0.456
8.3354 20.313 0.460
8.3559 20.073 0.457
8.3764 20.260 0.459
8.3968 21.135 0.469
8.4173 21.813 0.477
8.4378 22.333 0.482
8.4582 24.083 0.501
8.4787 25.417 0.515
8.4991 27.490 0.535
8.5196 27.948 0.540
8.5401 28.854 0.548
8.5605 29.479 0.554
8.5810 30.625 0.565
8.6015 29.521 0.555
8.6219 28.583 0.546
8.6424 28.427 0.544
8.6628 28.104 0.541
8.6833 27.792 0.538
8.7038 27.583 0.536
8.7242 27.229 0.533
8.7447 26.875 0.529
8.7652 26.656 0.527
8.7856 26.500 0.525
8.8061 28.000 0.540
8.8265 27.510 0.535
8.8470 27.906 0.539
8.8675 29.010 0.550
8.8879 28.396 0.544
8.9084 29.615 0.555
8.9289 30.521 0.564
8.9493 32.677 0.583
8.9698 34.260 0.597
8.9902 37.813 0.628
9.0107 42.729 0.667
9.0312 49.365 0.717
9.0516 60.802 0.796
9.0721 78.083 0.902
9.0926 100.250 1.022
9.1130 126.479 1.148
9.1335 126.740 1.149
9.1539 90.917 0.973
9.1744 55.344 0.759
9.1949 37.906 0.628
9.2153 31.760 0.575
9.2358 30.542 0.564
9.2563 30.083 0.560
9.2767 30.781 0.566
9.2972 29.979 0.559
9.3177 30.052 0.560
9.3381 31.042 0.569
9.3586 32.323 0.580
9.3790 30.948 0.568
9.3995 30.750 0.566
9.4200 31.854 0.576
9.4404 32.760 0.584
9.4609 33.021 0.586
9.4814 35.104 0.605
9.5018 35.104 0.605
9.5223 39.729 0.643
9.5427 40.115 0.646
9.5632 42.813 0.668
9.5837 47.177 0.701
9.6041 51.438 0.732
9.6246 56.521 0.767
9.6451 60.594 0.794
9.6655 65.865 0.828
9.6860 73.010 0.872
9.7064 77.323 0.897
9.7269 90.021 0.968
9.7474 98.906 1.015
9.7678 115.417 1.096
9.7883 140.073 1.208
9.8088 176.260 1.355
9.8292 233.115 1.558
9.8497 320.781 1.828
9.8701 455.656 2.179
9.8906 639.750 2.581
9.9111 863.229 2.999
9.9315 1022.875 3.264
9.9520 934.146 3.119
9.9725 660.240 2.622
9.9929 406.885 2.059
10.0134 259.094 1.643
10.0338 184.021 1.385
10.0543 145.417 1.231
10.0748 122.042 1.128
10.0952 106.844 1.055
10.1157 93.115 0.985
10.1362 86.271 0.948
10.1566 77.313 0.897
10.1771 70.583 0.857
10.1976 61.208 0.798
10.2180 57.781 0.776
10.2385 51.031 0.729
10.2589 47.865 0.706
10.2794 45.000 0.685
10.2999 42.240 0.663
10.3203 39.865 0.644
10.3408 38.938 0.637
10.3613 37.656 0.626
10.3817 35.635 0.609
10.4022 34.583 0.600
10.4226 33.656 0.592
10.4431 33.708 0.593
10.4636 31.052 0.569
10.4840 29.875 0.558
10.5045 30.448 0.563
10.5250 28.948 0.549
10.5454 29.438 0.554
10.5659 27.833 0.538
10.5863 26.521 0.526
10.6068 26.115 0.522
10.6273 26.094 0.521
10.6477 25.844 0.519
10.6682 24.583 0.506
10.6887 24.854 0.509
10.7091 24.771 0.508
10.7296 23.521 0.495
10.7500 23.219 0.492
10.7705 23.458 0.494
10.7910 22.823 0.488
10.8114 22.479 0.484
10.8319 22.354 0.483
10.8524 22.146 0.480
10.8728 21.510 0.473
10.8933 22.063 0.479
10.9137 20.719 0.465
10.9342 20.792 0.465
10.9547 20.063 0.457
10.9751 20.240 0.459
10.9956 20.177 0.458
11.0161 18.604 0.440
11.0365 19.198 0.447
11.0570 18.906 0.444
11.0775 18.396 0.438
11.0979 18.865 0.443
11.1184 19.042 0.445
11.1388 18.458 0.438
11.1593 17.375 0.425
11.1798 17.490 0.427
11.2002 18.167 0.435
11.2207 17.292 0.424
11.2412 17.365 0.425
11.2616 17.021 0.421
11.2821 16.594 0.416
11.3025 16.563 0.415
11.3230 17.135 0.422
11.3435 16.698 0.417
11.3639 16.521 0.415
11.3844 16.125 0.410
11.4049 16.031 0.409
11.4253 15.625 0.403
11.4458 15.844 0.406
11.4662 15.875 0.407
11.4867 15.698 0.404
11.5072 15.802 0.406
11.5276 15.563 0.403
11.5481 15.302 0.399
11.5686 15.781 0.405
11.5890 14.792 0.393
11.6095 15.083 0.396
11.6299 14.333 0.386
11.6504 15.063 0.396
11.6709 14.833 0.393
11.6913 14.625 0.390
11.7118 14.750 0.392
11.7323 13.875 0.380
11.7527 14.365 0.387
11.7732 14.073 0.383
11.7937 14.510 0.389
11.8141 13.979 0.382
11.8346 13.854 0.380
11.8550 13.760 0.379
11.8755 13.594 0.376
11.8960 14.063 0.383
11.9164 13.844 0.380
11.9369 13.219 0.371
11.9574 13.417 0.374
11.9778 13.354 0.373
11.9983 13.594 0.376
12.0187 13.552 0.376
12.0392 14.146 0.384
12.0597 13.052 0.369
12.0801 13.865 0.380
12.1006 13.219 0.371
12.1211 13.198 0.371
12.1415 13.135 0.370
12.1620 13.615 0.377
12.1824 12.958 0.367
12.2029 13.292 0.372
12.2234 13.188 0.371
12.2438 13.792 0.379
12.2643 13.375 0.373
12.2848 13.094 0.369
12.3052 13.375 0.373
12.3257 12.885 0.366
12.3461 12.854 0.366
12.3666 13.302 0.372
12.3871 12.604 0.362
12.4075 13.250 0.372
12.4280 13.042 0.369
12.4485 12.406 0.359
12.4689 12.375 0.359
12.4894 11.833 0.351
12.5098 12.146 0.356
12.5303 11.823 0.351
12.5508 12.542 0.361
12.5712 12.292 0.358
12.5917 11.896 0.352
12.6122 11.260 0.342
12.6326 11.823 0.351
12.6531 11.719 0.349
12.6736 12.156 0.356
12.6940 12.167 0.356
12.7145 11.521 0.346
12.7349 12.521 0.361
12.7554 11.979 0.353
12.7759 11.781 0.350
12.7963 11.833 0.351
12.8168 11.677 0.349
12.8373 11.271 0.343
12.8577 12.042 0.354
12.8782 11.073 0.340
12.8986 10.813 0.336
12.9191 11.844 0.351
12.9396 10.979 0.338
12.9600 11.292 0.343
12.9805 11.302 0.343
13.0010 10.990 0.338
13.0214 11.156 0.341
13.0419 11.125 0.340
13.0623 10.927 0.337
13.0828 11.104 0.340
13.1033 11.083 0.340
13.1237 11.198 0.342
13.1442 10.708 0.334
13.1647 10.708 0.334
13.1851 10.802 0.335
13.2056 11.052 0.339
13.2260 10.740 0.334
13.2465 10.656 0.333
13.2670 10.875 0.337
13.2874 10.469 0.330
13.3079 11.083 0.340
13.3284 10.917 0.337
13.3488 10.854 0.336
13.3693 10.802 0.335
13.3897 11.240 0.342
13.4102 10.344 0.328
13.4307 11.250 0.342
13.4511 10.865 0.336
13.4716 10.854 0.336
13.4921 10.552 0.332
13.5125 10.854 0.336
13.5330 10.531 0.331
13.5535 9.760 0.319
13.5739 10.771 0.335
13.5944 10.646 0.333
13.6148 10.927 0.337
13.6353 10.083 0.324
13.6558 10.375 0.329
13.6762 10.063 0.324
13.6967 10.448 0.330
13.7172 10.438 0.330
13.7376 10.021 0.323
13.7581 10.188 0.326
13.7785 10.146 0.325
13.7990 10.240 0.327
13.8195 11.094 0.340
13.8399 9.948 0.322
13.8604 10.052 0.324
13.8809 10.271 0.327
13.9013 9.719 0.318
13.9218 9.958 0.322
13.9422 10.333 0.328
13.9627 9.979 0.322
13.9832 10.146 0.325
14.0036 10.167 0.325
14.0241 9.854 0.320
14.0446 10.406 0.329
14.0650 9.698 0.318
14.0855 10.240 0.327
14.1059 10.552 0.332
14.1264 10.031 0.323
14.1469 10.958 0.338
14.1673 10.635 0.333
14.1878 10.229 0.326
14.2083 10.458 0.330
14.2287 10.917 0.337
14.2492 10.906 0.337
14.2696 11.281 0.343
14.2901 11.396 0.345
14.3106 11.875 0.352
14.3310 11.271 0.343
14.3515 10.688 0.334
14.3720 10.792 0.335
14.3924 10.490 0.331
14.4129 10.417 0.329
14.4334 10.219 0.326
14.4538 10.177 0.326
14.4743 9.833 0.320
14.4947 10.010 0.323
14.5152 9.531 0.315
14.5357 10.125 0.325
14.5561 9.760 0.319
14.5766 9.979 0.322
14.5971 9.448 0.314
14.6175 9.656 0.317
14.6380 9.417 0.313
14.6584 9.708 0.318
14.6789 9.948 0.322
14.6994 9.990 0.323
14.7198 9.927 0.322
14.7403 8.979 0.306
14.7608 9.500 0.315
14.7812 8.771 0.302
14.8017 10.052 0.324
14.8221 9.135 0.308
14.8426 10.021 0.323
14.8631 9.656 0.317
14.8835 9.125 0.308
14.9040 9.698 0.318
14.9245 9.708 0.318
14.9449 10.229 0.326
14.9654 8.979 0.306
14.9858 9.344 0.312
15.0063 9.417 0.313
15.0268 9.375 0.313
15.0472 9.635 0.317
15.0677 9.427 0.313
15.0882 9.542 0.315
15.1086 9.240 0.310
15.1291 9.375 0.313
15.1495 9.375 0.313
15.1700 9.177 0.309
15.1905 9.573 0.316
15.2109 9.125 0.308
15.2314 9.448 0.314
15.2519 9.865 0.321
15.2723 9.563 0.316
15.2928 9.979 0.322
15.3133 9.469 0.314
15.3337 9.906 0.321
15.3542 9.875 0.321
15.3746 10.229 0.326
15.3951 10.583 0.332
15.4156 10.583 0.332
15.4360 10.313 0.328
15.4565 10.594 0.332
15.4770 9.563 0.316
15.4974 9.760 0.319
15.5179 10.240 0.327
15.5383 9.708 0.318
15.5588 10.063 0.324
15.5793 9.771 0.319
15.5997 10.417 0.329
15.6202 10.073 0.324
15.6407 10.635 0.333
15.6611 10.792 0.335
15.6816 11.542 0.347
15.7020 13.771 0.379
15.7225 16.708 0.417
15.7430 21.990 0.479
15.7634 29.844 0.558
15.7839 42.250 0.663
15.8044 44.635 0.682
15.8248 37.125 0.622
15.8453 27.000 0.530
15.8657 18.917 0.444
15.8862 13.521 0.375
15.9067 12.344 0.359
15.9271 10.615 0.333
15.9476 11.052 0.339
15.9681 10.271 0.327
15.9885 10.313 0.328
16.0090 10.375 0.329
16.0295 9.854 0.320
16.0499 9.490 0.314
16.0704 9.542 0.315
16.0908 9.229 0.310
16.1113 9.208 0.310
16.1318 9.896 0.321
16.1522 10.125 0.325
16.1727 9.688 0.318
16.1932 9.677 0.317
16.2136 9.104 0.308
16.2341 9.073 0.307
16.2545 9.354 0.312
16.2750 9.375 0.313
16.2955 9.406 0.313
16.3159 9.208 0.310
16.3364 9.521 0.315
16.3569 8.823 0.303
16.3773 9.740 0.319
16.3978 9.313 0.311
16.4182 9.510 0.315
16.4387 9.021 0.307
16.4592 10.156 0.325
16.4796 9.521 0.315
16.5001 9.573 0.316
16.5206 9.958 0.322
16.5410 9.677 0.317
16.5615 9.490 0.314
16.5819 9.188 0.309
16.6024 9.865 0.321
16.6229 10.000 0.323
16.6433 9.698 0.318
16.6638 9.823 0.320
16.6843 10.177 0.326
16.7047 10.240 0.327
16.7252 9.865 0.321
16.7456 9.844 0.320
16.7661 10.458 0.330
16.7866 9.833 0.320
16.8070 10.396 0.329
16.8275 10.240 0.327
16.8480 10.042 0.323
16.8684 9.885 0.321
16.8889 10.344 0.328
16.9094 11.104 0.340
16.9298 10.406 0.329
16.9503 10.906 0.337
16.9707 11.521 0.346
16.9912 12.323 0.358
17.0117 11.896 0.352
17.0321 12.042 0.354
17.0526 12.740 0.364
17.0731 12.271 0.358
17.0935 12.958 0.367
17.1140 12.688 0.364
17.1344 11.938 0.353
17.1549 12.354 0.359
17.1754 12.250 0.357
17.1958 11.979 0.353
17.2163 11.604 0.348
17.2368 11.385 0.344
17.2572 11.427 0.345
17.2777 11.594 0.348
17.2981 11.115 0.340
17.3186 11.719 0.349
17.3391 12.125 0.355
17.3595 11.188 0.341
17.3800 11.333 0.344
17.4005 11.729 0.350
17.4209 11.073 0.340
17.4414 11.490 0.346
17.4618 11.583 0.347
17.4823 12.042 0.354
17.5028 11.823 0.351
17.5232 11.354 0.344
17.5437 11.854 0.351
17.5642 11.990 0.353
17.5846 11.958 0.353
17.6051 12.198 0.356
17.6255 11.615 0.348
17.6460 12.094 0.355
17.6665 12.052 0.354
17.6869 12.135 0.356
17.7074 12.354 0.359
17.7279 12.990 0.368
17.7483 13.115 0.370
17.7688 13.271 0.372
17.7893 15.240 0.398
17.8097 16.333 0.412
17.8302 17.510 0.427
17.8506 18.146 0.435
17.8711 17.240 0.424
17.8916 17.042 0.421
17.9120 15.260 0.399
17.9325 14.917 0.394
17.9530 14.198 0.385
17.9734 13.854 0.380
17.9939 13.979 0.382
18.0143 14.333 0.386
18.0348 14.135 0.384
18.0553 14.719 0.392
18.0757 15.302 0.399
18.0962 16.688 0.417
18.1167 15.438 0.401
18.1371 16.083 0.409
18.1576 16.156 0.410
18.1780 16.135 0.410
18.1985 16.729 0.417
18.2190 15.656 0.404
18.2394 17.240 0.424
18.2599 18.521 0.439
18.2804 18.063 0.434
18.3008 18.167 0.435
18.3213 16.667 0.417
18.3417 16.969 0.420
18.3622 16.792 0.418
18.3827 16.771 0.418
18.4031 16.938 0.420
18.4236 17.302 0.425
18.4441 17.344 0.425
18.4645 17.094 0.422
18.4850 17.302 0.425
18.5054 17.208 0.423
18.5259 17.229 0.424
18.5464 17.479 0.427
18.5668 16.833 0.419
18.5873 16.646 0.416
18.6078 17.115 0.422
18.6282 17.094 0.422
18.6487 16.729 0.417
18.6692 16.594 0.416
18.6896 17.094 0.422
18.7101 16.135 0.410
18.7305 17.063 0.422
18.7510 15.698 0.404
18.7715 17.167 0.423
18.7919 16.938 0.420
18.8124 16.906 0.420
18.8329 17.094 0.422
18.8533 17.677 0.429
18.8738 20.031 0.457
18.8942 22.656 0.486
18.9147 22.521 0.484
18.9352 20.802 0.465
18.9556 18.563 0.440
18.9761 16.802 0.418
18.9966 15.063 0.396
19.0170 14.271 0.386
19.0375 14.219 0.385
19.0579 13.417 0.374
19.0784 13.781 0.379
19.0989 14.010 0.382
19.1193 13.979 0.382
19.1398 13.083 0.369
19.1603 13.531 0.375
19.1807 13.219 0.371
19.2012 14.198 0.385
19.2216 14.208 0.385
19.2421 14.344 0.387
19.2626 13.635 0.377
19.2830 13.448 0.374
19.3035 14.177 0.384
19.3240 14.021 0.382
19.3444 14.365 0.387
19.3649 14.656 0.391
19.3853 14.094 0.383
19.4058 14.552 0.389
19.4263 14.302 0.386
19.4467 15.917 0.407
19.4672 15.323 0.400
19.4877 15.625 0.403
19.5081 15.063 0.396
19.5286 16.573 0.415
19.5491 16.021 0.409
19.5695 17.531 0.427
19.5900 18.188 0.435
19.6104 18.010 0.433
19.6309 20.531 0.462
19.6514 21.229 0.470
19.6718 21.875 0.477
19.6923 24.146 0.502
19.7128 26.000 0.520
19.7332 27.500 0.535
19.7537 31.833 0.576
19.7741 36.000 0.612
19.7946 47.021 0.700
19.8151 61.427 0.800
19.8355 88.854 0.962
19.8560 134.292 1.183
19.8765 183.990 1.384
19.8969 202.490 1.452
19.9174 181.219 1.374
19.9378 154.375 1.268
19.9583 118.094 1.109
19.9788 84.344 0.937
19.9992 60.802 0.796
20.0197 50.375 0.724
20.0402 41.979 0.661
20.0606 36.646 0.618
20.0811 31.917 0.577
20.1015 29.646 0.556
20.1220 29.313 0.553
20.1425 24.885 0.509
20.1629 24.177 0.502
20.1834 23.375 0.493
20.2039 22.073 0.480
20.2243 21.167 0.470
20.2448 20.677 0.464
20.2653 19.698 0.453
20.2857 18.979 0.445
20.3062 18.979 0.445
20.3266 19.281 0.448
20.3471 18.385 0.438
20.3676 17.552 0.428
20.3880 19.219 0.447
20.4085 17.958 0.433
20.4290 18.146 0.435
20.4494 17.385 0.426
20.4699 17.125 0.422
20.4903 17.000 0.421
20.5108 17.708 0.429
20.5313 17.010 0.421
20.5517 16.531 0.415
20.5722 16.083 0.409
20.5927 15.875 0.407
20.6131 15.365 0.400
20.6336 15.958 0.408
20.6540 15.229 0.398
20.6745 14.458 0.388
20.6950 14.938 0.394
20.7154 14.875 0.394
20.7359 14.521 0.389
20.7564 14.125 0.384
20.7768 13.729 0.378
20.7973 12.906 0.367
20.8177 14.000 0.382
20.8382 13.198 0.371
20.8587 12.688 0.364
20.8791 12.594 0.362
20.8996 12.896 0.367
20.9201 12.167 0.356
20.9405 12.167 0.356
20.9610 11.896 0.352
20.9814 11.615 0.348
21.0019 11.646 0.348
21.0224 11.542 0.347
21.0428 11.521 0.346
21.0633 11.521 0.346
21.0838 11.688 0.349
21.1042 11.740 0.350
21.1247 10.552 0.332
21.1452 10.948 0.338
21.1656 10.542 0.331
21.1861 10.677 0.333
21.2065 10.938 0.338
21.2270 11.000 0.339
21.2475 11.323 0.343
21.2679 10.000 0.323
21.2884 10.781 0.335
21.3089 10.885 0.337
21.3293 10.917 0.337
21.3498 11.146 0.341
21.3702 11.573 0.347
21.3907 11.438 0.345
21.4112 11.458 0.345
21.4316 11.677 0.349
21.4521 11.625 0.348
21.4726 12.177 0.356
21.4930 12.500 0.361
21.5135 12.177 0.356
21.5339 11.948 0.353
21.5544 11.375 0.344
21.5749 10.479 0.330
21.5953 11.458 0.345
21.6158 10.667 0.333
21.6363 10.771 0.335
21.6567 10.656 0.333
21.6772 10.021 0.323
21.6976 10.708 0.334
21.7181 10.135 0.325
21.7386 10.573 0.332
21.7590 10.604 0.332
21.7795 9.500 0.315
21.8000 10.219 0.326
21.8204 9.833 0.320
21.8409 10.521 0.331
21.8613 9.906 0.321
21.8818 10.521 0.331
21.9023 9.865 0.321
21.9227 9.771 0.319
21.9432 10.698 0.334
21.9637 10.104 0.324
21.9841 10.625 0.333
22.0046 10.531 0.331
22.0251 11.302 0.343
22.0455 11.969 0.353
22.0660 11.708 0.349
22.0864 13.344 0.373
22.1069 14.865 0.393
22.1274 14.885 0.394
22.1478 16.052 0.409
22.1683 19.021 0.445
22.1888 21.927 0.478
22.2092 26.865 0.529
22.2297 29.354 0.553
22.2501 28.542 0.545
22.2706 26.844 0.529
22.2911 23.521 0.495
22.3115 21.052 0.468
22.3320 18.188 0.435
22.3525 15.229 0.398
22.3729 13.760 0.379
22.3934 13.104 0.369
22.4138 12.500 0.361
22.4343 12.104 0.355
22.4548 11.854 0.351
22.4752 11.010 0.339
22.4957 10.906 0.337
22.5162 10.781 0.335
22.5366 10.073 0.324
22.5571 10.365 0.329
22.5775 9.948 0.322
22.5980 10.083 0.324
22.6185 9.198 0.310
22.6389 9.698 0.318
22.6594 9.427 0.313
22.6799 10.104 0.324
22.7003 9.802 0.320
22.7208 10.167 0.325
22.7412 9.979 0.322
22.7617 9.604 0.316
22.7822 9.677 0.317
22.8026 10.010 0.323
22.8231 10.094 0.324
22.8436 10.667 0.333
22.8640 11.177 0.341
22.8845 13.708 0.378
22.9050 18.063 0.434
22.9254 20.844 0.466
22.9459 21.542 0.474
22.9663 17.708 0.429
22.9868 16.792 0.418
23.0073 14.073 0.383
23.0277 12.083 0.355
23.0482 10.448 0.330
23.0687 9.708 0.318
23.0891 9.573 0.316
23.1096 9.354 0.312
23.1300 9.333 0.312
23.1505 9.448 0.314
23.1710 8.563 0.299
23.1914 8.948 0.305
23.2119 9.323 0.312
23.2324 8.844 0.304
23.2528 8.521 0.298
23.2733 8.490 0.297
23.2937 8.573 0.299
23.3142 9.104 0.308
23.3347 8.135 0.291
23.3551 7.948 0.288
23.3756 8.219 0.293
23.3961 8.156 0.291
23.4165 8.427 0.296
23.4370 8.542 0.298
23.4574 8.510 0.298
23.4779 8.031 0.289
23.4984 8.323 0.294
23.5188 8.521 0.298
23.5393 8.552 0.298
23.5598 8.667 0.300
23.5802 8.396 0.296
23.6007 8.188 0.292
23.6211 8.281 0.294
23.6416 8.625 0.300
23.6621 9.750 0.319
23.6825 10.760 0.335
23.7030 11.854 0.351
23.7235 11.885 0.352
23.7439 10.625 0.333
23.7644 10.219 0.326
23.7849 10.479 0.330
23.8053 8.927 0.305
23.8258 8.115 0.291
23.8462 8.719 0.301
23.8667 7.927 0.287
23.8872 8.083 0.290
23.9076 8.125 0.291
23.9281 8.302 0.294
23.9486 8.313 0.294
23.9690 8.500 0.298
23.9895 8.458 0.297
24.0099 8.552 0.298
24.0304 8.063 0.290
24.0509 8.927 0.305
24.0713 7.708 0.283
24.0918 8.010 0.289
24.1123 8.021 0.289
24.1327 8.302 0.294
24.1532 8.521 0.298
24.1736 8.333 0.295
24.1941 9.677 0.317
24.2146 9.031 0.307
24.2350 9.438 0.314
24.2555 9.042 0.307
24.2760 8.917 0.305
24.2964 8.865 0.304
24.3169 9.302 0.311
24.3373 8.781 0.302
24.3578 9.594 0.316
24.3783 9.740 0.319
24.3987 9.385 0.313
24.4192 9.156 0.309
24.4397 8.750 0.302
24.4601 8.854 0.304
24.4806 9.031 0.307
24.5011 8.708 0.301
24.5215 8.073 0.290
24.5420 8.167 0.292
24.5624 8.219 0.293
24.5829 8.302 0.294
24.6034 8.229 0.293
24.6238 8.646 0.300
24.6443 8.146 0.291
24.6648 9.458 0.314
24.6852 9.375 0.313
24.7057 10.000 0.323
24.7261 10.552 0.332
24.7466 9.010 0.306
24.7671 9.656 0.317
24.7875 9.323 0.312
24.8080 8.385 0.296
24.8285 8.125 0.291
24.8489 8.281 0.294
24.8694 7.813 0.285
24.8898 8.063 0.290
24.9103 7.563 0.281
24.9308 7.385 0.277
24.9512 7.729 0.284
24.9717 7.563 0.281
24.9922 7.708 0.283
25.0126 7.500 0.280
25.0331 8.198 0.292
25.0535 7.125 0.272
25.0740 7.698 0.283
25.0945 7.688 0.283
25.1149 7.448 0.279
25.1354 8.042 0.289
25.1559 7.177 0.273
25.1763 7.542 0.280
25.1968 7.708 0.283
25.2172 7.375 0.277
25.2377 7.750 0.284
25.2582 7.490 0.279
25.2786 7.385 0.277
25.2991 7.740 0.284
25.3196 8.010 0.289
25.3400 7.948 0.288
25.3605 7.667 0.283
25.3810 7.813 0.285
25.4014 7.979 0.288
25.4219 7.948 0.288
25.4423 8.250 0.293
25.4628 8.573 0.299
25.4833 8.104 0.291
25.5037 8.823 0.303
25.5242 8.896 0.304
25.5447 10.094 0.324
25.5651 10.625 0.333
25.5856 12.875 0.366
25.6060 14.750 0.392
25.6265 14.865 0.393
25.6470 12.990 0.368
25.6674 12.615 0.362
25.6879 12.281 0.358
25.7084 9.552 0.315
25.7288 9.052 0.307
25.7493 8.625 0.300
25.7697 7.854 0.286
25.7902 7.667 0.283
25.8107 7.969 0.288
25.8311 7.583 0.281
25.8516 7.729 0.284
25.8721 7.896 0.287
25.8925 7.677 0.283
25.9130 7.750 0.284
25.9334 7.896 0.287
25.9539 7.427 0.278
25.9744 7.396 0.278
25.9948 7.854 0.286
26.0153 7.500 0.280
26.0358 7.250 0.275
26.0562 7.135 0.273
26.0767 7.260 0.275
26.0971 8.052 0.290
26.1176 8.021 0.289
26.1381 7.521 0.280
26.1585 7.917 0.287
26.1790 7.458 0.279
26.1995 7.427 0.278
26.2199 7.260 0.275
26.2404 7.781 0.285
26.2609 7.010 0.270
26.2813 7.490 0.279
26.3018 7.844 0.286
26.3222 7.500 0.280
26.3427 6.990 0.270
26.3632 7.323 0.276
26.3836 7.677 0.283
26.4041 7.375 0.277
26.4246 7.844 0.286
26.4450 7.635 0.282
26.4655 7.469 0.279
26.4859 7.365 0.277
26.5064 7.250 0.275
26.5269 7.292 0.276
26.5473 6.885 0.268
26.5678 7.542 0.280
26.5883 7.396 0.278
26.6087 7.354 0.277
26.6292 7.365 0.277
26.6496 7.073 0.271
26.6701 7.583 0.281
26.6906 7.115 0.272
26.7110 7.198 0.274
26.7315 7.250 0.275
26.7520 7.240 0.275
26.7724 7.240 0.275
26.7929 7.469 0.279
26.8133 7.427 0.278
26.8338 7.281 0.275
26.8543 7.427 0.278
26.8747 7.365 0.277
26.8952 7.583 0.281
26.9157 7.531 0.280
26.9361 7.313 0.276
26.9566 7.323 0.276
26.9770 7.271 0.275
26.9975 7.438 0.278
27.0180 7.583 0.281
27.0384 7.406 0.278
27.0589 7.740 0.284
27.0794 7.115 0.272
27.0998 7.500 0.280
27.1203 7.146 0.273
27.1408 7.510 0.280
27.1612 6.854 0.267
27.1817 7.406 0.278
27.2021 7.646 0.282
27.2226 7.344 0.277
27.2431 7.667 0.283
27.2635 9.083 0.308
27.2840 8.802 0.303
27.3045 8.563 0.299
27.3249 7.979 0.288
27.3454 8.229 0.293
27.3658 7.844 0.286
27.3863 8.146 0.291
27.4068 8.250 0.293
27.4272 8.083 0.290
27.4477 8.990 0.306
27.4682 10.552 0.332
27.4886 12.125 0.355
27.5091 13.969 0.381
27.5295 12.604 0.362
27.5500 10.990 0.338
27.5705 10.813 0.336
27.5909 10.438 0.330
27.6114 9.313 0.311
27.6319 7.479 0.279
27.6523 7.740 0.284
27.6728 7.771 0.285
27.6932 7.198 0.274
27.7137 6.844 0.267
27.7342 7.365 0.277
27.7546 6.896 0.268
27.7751 6.802 0.266
27.7956 7.323 0.276
27.8160 7.792 0.285
27.8365 7.979 0.288
27.8569 8.010 0.289
27.8774 7.344 0.277
27.8979 7.292 0.276
27.9183 7.042 0.271
27.9388 6.771 0.266
27.9593 7.021 0.270
27.9797 7.406 0.278
28.0002 6.729 0.265
28.0207 7.125 0.272
28.0411 6.740 0.265
28.0616 6.677 0.264
28.0820 6.854 0.267
28.1025 7.469 0.279
28.1230 7.208 0.274
28.1434 6.594 0.262
28.1639 7.156 0.273
28.1844 6.521 0.261
28.2048 7.188 0.274
28.2253 7.104 0.272
28.2457 7.427 0.278
28.2662 7.031 0.271
28.2867 7.052 0.271
28.3071 6.917 0.268
28.3276 6.854 0.267
28.3481 6.990 0.270
28.3685 6.885 0.268
28.3890 6.792 0.266
28.4094 6.844 0.267
28.4299 7.115 0.272
28.4504 7.292 0.276
28.4708 7.000 0.270
28.4913 7.365 0.277
28.5118 6.875 0.268
28.5322 6.990 0.270
28.5527 6.552 0.261
28.5731 6.615 0.262
28.5936 6.500 0.260
28.6141 6.969 0.269
28.6345 6.781 0.266
28.6550 6.781 0.266
28.6755 6.729 0.265
28.6959 6.750 0.265
28.7164 7.052 0.271
28.7368 7.292 0.276
28.7573 7.042 0.271
28.7778 6.719 0.265
28.7982 7.135 0.273
28.8187 6.823 0.267
28.8392 6.635 0.263
28.8596 6.719 0.265
28.8801 6.667 0.264
28.9006 6.938 0.269
28.9210 6.667 0.264
28.9415 6.875 0.268
28.9619 7.250 0.275
28.9824 6.521 0.261
29.0029 6.698 0.264
29.0233 7.365 0.277
29.0438 7.354 0.277
29.0643 7.031 0.271
29.0847 6.521 0.261
29.1052 6.813 0.266
29.1256 6.771 0.266
29.1461 6.990 0.270
29.1666 6.750 0.265
29.1870 6.573 0.262
29.2075 6.635 0.263
29.2280 7.000 0.270
29.2484 7.104 0.272
29.2689 7.188 0.274
29.2893 6.594 0.262
29.3098 7.271 0.275
29.3303 6.854 0.267
29.3507 6.938 0.269
29.3712 6.917 0.268
29.3917 6.906 0.268
29.4121 6.469 0.260
29.4326 6.500 0.260
29.4530 7.271 0.275
29.4735 7.406 0.278
29.4940 6.792 0.266
29.5144 7.083 0.272
29.5349 6.885 0.268
29.5554 7.719 0.284
29.5758 7.396 0.278
29.5963 7.583 0.281
29.6168 8.208 0.292
29.6372 7.302 0.276
29.6577 7.281 0.275
29.6781 7.396 0.278
29.6986 7.542 0.280
29.7191 7.240 0.275
29.7395 6.802 0.266
29.7600 6.958 0.269
29.7805 6.458 0.259
29.8009 6.896 0.268
29.8214 6.802 0.266
29.8418 7.021 0.270
29.8623 6.656 0.263
29.8828 6.635 0.263
29.9032 6.885 0.268
29.9237 6.740 0.265
29.9442 6.219 0.255
29.9646 6.615 0.262
29.9851 6.604 0.262
30.0055 6.510 0.260
30.0260 6.396 0.258
30.0465 6.646 0.263
30.0669 7.135 0.273
30.0874 6.698 0.264
30.1079 6.833 0.267
30.1283 6.229 0.255
30.1488 6.792 0.266
30.1692 6.729 0.265
30.1897 6.740 0.265
30.2102 6.729 0.265
30.2306 6.344 0.257
30.2511 6.438 0.259
30.2716 6.135 0.253
30.2920 6.771 0.266
30.3125 6.208 0.254
30.3329 6.583 0.262
30.3534 6.323 0.257
30.3739 6.594 0.262
30.3943 6.281 0.256
30.4148 6.708 0.264
30.4353 6.594 0.262
30.4557 6.510 0.260
30.4762 6.281 0.256
30.4967 6.521 0.261
30.5171 6.615 0.262
30.5376 6.292 0.256
30.5580 6.427 0.259
30.5785 6.385 0.258
30.5990 6.656 0.263
30.6194 7.177 0.273
30.6399 6.552 0.261
30.6604 6.490 0.260
30.6808 6.260 0.255
30.7013 6.729 0.265
30.7217 6.604 0.262
30.7422 7.010 0.270
30.7627 7.052 0.271
30.7831 7.458 0.279
30.8036 7.396 0.278
30.8241 7.115 0.272
30.8445 7.188 0.274
30.8650 7.646 0.282
30.8854 7.615 0.282
30.9059 8.229 0.293
30.9264 8.625 0.300
30.9468 9.375 0.313
30.9673 10.302 0.328
30.9878 12.917 0.367
31.0082 15.490 0.402
31.0287 19.813 0.454
31.0491 24.083 0.501
31.0696 24.875 0.509
31.0901 24.260 0.503
31.1105 22.229 0.481
31.1310 20.469 0.462
31.1515 18.615 0.440
31.1719 16.073 0.409
31.1924 13.490 0.375
31.2128 12.708 0.364
31.2333 10.521 0.331
31.2538 9.708 0.318
31.2742 8.792 0.303
31.2947 7.917 0.287
31.3152 8.406 0.296
31.3356 8.021 0.289
31.3561 8.427 0.296
31.3766 7.948 0.288
31.3970 8.521 0.298
31.4175 7.833 0.286
31.4379 8.094 0.290
31.4584 7.552 0.280
31.4789 7.833 0.286
31.4993 7.563 0.281
31.5198 6.875 0.268
31.5403 6.906 0.268
31.5607 7.229 0.274
31.5812 7.115 0.272
31.6016 6.896 0.268
31.6221 6.552 0.261
31.6426 6.552 0.261
31.6630 6.833 0.267
31.6835 6.917 0.268
31.7040 6.708 0.264
31.7244 6.542 0.261
31.7449 6.677 0.264
31.7653 7.156 0.273
31.7858 7.260 0.275
31.8063 7.563 0.281
31.8267 7.479 0.279
31.8472 8.229 0.293
31.8677 8.469 0.297
31.8881 8.083 0.290
31.9086 7.594 0.281
31.9290 7.667 0.283
31.9495 7.521 0.280
31.9700 7.948 0.288
31.9904 7.229 0.274
32.0109 7.771 0.285
32.0314 8.104 0.291
32.0518 8.427 0.296
32.0723 9.375 0.313
32.0927 10.094 0.324
32.1132 9.063 0.307
32.1337 10.042 0.323
32.1541 10.573 0.332
32.1746 11.823 0.351
32.1951 13.229 0.371
32.2155 14.677 0.391
32.2360 16.781 0.418
32.2565 17.969 0.433
32.2769 15.031 0.396
32.2974 13.042 0.369
32.3178 12.354 0.359
32.3383 12.344 0.359
32.3588 10.583 0.332
32.3792 8.875 0.304
32.3997 8.333 0.295
32.4202 8.250 0.293
32.4406 7.656 0.282
32.4611 7.938 0.288
32.4815 8.156 0.291
32.5020 7.990 0.288
32.5225 8.583 0.299
32.5429 8.750 0.302
32.5634 9.083 0.308
32.5839 10.688 0.334
32.6043 11.740 0.350
32.6248 14.042 0.382
32.6452 14.042 0.382
32.6657 13.563 0.376
32.6862 14.604 0.390
32.7066 13.500 0.375
32.7271 13.396 0.374
32.7476 12.354 0.359
32.7680 10.688 0.334
32.7885 10.208 0.326
32.8089 9.208 0.310
32.8294 8.990 0.306
32.8499 8.500 0.298
32.8703 8.083 0.290
32.8908 7.958 0.288
32.9113 7.698 0.283
32.9317 7.854 0.286
32.9522 7.969 0.288
32.9726 8.083 0.290
32.9931 7.875 0.286
33.0136 7.542 0.280
33.0340 7.479 0.279
33.0545 7.406 0.278
33.0750 7.354 0.277
33.0954 7.042 0.271
33.1159 6.896 0.268
33.1364 7.188 0.274
33.1568 7.979 0.288
33.1773 8.344 0.295
33.1977 8.458 0.297
33.2182 7.917 0.287
33.2387 7.677 0.283
33.2591 8.354 0.295
33.2796 7.594 0.281
33.3001 7.698 0.283
33.3205 7.333 0.276
33.3410 7.094 0.272
33.3614 7.250 0.275
33.3819 7.615 0.282
33.4024 8.354 0.295
33.4228 8.167 0.292
33.4433 7.479 0.279
33.4638 7.917 0.287
33.4842 8.000 0.289
33.5047 7.219 0.274
33.5251 7.156 0.273
33.5456 7.125 0.272
33.5661 6.698 0.264
33.5865 6.823 0.267
33.6070 7.073 0.271
33.6275 6.531 0.261
33.6479 6.781 0.266
33.6684 6.760 0.265
33.6888 6.844 0.267
33.7093 6.813 0.266
33.7298 7.042 0.271
33.7502 7.094 0.272
33.7707 7.281 0.275
33.7912 7.271 0.275
33.8116 7.177 0.273
33.8321 6.802 0.266
33.8526 7.000 0.270
33.8730 7.031 0.271
33.8935 6.896 0.268
33.9139 6.813 0.266
33.9344 6.771 0.266
33.9549 6.625 0.263
33.9753 6.594 0.262
33.9958 6.042 0.251
34.0163 6.260 0.255
34.0367 6.979 0.270
34.0572 6.135 0.253
34.0776 7.448 0.279
34.0981 6.542 0.261
34.1186 7.219 0.274
34.1390 7.063 0.271
34.1595 7.167 0.273
34.1800 7.302 0.276
34.2004 8.000 0.289
34.2209 9.417 0.313
34.2413 10.500 0.331
34.2618 11.365 0.344
34.2823 10.250 0.327
34.3027 9.625 0.317
34.3232 9.448 0.314
34.3437 10.146 0.325
34.3641 9.667 0.317
34.3846 8.990 0.306
34.4050 8.219 0.293
34.4255 8.323 0.294
34.4460 7.344 0.277
34.4664 7.375 0.277
34.4869 7.177 0.273
34.5074 7.167 0.273
34.5278 7.094 0.272
34.5483 7.031 0.271
34.5687 7.021 0.270
34.5892 6.646 0.263
34.6097 7.042 0.271
34.6301 6.094 0.252
34.6506 6.448 0.259
34.6711 7.083 0.272
34.6915 5.948 0.249
34.7120 6.552 0.261
34.7325 7.177 0.273
34.7529 6.833 0.267
34.7734 6.938 0.269
34.7938 6.885 0.268
34.8143 6.656 0.263
34.8348 7.021 0.270
34.8552 7.260 0.275
34.8757 8.083 0.290
34.8962 7.802 0.285
34.9166 8.802 0.303
34.9371 10.615 0.333
34.9575 12.552 0.362
34.9780 15.208 0.398
34.9985 16.135 0.410
35.0189 13.021 0.368
35.0394 11.188 0.341
35.0599 11.865 0.352
35.0803 11.854 0.351
35.1008 10.490 0.331
35.1212 8.583 0.299
35.1417 7.969 0.288
35.1622 7.323 0.276
35.1826 6.708 0.264
35.2031 7.417 0.278
35.2236 7.021 0.270
35.2440 6.792 0.266
35.2645 7.052 0.271
35.2849 7.240 0.275
35.3054 6.708 0.264
35.3259 6.677 0.264
35.3463 6.948 0.269
35.3668 7.365 0.277
35.3873 7.083 0.272
35.4077 7.333 0.276
35.4282 6.958 0.269
35.4486 7.010 0.270
35.4691 6.542 0.261
35.4896 6.750 0.265
35.5100 6.948 0.269
35.5305 7.260 0.275
35.5510 7.281 0.275
35.5714 7.104 0.272
35.5919 7.365 0.277
35.6124 7.427 0.278
35.6328 6.948 0.269
35.6533 7.396 0.278
35.6737 7.448 0.279
35.6942 6.792 0.266
35.7147 7.167 0.273
35.7351 6.542 0.261
35.7556 6.938 0.269
35.7761 6.885 0.268
35.7965 7.063 0.271
35.8170 7.208 0.274
35.8374 7.167 0.273
35.8579 7.083 0.272
35.8784 7.229 0.274
35.8988 6.750 0.265
35.9193 6.927 0.269
35.9398 7.010 0.270
35.9602 8.365 0.295
35.9807 7.396 0.278
36.0011 8.146 0.291
36.0216 8.500 0.298
36.0421 8.865 0.304
36.0625 9.208 0.310
36.0830 9.313 0.311
36.1035 10.490 0.331
36.1239 9.208 0.310
36.1444 10.115 0.325
36.1648 9.646 0.317
36.1853 9.323 0.312
36.2058 9.417 0.313
36.2262 9.740 0.319
36.2467 9.125 0.308
36.2672 8.740 0.302
36.2876 9.396 0.313
36.3081 9.563 0.316
36.3285 10.115 0.325
36.3490 9.635 0.317
36.3695 9.656 0.317
36.3899 9.552 0.315
36.4104 10.052 0.324
36.4309 10.281 0.327
36.4513 9.896 0.321
36.4718 10.135 0.325
36.4923 10.281 0.327
36.5127 10.927 0.337
36.5332 11.510 0.346
36.5536 11.656 0.348
36.5741 12.438 0.360
36.5946 14.771 0.392
36.6150 16.240 0.411
36.6355 16.729 0.417
36.6560 17.719 0.430
36.6764 16.042 0.409
36.6969 15.948 0.408
36.7173 16.031 0.409
36.7378 15.615 0.403
36.7583 14.250 0.385
36.7787 13.885 0.380
36.7992 13.510 0.375
36.8197 12.323 0.358
36.8401 11.031 0.339
36.8606 11.010 0.339
36.8810 10.896 0.337
36.9015 11.625 0.348
36.9220 11.927 0.352
36.9424 11.625 0.348
36.9629 12.219 0.357
36.9834 12.406 0.359
37.0038 13.646 0.377
37.0243 13.594 0.376
37.0447 14.438 0.388
37.0652 16.958 0.420
37.0857 18.719 0.442
37.1061 21.063 0.468
37.1266 22.615 0.485
37.1471 23.198 0.492
37.1675 21.146 0.469
37.1880 20.760 0.465
37.2084 19.865 0.455
37.2289 18.813 0.443
37.2494 18.021 0.433
37.2698 17.510 0.427
37.2903 16.542 0.415
37.3108 14.896 0.394
37.3312 13.302 0.372
37.3517 12.656 0.363
37.3722 12.323 0.358
37.3926 12.250 0.357
37.4131 11.260 0.342
37.4335 11.531 0.347
37.4540 10.875 0.337
37.4745 10.146 0.325
37.4949 10.396 0.329
37.5154 9.667 0.317
37.5359 9.469 0.314
37.5563 9.771 0.319
37.5768 9.271 0.311
37.5972 9.229 0.310
37.6177 9.396 0.313
37.6382 9.094 0.308
37.6586 8.813 0.303
37.6791 8.969 0.306
37.6996 8.990 0.306
37.7200 8.854 0.304
37.7405 9.104 0.308
37.7609 8.323 0.294
37.7814 8.990 0.306
37.8019 8.677 0.301
37.8223 8.375 0.295
37.8428 8.500 0.298
37.8633 8.875 0.304
37.8837 9.583 0.316
37.9042 9.208 0.310
37.9246 9.615 0.316
37.9451 9.510 0.315
37.9656 9.313 0.311
37.9860 10.375 0.329
38.0065 10.604 0.332
38.0270 11.135 0.341
38.0474 11.938 0.353
38.0679 12.469 0.360
38.0884 13.146 0.370
38.1088 13.615 0.377
38.1293 13.219 0.371
38.1497 12.688 0.364
38.1702 12.583 0.362
38.1907 12.406 0.359
38.2111 11.948 0.353
38.2316 11.781 0.350
38.2521 10.448 0.330
38.2725 10.052 0.324
38.2930 10.313 0.328
38.3134 10.760 0.335
38.3339 9.969 0.322
38.3544 8.844 0.304
38.3748 9.938 0.322
38.3953 9.875 0.321
38.4158 10.354 0.328
38.4362 10.240 0.327
38.4567 10.073 0.324
38.4771 10.208 0.326
38.4976 10.885 0.337
38.5181 11.323 0.343
38.5385 11.177 0.341
38.5590 10.448 0.330
38.5795 10.594 0.332
38.5999 9.958 0.322
38.6204 10.031 0.323
38.6408 8.792 0.303
38.6613 8.823 0.303
38.6818 8.531 0.298
38.7022 7.938 0.288
38.7227 8.333 0.295
38.7432 8.198 0.292
38.7636 8.323 0.294
38.7841 8.010 0.289
38.8045 8.302 0.294
38.8250 7.688 0.283
38.8455 8.031 0.289
38.8659 7.740 0.284
38.8864 7.781 0.285
38.9069 7.917 0.287
38.9273 7.594 0.281
38.9478 7.438 0.278
38.9683 7.354 0.277
38.9887 7.969 0.288
39.0092 7.896 0.287
39.0296 7.396 0.278
39.0501 8.073 0.290
39.0706 7.698 0.283
39.0910 7.458 0.279
39.1115 7.458 0.279
39.1320 7.500 0.280
39.1524 8.031 0.289
39.1729 7.135 0.273
39.1933 7.688 0.283
39.2138 7.167 0.273
39.2343 7.615 0.282
39.2547 8.052 0.290
39.2752 7.375 0.277
39.2957 7.115 0.272
39.3161 7.542 0.280
39.3366 7.313 0.276
39.3570 7.469 0.279
39.3775 7.542 0.280
39.3980 7.396 0.278
39.4184 7.885 0.287
39.4389 8.042 0.289
39.4594 7.729 0.284
39.4798 8.031 0.289
39.5003 8.385 0.296
39.5207 7.729 0.284
39.5412 7.917 0.287
39.5617 7.583 0.281
39.5821 7.604 0.281
39.6026 7.906 0.287
39.6231 8.052 0.290
39.6435 7.573 0.281
39.6640 7.344 0.277
39.6844 7.719 0.284
39.7049 7.833 0.286
39.7254 8.177 0.292
39.7458 7.938 0.288
39.7663 7.688 0.283
39.7868 8.073 0.290
39.8072 9.219 0.310
39.8277 8.573 0.299
39.8482 9.240 0.310
39.8686 9.469 0.314
39.8891 9.313 0.311
39.9095 9.344 0.312
39.9300 9.115 0.308
39.9505 8.760 0.302
39.9709 8.250 0.293
39.9914 8.260 0.293
40.0119 8.521 0.298
40.0323 7.854 0.286
40.0528 8.521 0.298
40.0732 7.677 0.283
40.0937 7.948 0.288
40.1142 7.729 0.284
40.1346 7.375 0.277
40.1551 7.406 0.278
40.1756 8.010 0.289
40.1960 7.385 0.277
40.2165 8.146 0.291
40.2369 7.969 0.288
40.2574 8.063 0.290
40.2779 8.823 0.303
40.2983 9.000 0.306
40.3188 10.677 0.333
40.3393 12.458 0.360
40.3597 12.365 0.359
40.3802 12.115 0.355
40.4006 11.875 0.352
40.4211 11.677 0.349
40.4416 10.802 0.335
40.4620 10.969 0.338
40.4825 10.896 0.337
40.5030 10.156 0.325
40.5234 8.594 0.299
40.5439 8.917 0.305
40.5643 8.167 0.292
40.5848 8.177 0.292
40.6053 8.219 0.293
40.6257 8.760 0.302
40.6462 8.750 0.302
40.6667 8.448 0.297
40.6871 8.583 0.299
40.7076 8.604 0.299
40.7281 8.948 0.305
40.7485 9.323 0.312
40.7690 9.542 0.315
40.7894 10.979 0.338
40.8099 13.396 0.374
40.8304 15.417 0.401
40.8508 14.573 0.390
40.8713 11.948 0.353
40.8918 10.688 0.334
40.9122 11.167 0.341
40.9327 11.698 0.349
40.9531 11.302 0.343
40.9736 10.156 0.325
40.9941 9.073 0.307
41.0145 8.740 0.302
41.0350 9.021 0.307
41.0555 8.521 0.298
41.0759 8.646 0.300
41.0964 8.646 0.300
41.1168 9.875 0.321
41.1373 9.656 0.317
41.1578 11.313 0.343
41.1782 11.802 0.351
41.1987 12.542 0.361
41.2192 13.292 0.372
41.2396 12.615 0.362
41.2601 13.146 0.370
41.2805 11.927 0.352
41.3010 12.240 0.357
41.3215 11.802 0.351
41.3419 11.042 0.339
41.3624 9.896 0.321
41.3829 9.552 0.315
41.4033 8.865 0.304
41.4238 8.281 0.294
41.4442 7.823 0.285
41.4647 7.510 0.280
41.4852 7.667 0.283
41.5056 7.479 0.279
41.5261 7.083 0.272
41.5466 6.646 0.263
41.5670 7.021 0.270
41.5875 7.417 0.278
41.6080 7.396 0.278
41.6284 7.833 0.286
41.6489 8.146 0.291
41.6693 7.656 0.282
41.6898 8.531 0.298
41.7103 7.542 0.280
41.7307 7.844 0.286
41.7512 7.354 0.277
41.7717 7.865 0.286
41.7921 7.635 0.282
41.8126 7.542 0.280
41.8330 7.646 0.282
41.8535 7.990 0.288
41.8740 8.938 0.305
41.8944 9.615 0.316
41.9149 10.854 0.336
41.9354 10.677 0.333
41.9558 8.385 0.296
41.9763 8.594 0.299
41.9967 8.042 0.289
42.0172 8.854 0.304
42.0377 8.781 0.302
42.0581 8.594 0.299
42.0786 7.438 0.278
42.0991 7.219 0.274
42.1195 7.490 0.279
42.1400 7.167 0.273
42.1604 6.938 0.269
42.1809 7.010 0.270
42.2014 6.698 0.264
42.2218 6.531 0.261
42.2423 6.313 0.256
42.2628 6.854 0.267
42.2832 6.771 0.266
42.3037 6.625 0.263
42.3242 6.479 0.260
42.3446 7.010 0.270
42.3651 6.635 0.263
42.3855 7.219 0.274
42.4060 7.052 0.271
42.4265 6.719 0.265
42.4469 7.083 0.272
42.4674 6.594 0.262
42.4879 7.281 0.275
42.5083 7.240 0.275
42.5288 7.729 0.284
42.5492 7.542 0.280
42.5697 7.969 0.288
42.5902 7.583 0.281
42.6106 7.552 0.280
42.6311 7.760 0.284
42.6516 8.240 0.293
42.6720 7.917 0.287
42.6925 7.854 0.286
42.7129 7.938 0.288
42.7334 7.333 0.276
42.7539 7.542 0.280
42.7743 7.094 0.272
42.7948 6.927 0.269
42.8153 7.083 0.272
42.8357 6.823 0.267
42.8562 7.635 0.282
42.8766 7.146 0.273
42.8971 7.604 0.281
42.9176 7.042 0.271
42.9380 6.958 0.269
42.9585 7.042 0.271
42.9790 6.729 0.265
42.9994 7.365 0.277
43.0199 6.688 0.264
43.0403 6.917 0.268
43.0608 7.198 0.274
43.0813 7.063 0.271
43.1017 7.292 0.276
43.1222 7.229 0.274
43.1427 7.156 0.273
43.1631 7.302 0.276
43.1836 7.510 0.280
43.2041 7.552 0.280
43.2245 7.500 0.280
43.2450 8.281 0.294
43.2654 8.219 0.293
43.2859 8.510 0.298
43.3064 8.198 0.292
43.3268 7.698 0.283
43.3473 8.146 0.291
43.3678 8.417 0.296
43.3882 8.490 0.297
43.4087 8.979 0.306
43.4291 9.177 0.309
43.4496 8.490 0.297
43.4701 8.656 0.300
43.4905 8.167 0.292
43.5110 9.188 0.309
43.5315 9.427 0.313
43.5519 9.490 0.314
43.5724 9.531 0.315
43.5928 10.042 0.323
43.6133 10.469 0.330
43.6338 11.469 0.346
43.6542 13.365 0.373
43.6747 14.375 0.387
43.6952 14.302 0.386
43.7156 14.927 0.394
43.7361 14.177 0.384
43.7565 14.323 0.386
43.7770 13.792 0.379
43.7975 12.781 0.365
43.8179 12.427 0.360
43.8384 11.833 0.351
43.8589 11.479 0.346
43.8793 11.125 0.340
43.8998 10.448 0.330
43.9202 9.500 0.315
43.9407 9.354 0.312
43.9612 8.875 0.304
43.9816 8.615 0.300
44.0021 8.531 0.298
44.0226 7.979 0.288
44.0430 7.844 0.286
44.0635 8.021 0.289
44.0840 7.594 0.281
44.1044 7.042 0.271
44.1249 7.906 0.287
44.1453 7.615 0.282
44.1658 6.865 0.267
44.1863 7.125 0.272
44.2067 7.521 0.280
44.2272 7.083 0.272
44.2477 7.010 0.270
44.2681 7.573 0.281
44.2886 7.104 0.272
44.3090 7.021 0.270
44.3295 7.229 0.274
44.3500 7.135 0.273
44.3704 6.823 0.267
44.3909 7.281 0.275
44.4114 6.813 0.266
44.4318 6.698 0.264
44.4523 7.000 0.270
44.4727 6.938 0.269
44.4932 7.135 0.273
44.5137 6.990 0.270
44.5341 7.333 0.276
44.5546 6.740 0.265
44.5751 6.135 0.253
44.5955 6.771 0.266
44.6160 6.792 0.266
44.6364 6.385 0.258
44.6569 7.260 0.275
44.6774 6.813 0.266
44.6978 6.115 0.252
44.7183 7.031 0.271
44.7388 6.594 0.262
44.7592 6.458 0.259
44.7797 6.885 0.268
44.8001 6.615 0.262
44.8206 6.281 0.256
44.8411 7.552 0.280
44.8615 6.948 0.269
44.8820 6.906 0.268
44.9025 6.823 0.267
44.9229 6.375 0.258
44.9434 7.167 0.273
44.9639 7.073 0.271
44.9843 6.635 0.263
45.0048 6.563 0.261
45.0252 6.979 0.270
45.0457 6.646 0.263
45.0662 6.865 0.267
45.0866 7.073 0.271
45.1071 7.521 0.280
45.1276 6.615 0.262
45.1480 7.323 0.276
45.1685 7.510 0.280
45.1889 7.375 0.277
45.2094 7.708 0.283
45.2299 7.708 0.283
45.2503 8.000 0.289
45.2708 8.354 0.295
45.2913 9.219 0.310
45.3117 8.396 0.296
45.3322 8.510 0.298
45.3526 8.083 0.290
45.3731 8.406 0.296
45.3936 8.729 0.302
45.4140 8.094 0.290
45.4345 8.313 0.294
45.4550 7.667 0.283
45.4754 7.604 0.281
45.4959 7.208 0.274
45.5163 6.417 0.259
45.5368 6.917 0.268
45.5573 7.177 0.273
45.5777 6.760 0.265
45.5982 7.042 0.271
45.6187 6.646 0.263
45.6391 6.615 0.262
45.6596 6.844 0.267
45.6800 6.771 0.266
45.7005 6.938 0.269
45.7210 7.083 0.272
45.7414 7.000 0.270
45.7619 6.833 0.267
45.7824 6.531 0.261
45.8028 6.500 0.260
45.8233 6.469 0.260
45.8438 6.625 0.263
45.8642 6.469 0.260
45.8847 6.417 0.259
45.9051 6.917 0.268
45.9256 6.771 0.266
45.9461 6.594 0.262
45.9665 6.552 0.261
45.9870 6.760 0.265
46.0075 6.521 0.261
46.0279 6.260 0.255
46.0484 6.271 0.256
46.0688 6.010 0.250
46.0893 6.198 0.254
46.1098 5.969 0.249
46.1302 6.333 0.257
46.1507 5.969 0.249
46.1712 6.010 0.250
46.1916 5.927 0.248
46.2121 5.729 0.244
46.2325 5.969 0.249
46.2530 6.000 0.250
46.2735 6.198 0.254
46.2939 5.677 0.243
46.3144 5.906 0.248
46.3349 5.635 0.242
46.3553 6.406 0.258
46.3758 6.135 0.253
46.3962 6.198 0.254
46.4167 6.156 0.253
46.4372 5.938 0.249
46.4576 6.333 0.257
46.4781 5.906 0.248
46.4986 5.813 0.246
46.5190 6.260 0.255
46.5395 6.135 0.253
46.5600 6.208 0.254
46.5804 6.969 0.269
46.6009 7.146 0.273
46.6213 7.979 0.288
46.6418 8.552 0.298
46.6623 8.604 0.299
46.6827 8.708 0.301
46.7032 7.500 0.280
46.7237 7.240 0.275
46.7441 7.094 0.272
46.7646 7.240 0.275
46.7850 7.406 0.278
46.8055 7.094 0.272
46.8260 6.198 0.254
46.8464 6.490 0.260
46.8669 6.531 0.261
46.8874 6.427 0.259
46.9078 6.385 0.258
46.9283 6.052 0.251
46.9487 6.219 0.255
46.9692 6.271 0.256
46.9897 6.104 0.252
47.0101 5.917 0.248
47.0306 5.854 0.247
47.0511 6.135 0.253
47.0715 6.719 0.265
47.0920 5.385 0.237
47.1124 5.719 0.244
47.1329 5.688 0.243
47.1534 6.208 0.254
47.1738 6.458 0.259
47.1943 5.896 0.248
47.2148 5.885 0.248
47.2352 5.729 0.244
47.2557 6.073 0.252
47.2761 5.979 0.250
47.2966 6.229 0.255
47.3171 6.073 0.252
47.3375 6.094 0.252
47.3580 6.281 0.256
47.3785 6.198 0.254
47.3989 6.417 0.259
47.4194 6.490 0.260
47.4399 5.667 0.243
47.4603 6.750 0.265
47.4808 6.802 0.266
47.5012 6.490 0.260
47.5217 6.646 0.263
47.5422 6.479 0.260
47.5626 7.010 0.270
47.5831 7.417 0.278
47.6036 7.896 0.287
47.6240 7.813 0.285
47.6445 8.365 0.295
47.6649 9.365 0.312
47.6854 9.167 0.309
47.7059 9.219 0.310
47.7263 8.938 0.305
47.7468 8.677 0.301
47.7673 8.594 0.299
47.7877 8.219 0.293
47.8082 8.438 0.296
47.8286 7.948 0.288
47.8491 7.906 0.287
47.8696 7.375 0.277
47.8900 6.771 0.266
47.9105 6.802 0.266
47.9310 6.438 0.259
47.9514 6.802 0.266
47.9719 6.688 0.264
47.9923 6.542 0.261
48.0128 6.844 0.267
48.0333 6.302 0.256
48.0537 6.115 0.252
48.0742 5.771 0.245
48.0947 6.167 0.253
48.1151 6.146 0.253
48.1356 6.354 0.257
48.1560 5.896 0.248
48.1765 5.771 0.245
48.1970 6.208 0.254
48.2174 6.083 0.252
48.2379 5.875 0.247
48.2584 6.104 0.252
48.2788 6.375 0.258
48.2993 5.875 0.247
48.3198 6.229 0.255
48.3402 6.250 0.255
48.3607 6.635 0.263
48.3811 7.073 0.271
48.4016 6.333 0.257
48.4221 6.958 0.269
48.4425 6.792 0.266
48.4630 6.521 0.261
48.4835 5.969 0.249
48.5039 6.323 0.257
48.5244 6.719 0.265
48.5448 6.635 0.263
48.5653 6.365 0.257
48.5858 6.802 0.266
48.6062 6.583 0.262
48.6267 6.927 0.269
48.6472 6.063 0.251
48.6676 6.292 0.256
48.6881 5.938 0.249
48.7085 6.302 0.256
48.7290 6.219 0.255
48.7495 6.469 0.260
48.7699 6.510 0.260
48.7904 6.313 0.256
48.8109 6.490 0.260
48.8313 6.229 0.255
48.8518 6.208 0.254
48.8722 6.615 0.262
48.8927 6.396 0.258
48.9132 5.854 0.247
48.9336 5.760 0.245
48.9541 6.052 0.251
48.9746 5.646 0.243
48.9950 6.073 0.252
49.0155 5.948 0.249
49.0359 6.167 0.253
49.0564 6.250 0.255
49.0769 6.583 0.262
49.0973 7.031 0.271
49.1178 7.000 0.270
49.1383 7.052 0.271
49.1587 6.688 0.264
49.1792 6.333 0.257
49.1997 5.969 0.249
49.2201 6.490 0.260
49.2406 6.760 0.265
49.2610 6.146 0.253
49.2815 6.500 0.260
49.3020 6.219 0.255
49.3224 7.250 0.275
49.3429 6.969 0.269
49.3634 6.979 0.270
49.3838 7.167 0.273
49.4043 6.521 0.261
49.4247 6.052 0.251
49.4452 6.156 0.253
49.4657 6.427 0.259
49.4861 6.729 0.265
49.5066 6.917 0.268
49.5271 6.521 0.261
49.5475 6.115 0.252
49.5680 6.167 0.253
49.5884 6.281 0.256
49.6089 6.688 0.264
49.6294 6.531 0.261
49.6498 6.365 0.257
49.6703 6.281 0.256
49.6908 6.365 0.257
49.7112 7.052 0.271
49.7317 7.125 0.272
49.7521 7.031 0.271
49.7726 7.271 0.275
49.7931 8.260 0.293
49.8135 8.698 0.301
49.8340 8.917 0.305
49.8545 9.802 0.320
49.8749 10.000 0.323
49.8954 11.094 0.340
49.9158 11.229 0.342
49.9363 11.854 0.351
49.9568 10.938 0.338
49.9772 10.302 0.328
49.9977 10.531 0.331
50.0182 10.104 0.324
50.0386 9.948 0.322
50.0591 9.563 0.316
50.0796 9.177 0.309
50.1000 8.896 0.304
50.1205 9.104 0.308
50.1409 8.021 0.289
50.1614 7.906 0.287
50.1819 8.281 0.294
50.2023 8.052 0.290
50.2228 8.448 0.297
50.2433 7.625 0.282
50.2637 7.865 0.286
50.2842 8.167 0.292
50.3046 8.146 0.291
50.3251 8.104 0.291
50.3456 7.917 0.287
50.3660 7.344 0.277
50.3865 6.958 0.269
50.4070 6.958 0.269
50.4274 7.188 0.274
50.4479 6.979 0.270
50.4683 6.656 0.263
50.4888 6.708 0.264
50.5093 6.208 0.254
50.5297 6.438 0.259
50.5502 6.635 0.263
50.5707 6.365 0.257
50.5911 6.406 0.258
50.6116 6.771 0.266
50.6320 6.365 0.257
50.6525 6.448 0.259
50.6730 6.458 0.259
50.6934 6.281 0.256
50.7139 5.750 0.245
50.7344 5.927 0.248
50.7548 6.500 0.260
50.7753 5.875 0.247
50.7958 6.052 0.251
50.8162 5.583 0.241
50.8367 5.802 0.246
50.8571 5.802 0.246
50.8776 5.531 0.240
50.8981 6.135 0.253
50.9185 5.781 0.245
50.9390 6.531 0.261
50.9595 6.406 0.258
50.9799 6.250 0.255
51.0004 6.625 0.263
51.0208 7.365 0.277
51.0413 7.396 0.278
51.0618 7.188 0.274
51.0822 7.010 0.270
51.1027 6.948 0.269
51.1232 6.635 0.263
51.1436 7.063 0.271
51.1641 6.990 0.270
51.1845 6.469 0.260
51.2050 6.927 0.269
51.2255 6.823 0.267
51.2459 5.802 0.246
51.2664 6.146 0.253
51.2869 6.302 0.256
51.3073 6.198 0.254
51.3278 6.167 0.253
51.3482 6.688 0.264
51.3687 6.021 0.250
51.3892 6.313 0.256
51.4096 6.031 0.251
51.4301 6.125 0.253
51.4506 6.219 0.255
51.4710 5.865 0.247
51.4915 5.958 0.249
51.5119 5.604 0.242
51.5324 5.750 0.245
51.5529 5.552 0.240
51.5733 5.375 0.237
51.5938 5.510 0.240
51.6143 5.844 0.247
51.6347 6.219 0.255
51.6552 6.760 0.265
51.6757 6.292 0.256
51.6961 6.750 0.265
51.7166 7.052 0.271
51.7370 6.354 0.257
51.7575 6.927 0.269
51.7780 6.573 0.262
51.7984 6.646 0.263
51.8189 6.875 0.268
51.8394 6.667 0.264
51.8598 6.510 0.260
51.8803 6.125 0.253
51.9007 5.875 0.247
51.9212 6.500 0.260
51.9417 6.448 0.259
51.9621 6.396 0.258
51.9826 5.969 0.249
52.0031 5.813 0.246
52.0235 5.760 0.245
52.0440 5.240 0.234
52.0644 5.688 0.243
52.0849 6.021 0.250
52.1054 5.854 0.247
52.1258 5.958 0.249
52.1463 5.479 0.239
52.1668 5.271 0.234
52.1872 5.750 0.245
52.2077 5.635 0.242
52.2281 5.229 0.233
52.2486 5.323 0.235
52.2691 5.885 0.248
52.2895 5.208 0.233
52.3100 5.542 0.240
52.3305 5.646 0.243
52.3509 5.281 0.235
52.3714 5.417 0.238
52.3918 5.521 0.240
52.4123 5.219 0.233
52.4328 5.948 0.249
52.4532 6.396 0.258
52.4737 5.802 0.246
52.4942 6.021 0.250
52.5146 5.458 0.238
52.5351 5.000 0.228
52.5556 5.156 0.232
52.5760 5.563 0.241
52.5965 5.313 0.235
52.6169 5.354 0.236
52.6374 4.969 0.228
52.6579 5.260 0.234
52.6783 5.375 0.237
52.6988 4.948 0.227
52.7193 5.323 0.235
52.7397 5.167 0.232
52.7602 5.208 0.233
52.7806 5.135 0.231
52.8011 5.271 0.234
52.8216 4.979 0.228
52.8420 5.115 0.231
52.8625 5.365 0.236
52.8830 5.688 0.243
52.9034 5.292 0.235
52.9239 5.365 0.236
52.9443 4.854 0.225
52.9648 4.854 0.225
52.9853 4.823 0.224
53.0057 5.438 0.238
53.0262 5.427 0.238
53.0467 5.281 0.235
53.0671 5.219 0.233
53.0876 5.677 0.243
53.1080 5.458 0.238
53.1285 5.198 0.233
53.1490 5.094 0.230
53.1694 5.396 0.237
53.1899 5.323 0.235
53.2104 5.510 0.240
53.2308 5.146 0.232
53.2513 5.260 0.234
53.2717 5.229 0.233
53.2922 4.771 0.223
53.3127 4.719 0.222
53.3331 4.958 0.227
53.3536 5.188 0.232
53.3741 4.708 0.221
53.3945 5.250 0.234
53.4150 5.406 0.237
53.4355 4.969 0.228
53.4559 5.208 0.233
53.4764 4.896 0.226
53.4968 4.333 0.212
53.5173 4.938 0.227
53.5378 5.146 0.232
53.5582 4.583 0.219
53.5787 5.073 0.230
53.5992 4.688 0.221
53.6196 4.521 0.217
53.6401 4.792 0.223
53.6605 5.146 0.232
53.6810 5.188 0.232
53.7015 4.875 0.225
53.7219 5.479 0.239
53.7424 5.146 0.232
53.7629 5.188 0.232
53.7833 5.229 0.233
53.8038 5.052 0.229
53.8242 5.365 0.236
53.8447 5.135 0.231
53.8652 5.406 0.237
53.8856 5.146 0.232
53.9061 5.656 0.243
53.9266 4.865 0.225
53.9470 5.271 0.234
53.9675 5.063 0.230
53.9879 5.292 0.235
54.0084 4.917 0.226
54.0289 4.854 0.225
54.0493 5.021 0.229
54.0698 4.625 0.219
54.0903 5.177 0.232
54.1107 5.219 0.233
54.1312 4.875 0.225
54.1516 5.052 0.229
54.1721 4.740 0.222
54.1926 5.042 0.229
54.2130 4.948 0.227
54.2335 5.115 0.231
54.2540 5.177 0.232
54.2744 4.823 0.224
54.2949 5.240 0.234
54.3154 4.823 0.224
54.3358 5.281 0.235
54.3563 4.813 0.224
54.3767 4.823 0.224
54.3972 5.104 0.231
54.4177 5.000 0.228
54.4381 4.917 0.226
54.4586 5.156 0.232
54.4791 4.760 0.223
54.4995 4.760 0.223
54.5200 5.188 0.232
54.5404 5.115 0.231
54.5609 4.948 0.227
54.5814 5.688 0.243
54.6018 5.542 0.240
54.6223 5.208 0.233
54.6428 5.771 0.245
54.6632 5.063 0.230
54.6837 5.198 0.233
54.7041 5.135 0.231
54.7246 5.104 0.231
54.7451 5.792 0.246
54.7655 5.135 0.231
54.7860 5.490 0.239
54.8065 4.990 0.228
54.8269 4.906 0.226
54.8474 4.969 0.228
54.8678 4.958 0.227
54.8883 4.969 0.228
54.9088 4.708 0.221
54.9292 5.417 0.238
54.9497 5.240 0.234
54.9702 5.510 0.240
54.9906 5.500 0.239
55.0111 5.406 0.237
55.0316 5.802 0.246
55.0520 5.948 0.249
55.0725 6.667 0.264
55.0929 7.125 0.272
55.1134 7.719 0.284
55.1339 8.740 0.302
55.1543 8.448 0.297
55.1748 8.854 0.304
55.1953 10.292 0.327
55.2157 10.000 0.323
55.2362 10.313 0.328
55.2566 10.500 0.331
55.2771 9.781 0.319
55.2976 9.844 0.320
55.3180 8.865 0.304
55.3385 9.271 0.311
55.3590 8.781 0.302
55.3794 8.667 0.300
55.3999 8.146 0.291
55.4203 7.552 0.280
55.4408 7.094 0.272
55.4613 7.063 0.271
55.4817 6.010 0.250
55.5022 6.135 0.253
55.5227 6.198 0.254
55.5431 5.896 0.248
55.5636 5.417 0.238
55.5840 5.417 0.238
55.6045 5.302 0.235
55.6250 5.771 0.245
55.6454 5.656 0.243
55.6659 5.406 0.237
55.6864 5.458 0.238
55.7068 5.594 0.241
55.7273 5.396 0.237
55.7477 5.094 0.230
55.7682 5.438 0.238
55.7887 5.729 0.244
55.8091 5.229 0.233
55.8296 5.531 0.240
55.8501 5.094 0.230
55.8705 5.104 0.231
55.8910 5.542 0.240
55.9115 5.406 0.237
55.9319 6.427 0.259
55.9524 5.563 0.241
55.9728 5.031 0.229
55.9933 6.031 0.251
56.0138 5.729 0.244
56.0342 5.250 0.234
56.0547 5.885 0.248
56.0752 5.594 0.241
56.0956 6.177 0.254
56.1161 5.938 0.249
56.1365 5.740 0.245
56.1570 6.990 0.270
56.1775 6.844 0.267
56.1979 7.219 0.274
56.2184 7.698 0.283
56.2389 7.917 0.287
56.2593 7.823 0.285
56.2798 7.083 0.272
56.3002 7.417 0.278
56.3207 7.396 0.278
56.3412 6.844 0.267
56.3616 6.635 0.263
56.3821 6.750 0.265
56.4026 6.583 0.262
56.4230 6.813 0.266
56.4435 6.031 0.251
56.4639 5.990 0.250
56.4844 5.740 0.245
56.5049 5.729 0.244
56.5253 5.604 0.242
56.5458 5.354 0.236
56.5663 5.396 0.237
56.5867 5.083 0.230
56.6072 5.438 0.238
56.6276 5.521 0.240
56.6481 5.750 0.245
56.6686 5.302 0.235
56.6890 5.948 0.249
56.7095 6.177 0.254
56.7300 6.802 0.266
56.7504 6.302 0.256
56.7709 5.292 0.235
56.7914 5.563 0.241
56.8118 5.479 0.239
56.8323 5.198 0.233
56.8527 5.969 0.249
56.8732 5.990 0.250
56.8937 5.396 0.237
56.9141 5.167 0.232
56.9346 5.073 0.230
56.9551 4.656 0.220
56.9755 5.094 0.230
56.9960 4.781 0.223
57.0164 4.802 0.224
57.0369 4.969 0.228
57.0574 5.042 0.229
57.0778 4.865 0.225
57.0983 4.792 0.223
57.1188 4.740 0.222
57.1392 4.844 0.225
57.1597 4.094 0.207
57.1801 5.104 0.231
57.2006 5.083 0.230
57.2211 5.375 0.237
57.2415 4.615 0.219
57.2620 4.229 0.210
57.2825 4.771 0.223
57.3029 4.479 0.216
57.3234 4.469 0.216
57.3438 4.688 0.221
57.3643 4.563 0.218
57.3848 4.510 0.217
57.4052 4.594 0.219
57.4257 4.729 0.222
57.4462 4.771 0.223
57.4666 4.760 0.223
57.4871 4.740 0.222
57.5075 4.833 0.224
57.5280 4.844 0.225
57.5485 4.875 0.225
57.5689 5.448 0.238
57.5894 4.615 0.219
57.6099 5.083 0.230
57.6303 4.990 0.228
57.6508 4.969 0.228
57.6713 4.781 0.223
57.6917 4.677 0.221
57.7122 5.000 0.228
57.7326 4.823 0.224
57.7531 5.177 0.232
57.7736 5.281 0.235
57.7940 5.104 0.231
57.8145 5.396 0.237
57.8350 5.156 0.232
57.8554 5.635 0.242
57.8759 5.531 0.240
57.8963 6.177 0.254
57.9168 5.625 0.242
57.9373 6.490 0.260
57.9577 6.542 0.261
57.9782 7.083 0.272
57.9987 6.510 0.260
58.0191 7.219 0.274
58.0396 6.292 0.256
58.0600 6.583 0.262
58.0805 7.375 0.277
58.1010 6.448 0.259
58.1214 6.135 0.253
58.1419 5.958 0.249
58.1624 6.458 0.259
58.1828 6.552 0.261
58.2033 6.010 0.250
58.2237 6.198 0.254
58.2442 5.625 0.242
58.2647 5.844 0.247
58.2851 5.667 0.243
58.3056 5.698 0.244
58.3261 5.260 0.234
58.3465 5.271 0.234
58.3670 5.146 0.232
58.3874 4.979 0.228
58.4079 5.177 0.232
58.4284 5.333 0.236
58.4488 5.458 0.238
58.4693 5.573 0.241
58.4898 5.438 0.238
58.5102 5.427 0.238
58.5307 5.708 0.244
58.5512 5.656 0.243
58.5716 5.323 0.235
58.5921 5.354 0.236
58.6125 5.344 0.236
58.6330 5.729 0.244
58.6535 4.729 0.222
58.6739 5.219 0.233
58.6944 5.031 0.229
58.7149 5.115 0.231
58.7353 5.354 0.236
58.7558 5.250 0.234
58.7762 5.156 0.232
58.7967 4.990 0.228
58.8172 4.844 0.225
58.8376 5.021 0.229
58.8581 4.531 0.217
58.8786 4.958 0.227
58.8990 4.948 0.227
58.9195 4.542 0.218
58.9399 4.948 0.227
58.9604 4.750 0.222
58.9809 4.875 0.225
59.0013 4.021 0.205
59.0218 4.927 0.227
59.0423 5.083 0.230
59.0627 4.979 0.228
59.0832 4.781 0.223
59.1036 5.198 0.233
59.1241 5.313 0.235
59.1446 5.167 0.232
59.1650 5.042 0.229
59.1855 5.521 0.240
59.2060 5.531 0.240
59.2264 5.448 0.238
59.2469 5.698 0.244
59.2674 5.719 0.244
59.2878 5.927 0.248
59.3083 5.677 0.243
59.3287 5.333 0.236
59.3492 5.500 0.239
59.3697 5.448 0.238
59.3901 5.177 0.232
59.4106 5.635 0.242
59.4311 5.531 0.240
59.4515 5.375 0.237
59.4720 4.896 0.226
59.4924 4.927 0.227
59.5129 5.156 0.232
59.5334 4.885 0.226
59.5538 4.875 0.225
59.5743 4.635 0.220
59.5948 4.563 0.218
59.6152 4.729 0.222
59.6357 4.448 0.215
59.6561 4.292 0.211
59.6766 5.115 0.231
59.6971 4.969 0.228
59.7175 4.490 0.216
59.7380 4.229 0.210
59.7585 4.375 0.213
59.7789 5.260 0.234
59.7994 4.865 0.225
59.8198 5.115 0.231
59.8403 5.229 0.233
59.8608 5.656 0.243
59.8812 5.208 0.233
59.9017 5.427 0.238
59.9222 5.344 0.236
59.9426 5.438 0.238
59.9631 5.969 0.249
59.9835 6.229 0.255
60.0040 5.688 0.243
60.0245 5.542 0.240
60.0449 5.740 0.245
60.0654 5.406 0.237
60.0859 5.521 0.240
60.1063 5.188 0.232
60.1268 5.031 0.229
60.1473 5.396 0.237
60.1677 5.167 0.232
60.1882 5.042 0.229
60.2086 4.656 0.220
60.2291 4.385 0.214
60.2496 4.792 0.223
60.2700 5.115 0.231
60.2905 4.563 0.218
60.3110 4.448 0.215
60.3314 4.750 0.222
60.3519 4.792 0.223
60.3723 4.219 0.210
60.3928 4.813 0.224
60.4133 4.510 0.217
60.4337 4.271 0.211
60.4542 4.583 0.219
60.4747 4.719 0.222
60.4951 4.229 0.210
60.5156 4.844 0.225
60.5360 4.292 0.211
60.5565 4.396 0.214
60.5770 4.438 0.215
60.5974 4.260 0.211
60.6179 4.729 0.222
60.6384 4.490 0.216
60.6588 4.073 0.206
60.6793 4.031 0.205
60.6997 4.250 0.210
60.7202 4.250 0.210
60.7407 4.469 0.216
60.7611 4.438 0.215
60.7816 4.240 0.210
60.8021 4.292 0.211
60.8225 4.052 0.205
60.8430 4.104 0.207
60.8634 4.552 0.218
60.8839 4.375 0.213
60.9044 4.469 0.216
60.9248 4.396 0.214
60.9453 4.292 0.211
60.9658 4.385 0.214
60.9862 4.521 0.217
61.0067 4.531 0.217
61.0272 4.354 0.213
61.0476 4.583 0.219
61.0681 4.635 0.220
61.0885 4.781 0.223
61.1090 4.073 0.206
61.1295 4.302 0.212
61.1499 4.271 0.211
61.1704 4.531 0.217
61.1909 4.156 0.208
61.2113 4.469 0.216
61.2318 4.458 0.216
61.2522 4.510 0.217
61.2727 4.260 0.211
61.2932 4.448 0.215
61.3136 4.156 0.208
61.3341 4.344 0.213
61.3546 4.375 0.213
61.3750 4.375 0.213
61.3955 4.604 0.219
61.4159 4.469 0.216
61.4364 4.750 0.222
61.4569 4.250 0.210
61.4773 4.292 0.211
61.4978 4.333 0.212
61.5183 4.146 0.208
61.5387 4.333 0.212
61.5592 4.135 0.208
61.5796 4.250 0.210
61.6001 4.438 0.215
61.6206 4.156 0.208
61.6410 4.500 0.217
61.6615 4.729 0.222
61.6820 4.594 0.219
61.7024 4.479 0.216
61.7229 3.719 0.197
61.7433 3.833 0.200
61.7638 4.115 0.207
61.7843 4.281 0.211
61.8047 4.229 0.210
61.8252 3.688 0.196
61.8457 4.385 0.214
61.8661 4.115 0.207
61.8866 3.948 0.203
61.9071 4.073 0.206
61.9275 4.146 0.208
61.9480 4.219 0.210
61.9684 4.448 0.215
61.9889 4.333 0.212
62.0094 4.594 0.219
62.0298 4.260 0.211
62.0503 4.521 0.217
62.0708 4.396 0.214
62.0912 4.365 0.213
62.1117 4.667 0.220
62.1321 4.906 0.226
62.1526 4.896 0.226
62.1731 5.063 0.230
62.1935 4.979 0.228
62.2140 4.833 0.224
62.2345 5.292 0.235
62.2549 4.781 0.223
62.2754 4.563 0.218
62.2958 4.854 0.225
62.3163 4.500 0.217
62.3368 4.688 0.221
62.3572 4.844 0.225
62.3777 4.781 0.223
62.3982 4.677 0.221
62.4186 4.344 0.213
62.4391 4.229 0.210
62.4595 4.208 0.209
62.4800 4.115 0.207
62.5005 3.958 0.203
62.5209 4.490 0.216
62.5414 4.115 0.207
62.5619 4.198 0.209
62.5823 4.229 0.210
62.6028 4.302 0.212
62.6232 4.104 0.207
62.6437 4.125 0.207
62.6642 4.240 0.210
62.6846 3.958 0.203
62.7051 4.375 0.213
62.7256 4.333 0.212
62.7460 4.635 0.220
62.7665 4.521 0.217
62.7870 4.229 0.210
62.8074 3.969 0.203
62.8279 4.042 0.205
62.8483 4.229 0.210
62.8688 3.854 0.200
62.8893 4.115 0.207
62.9097 4.302 0.212
62.9302 4.250 0.210
62.9507 3.865 0.201
62.9711 4.313 0.212
62.9916 4.260 0.211
63.0120 3.990 0.204
63.0325 4.188 0.209
63.0530 4.250 0.210
63.0734 4.323 0.212
63.0939 4.240 0.210
63.1144 4.167 0.208
63.1348 4.010 0.204
63.1553 4.365 0.213
63.1757 4.281 0.211
63.1962 4.365 0.213
63.2167 4.240 0.210
63.2371 4.531 0.217
63.2576 4.115 0.207
63.2781 4.448 0.215
63.2985 3.927 0.202
63.3190 4.198 0.209
63.3394 3.958 0.203
63.3599 4.115 0.207
63.3804 4.438 0.215
63.4008 4.219 0.210
63.4213 4.625 0.219
63.4418 4.844 0.225
63.4622 4.542 0.218
63.4827 4.396 0.214
63.5032 4.406 0.214
63.5236 4.625 0.219
63.5441 4.156 0.208
63.5645 4.604 0.219
63.5850 4.260 0.211
63.6055 4.396 0.214
63.6259 4.781 0.223
63.6464 4.396 0.214
63.6669 4.677 0.221
63.6873 4.677 0.221
63.7078 4.469 0.216
63.7282 5.000 0.228
63.7487 4.583 0.219
63.7692 4.542 0.218
63.7896 4.490 0.216
63.8101 4.844 0.225
63.8306 4.625 0.219
63.8510 5.073 0.230
63.8715 4.458 0.216
63.8919 4.552 0.218
63.9124 4.875 0.225
63.9329 4.521 0.217
63.9533 4.479 0.216
63.9738 4.229 0.210
63.9943 4.927 0.227
64.0147 4.490 0.216
64.0352 4.510 0.217
64.0556 4.948 0.227
64.0761 4.823 0.224
64.0966 4.719 0.222
64.1170 5.052 0.229
64.1375 4.594 0.219
64.1580 4.563 0.218
64.1784 4.948 0.227
64.1989 4.531 0.217
64.2193 5.156 0.232
64.2398 5.042 0.229
64.2603 4.698 0.221
64.2807 4.719 0.222
64.3012 5.135 0.231
64.3217 4.594 0.219
64.3421 4.240 0.210
64.3626 4.510 0.217
64.3831 4.573 0.218
64.4035 4.458 0.216
64.4240 4.052 0.205
64.4444 4.781 0.223
64.4649 4.250 0.210
64.4854 4.469 0.216
64.5058 4.927 0.227
64.5263 4.854 0.225
64.5468 4.813 0.224
64.5672 4.990 0.228
64.5877 5.240 0.234
64.6081 5.219 0.233
64.6286 5.552 0.240
64.6491 5.656 0.243
64.6695 5.646 0.243
64.6900 5.667 0.243
64.7105 5.938 0.249
64.7309 5.667 0.243
64.7514 5.792 0.246
64.7718 5.823 0.246
64.7923 6.021 0.250
64.8128 5.146 0.232
64.8332 5.188 0.232
64.8537 5.396 0.237
64.8742 5.188 0.232
64.8946 5.219 0.233
64.9151 5.094 0.230
64.9355 4.885 0.226
64.9560 4.865 0.225
64.9765 4.552 0.218
64.9969 4.823 0.224
65.0174 4.167 0.208
65.0379 4.740 0.222
65.0583 4.167 0.208
65.0788 4.583 0.219
65.0992 4.354 0.213
65.1197 4.344 0.213
65.1402 4.646 0.220
65.1606 4.250 0.210
65.1811 4.083 0.206
65.2016 4.271 0.211
65.2220 4.479 0.216
65.2425 4.198 0.209
65.2630 4.167 0.208
65.2834 4.323 0.212
65.3039 4.542 0.218
65.3243 4.552 0.218
65.3448 4.115 0.207
65.3653 4.354 0.213
65.3857 4.208 0.209
65.4062 4.500 0.217
65.4267 4.417 0.214
65.4471 4.177 0.209
65.4676 4.208 0.209
65.4880 4.167 0.208
65.5085 4.323 0.212
65.5290 4.615 0.219
65.5494 4.365 0.213
65.5699 4.917 0.226
65.5904 4.531 0.217
65.6108 4.500 0.217
65.6313 4.802 0.224
65.6517 4.604 0.219
65.6722 4.750 0.222
65.6927 4.656 0.220
65.7131 4.719 0.222
65.7336 4.427 0.215
65.7541 4.260 0.211
65.7745 4.740 0.222
65.7950 4.438 0.215
65.8154 4.354 0.213
65.8359 4.260 0.211
65.8564 4.438 0.215
65.8768 4.365 0.213
65.8973 4.146 0.208
65.9178 4.323 0.212
65.9382 4.438 0.215
65.9587 4.344 0.213
65.9791 3.885 0.201
65.9996 4.083 0.206
66.0201 4.073 0.206
66.0405 4.354 0.213
66.0610 4.229 0.210
66.0815 4.219 0.210
66.1019 4.167 0.208
66.1224 4.198 0.209
66.1429 4.073 0.206
66.1633 4.396 0.214
66.1838 3.823 0.200
66.2042 3.979 0.204
66.2247 4.042 0.205
66.2452 4.250 0.210
66.2656 4.104 0.207
66.2861 4.271 0.211
66.3066 4.302 0.212
66.3270 4.094 0.207
66.3475 3.875 0.201
66.3679 3.865 0.201
66.3884 4.042 0.205
66.4089 4.094 0.207
66.4293 4.052 0.205
66.4498 4.073 0.206
66.4703 4.000 0.204
66.4907 4.385 0.214
66.5112 4.063 0.206
66.5316 4.031 0.205
66.5521 3.760 0.198
66.5726 3.750 0.198
66.5930 3.885 0.201
66.6135 3.875 0.201
66.6340 3.542 0.192
66.6544 3.979 0.204
66.6749 3.938 0.203
66.6953 3.938 0.203
66.7158 3.938 0.203
66.7363 3.708 0.197
66.7567 4.177 0.209
66.7772 4.094 0.207
66.7977 3.531 0.192
66.8181 4.125 0.207
66.8386 3.906 0.202
66.8590 3.833 0.200
66.8795 4.135 0.208
66.9000 3.688 0.196
66.9204 4.510 0.217
66.9409 4.229 0.210
66.9614 4.260 0.211
66.9818 4.354 0.213
67.0023 4.833 0.224
67.0228 4.771 0.223
67.0432 4.813 0.224
67.0637 4.281 0.211
67.0841 4.677 0.221
67.1046 4.823 0.224
67.1251 4.854 0.225
67.1455 5.292 0.235
67.1660 5.438 0.238
67.1865 5.500 0.239
67.2069 6.010 0.250
67.2274 6.115 0.252
67.2478 5.750 0.245
67.2683 6.167 0.253
67.2888 6.021 0.250
67.3092 5.865 0.247
67.3297 5.500 0.239
67.3502 5.729 0.244
67.3706 5.198 0.233
67.3911 5.563 0.241
67.4115 5.323 0.235
67.4320 5.792 0.246
67.4525 5.240 0.234
67.4729 5.083 0.230
67.4934 5.240 0.234
67.5139 4.823 0.224
67.5343 4.802 0.224
67.5548 4.802 0.224
67.5752 4.698 0.221
67.5957 4.458 0.216
67.6162 4.740 0.222
67.6366 4.438 0.215
67.6571 4.490 0.216
67.6776 4.750 0.222
67.6980 4.177 0.209
67.7185 4.396 0.214
67.7389 4.552 0.218
67.7594 4.260 0.211
67.7799 4.531 0.217
67.8003 4.260 0.211
67.8208 4.177 0.209
67.8413 4.135 0.208
67.8617 4.156 0.208
67.8822 4.250 0.210
67.9027 4.542 0.218
67.9231 4.188 0.209
67.9436 4.240 0.210
67.9640 3.844 0.200
67.9845 4.135 0.208
68.0050 4.083 0.206
68.0254 4.292 0.211
68.0459 4.521 0.217
68.0664 4.208 0.209
68.0868 4.063 0.206
68.1073 4.417 0.214
68.1277 4.042 0.205
68.1482 3.885 0.201
68.1687 4.094 0.207
68.1891 4.240 0.210
68.2096 4.323 0.212
68.2301 4.344 0.213
68.2505 4.427 0.215
68.2710 3.875 0.201
68.2914 4.604 0.219
68.3119 4.458 0.216
68.3324 4.615 0.219
68.3528 4.854 0.225
68.3733 4.385 0.214
68.3938 4.719 0.222
68.4142 4.240 0.210
68.4347 4.448 0.215
68.4551 4.875 0.225
68.4756 4.563 0.218
68.4961 4.865 0.225
68.5165 4.229 0.210
68.5370 4.229 0.210
68.5575 4.240 0.210
68.5779 4.302 0.212
68.5984 4.292 0.211
68.6189 4.313 0.212
68.6393 4.177 0.209
68.6598 4.010 0.204
68.6802 4.021 0.205
68.7007 3.406 0.188
68.7212 3.813 0.199
68.7416 4.427 0.215
68.7621 3.917 0.202
68.7826 4.344 0.213
68.8030 3.677 0.196
68.8235 4.260 0.211
68.8439 3.823 0.200
68.8644 4.052 0.205
68.8849 4.031 0.205
68.9053 4.063 0.206
68.9258 4.104 0.207
68.9463 3.969 0.203
68.9667 4.198 0.209
68.9872 4.396 0.214
69.0076 4.260 0.211
69.0281 4.240 0.210
69.0486 4.354 0.213
69.0690 4.354 0.213
69.0895 4.771 0.223
69.1100 4.656 0.220
69.1304 4.448 0.215
69.1509 4.667 0.220
69.1713 4.521 0.217
69.1918 4.531 0.217
69.2123 4.740 0.222
69.2327 4.729 0.222
69.2532 4.802 0.224
69.2737 4.521 0.217
69.2941 4.510 0.217
69.3146 4.927 0.227
69.3350 4.583 0.219
69.3555 4.396 0.214
69.3760 4.500 0.217
69.3964 4.375 0.213
69.4169 4.198 0.209
69.4374 4.479 0.216
69.4578 4.167 0.208
69.4783 4.177 0.209
69.4988 3.729 0.197
69.5192 3.802 0.199
69.5397 3.906 0.202
69.5601 3.823 0.200
69.5806 4.135 0.208
69.6011 3.792 0.199
69.6215 3.823 0.200
69.6420 3.667 0.195
69.6625 3.677 0.196
69.6829 3.583 0.193
69.7034 3.823 0.200
69.7238 3.719 0.197
69.7443 3.375 0.188
69.7648 3.740 0.197
69.7852 3.750 0.198
69.8057 3.646 0.195
69.8262 3.604 0.194
69.8466 3.521 0.192
69.8671 3.521 0.192
69.8875 3.646 0.195
69.9080 3.708 0.197
69.9285 3.833 0.200
69.9489 3.740 0.197
69.9694 3.156 0.181
69.9899 3.625 0.194
70.0103 3.698 0.196
70.0308 3.625 0.194
70.0512 3.510 0.191
70.0717 3.479 0.190
70.0922 3.542 0.192
70.1126 3.167 0.182
70.1331 3.219 0.183
70.1536 3.552 0.192
70.1740 3.156 0.181
70.1945 3.448 0.190
70.2149 3.583 0.193
70.2354 4.010 0.204
70.2559 4.104 0.207
70.2763 3.698 0.196
70.2968 3.719 0.197
70.3173 4.146 0.208
70.3377 3.917 0.202
70.3582 3.833 0.200
70.3787 3.573 0.193
70.3991 3.375 0.188
70.4196 4.021 0.205
70.4400 4.031 0.205
70.4605 3.885 0.201
70.4810 3.677 0.196
70.5014 3.917 0.202
70.5219 3.531 0.192
70.5424 3.490 0.191
70.5628 3.177 0.182
70.5833 3.688 0.196
70.6037 3.427 0.189
70.6242 3.510 0.191
70.6447 3.458 0.190
70.6651 3.583 0.193
70.6856 3.219 0.183
70.7061 3.583 0.193
70.7265 3.115 0.180
70.7470 3.552 0.192
70.7674 3.490 0.191
70.7879 3.396 0.188
70.8084 3.885 0.201
70.8288 3.854 0.200
70.8493 3.948 0.203
70.8698 3.281 0.185
70.8902 3.531 0.192
70.9107 3.729 0.197
70.9311 3.344 0.187
70.9516 3.667 0.195
70.9721 3.563 0.193
70.9925 3.448 0.190
71.0130 3.458 0.190
71.0335 3.563 0.193
71.0539 3.438 0.189
71.0744 3.750 0.198
71.0948 3.656 0.195
71.1153 3.573 0.193
71.1358 3.479 0.190
71.1562 3.646 0.195
71.1767 3.271 0.185
71.1972 3.813 0.199
71.2176 3.792 0.199
71.2381 3.792 0.199
71.2586 3.542 0.192
71.2790 3.594 0.193
71.2995 3.875 0.201
71.3199 3.552 0.192
71.3404 3.594 0.193
71.3609 3.427 0.189
71.3813 3.354 0.187
71.4018 3.583 0.193
71.4223 3.719 0.197
71.4427 3.188 0.182
71.4632 3.323 0.186
71.4836 3.365 0.187
71.5041 3.469 0.190
71.5246 3.188 0.182
71.5450 3.500 0.191
71.5655 3.271 0.185
71.5860 3.427 0.189
71.6064 3.802 0.199
71.6269 3.438 0.189
71.6473 3.583 0.193
71.6678 3.333 0.186
71.6883 3.344 0.187
71.7087 3.406 0.188
71.7292 3.177 0.182
71.7497 3.177 0.182
71.7701 2.979 0.176
71.7906 3.333 0.186
71.8110 3.771 0.198
71.8315 3.427 0.189
71.8520 3.458 0.190
71.8724 3.458 0.190
71.8929 3.396 0.188
71.9134 3.333 0.186
71.9338 3.323 0.186
71.9543 3.719 0.197
71.9747 3.646 0.195
71.9952 3.625 0.194
72.0157 3.552 0.192
72.0361 3.406 0.188
72.0566 3.115 0.180
72.0771 3.417 0.189
72.0975 3.542 0.192
72.1180 3.896 0.201
72.1385 3.719 0.197
72.1589 3.135 0.181
72.1794 3.635 0.195
72.1998 3.656 0.195
72.2203 3.531 0.192
72.2408 3.448 0.190
72.2612 3.146 0.181
72.2817 3.948 0.203
72.3022 3.417 0.189
72.3226 3.198 0.183
72.3431 3.531 0.192
72.3635 3.698 0.196
72.3840 3.625 0.194
72.4045 3.625 0.194
72.4249 3.667 0.195
72.4454 3.281 0.185
72.4659 3.344 0.187
72.4863 3.417 0.189
72.5068 3.104 0.180
72.5272 3.896 0.201
72.5477 3.104 0.180
72.5682 3.198 0.183
72.5886 3.281 0.185
72.6091 3.344 0.187
72.6296 3.510 0.191
72.6500 3.125 0.180
72.6705 3.240 0.184
72.6909 3.594 0.193
72.7114 3.313 0.186
72.7319 3.604 0.194
72.7523 3.063 0.179
72.7728 3.396 0.188
72.7933 3.292 0.185
72.8137 3.271 0.185
72.8342 3.563 0.193
72.8547 3.448 0.190
72.8751 3.563 0.193
72.8956 3.677 0.196
72.9160 3.865 0.201
72.9365 3.479 0.190
72.9570 3.219 0.183
72.9774 3.281 0.185
72.9979 3.427 0.189
73.0184 3.281 0.185
73.0388 3.510 0.191
73.0593 3.615 0.194
73.0797 3.125 0.180
73.1002 3.333 0.186
73.1207 3.448 0.190
73.1411 3.219 0.183
73.1616 3.323 0.186
73.1821 3.292 0.185
73.2025 3.135 0.181
73.2230 3.156 0.181
73.2434 3.135 0.181
73.2639 3.125 0.180
73.2844 3.406 0.188
73.3048 3.313 0.186
73.3253 3.427 0.189
73.3458 3.260 0.184
73.3662 3.094 0.180
73.3867 3.240 0.184
73.4071 3.760 0.198
73.4276 3.396 0.188
73.4481 3.365 0.187
73.4685 3.083 0.179
73.4890 3.333 0.186
73.5095 2.917 0.174
73.5299 3.344 0.187
73.5504 3.052 0.178
73.5708 3.010 0.177
73.5913 3.094 0.180
73.6118 3.104 0.180
73.6322 3.260 0.184
73.6527 3.104 0.180
73.6732 2.760 0.170
73.6936 3.292 0.185
73.7141 3.167 0.182
73.7346 3.323 0.186
73.7550 3.250 0.184
73.7755 3.469 0.190
73.7959 3.396 0.188
73.8164 3.052 0.178
73.8369 2.990 0.176
73.8573 3.146 0.181
73.8778 3.333 0.186
73.8983 3.333 0.186
73.9187 3.104 0.180
73.9392 3.031 0.178
73.9596 3.240 0.184
73.9801 3.635 0.195
74.0006 3.479 0.190
74.0210 3.479 0.190
74.0415 3.115 0.180
74.0620 3.635 0.195
74.0824 3.531 0.192
74.1029 3.583 0.193
74.1233 3.375 0.188
74.1438 3.510 0.191
74.1643 3.417 0.189
74.1847 3.333 0.186
74.2052 3.021 0.177
74.2257 3.708 0.197
74.2461 3.188 0.182
74.2666 3.677 0.196
74.2870 3.458 0.190
74.3075 3.250 0.184
74.3280 3.594 0.193
74.3484 2.927 0.175
74.3689 3.313 0.186
74.3894 3.135 0.181
74.4098 3.302 0.185
74.4303 2.906 0.174
74.4507 3.198 0.183
74.4712 3.313 0.186
74.4917 3.167 0.182
74.5121 3.344 0.187
74.5326 3.156 0.181
74.5531 2.948 0.175
74.5735 3.208 0.183
74.5940 3.031 0.178
74.6145 2.844 0.172
74.6349 3.188 0.182
74.6554 3.271 0.185
74.6758 3.365 0.187
74.6963 3.229 0.183
74.7168 3.427 0.189
74.7372 2.979 0.176
74.7577 3.271 0.185
74.7782 2.917 0.174
74.7986 3.115 0.180
74.8191 3.198 0.183
74.8395 3.448 0.190
74.8600 3.010 0.177
74.8805 3.302 0.185
74.9009 3.219 0.183
74.9214 3.083 0.179
74.9419 3.208 0.183
74.9623 3.292 0.185
74.9828 3.365 0.187
75.0032 3.198 0.183
75.0237 3.198 0.183
75.0442 3.042 0.178
75.0646 3.104 0.180
75.0851 3.281 0.185
75.1056 2.917 0.174
75.1260 2.948 0.175
75.1465 3.042 0.178
75.1669 3.240 0.184
75.1874 3.469 0.190
75.2079 3.000 0.177
75.2283 3.365 0.187
75.2488 3.146 0.181
75.2693 3.375 0.188
75.2897 3.417 0.189
75.3102 2.990 0.176
75.3306 3.583 0.193
75.3511 3.125 0.180
75.3716 3.250 0.184
75.3920 3.271 0.185
75.4125 3.167 0.182
75.4330 3.094 0.180
75.4534 2.979 0.176
75.4739 3.021 0.177
75.4944 3.135 0.181
75.5148 3.333 0.186
75.5353 3.260 0.184
75.5557 2.990 0.176
75.5762 3.135 0.181
75.5967 3.375 0.188
75.6171 3.094 0.180
75.6376 3.292 0.185
75.6581 3.573 0.193
75.6785 3.240 0.184
75.6990 3.438 0.189
75.7194 3.729 0.197
75.7399 3.458 0.190
75.7604 3.740 0.197
75.7808 3.552 0.192
75.8013 3.875 0.201
75.8218 4.010 0.204
75.8422 3.708 0.197
75.8627 3.990 0.204
75.8831 3.938 0.203
75.9036 3.542 0.192
75.9241 4.031 0.205
75.9445 3.656 0.195
75.9650 4.052 0.205
75.9855 4.240 0.210
76.0059 4.125 0.207
76.0264 4.063 0.206
76.0468 4.000 0.204
76.0673 3.823 0.200
76.0878 4.427 0.215
76.1082 4.146 0.208
76.1287 3.615 0.194
76.1492 3.385 0.188
76.1696 3.583 0.193
76.1901 3.688 0.196
76.2105 3.573 0.193
76.2310 3.438 0.189
76.2515 3.292 0.185
76.2719 3.083 0.179
76.2924 3.510 0.191
76.3129 3.729 0.197
76.3333 3.552 0.192
76.3538 3.542 0.192
76.3743 3.323 0.186
76.3947 3.240 0.184
76.4152 3.563 0.193
76.4356 3.156 0.181
76.4561 3.292 0.185
76.4766 3.177 0.182
76.4970 3.188 0.182
76.5175 3.427 0.189
76.5380 3.510 0.191
76.5584 3.167 0.182
76.5789 3.344 0.187
76.5993 3.260 0.184
76.6198 3.208 0.183
76.6403 3.188 0.182
76.6607 3.510 0.191
76.6812 2.844 0.172
76.7017 3.438 0.189
76.7221 3.240 0.184
76.7426 3.167 0.182
76.7630 2.781 0.170
76.7835 2.833 0.172
76.8040 3.104 0.180
76.8244 3.115 0.180
76.8449 3.125 0.180
76.8654 2.833 0.172
76.8858 3.396 0.188
76.9063 3.292 0.185
76.9267 3.198 0.183
76.9472 2.958 0.176
76.9677 2.927 0.175
76.9881 3.198 0.183
77.0086 2.958 0.176
77.0291 3.271 0.185
77.0495 3.292 0.185
77.0700 3.115 0.180
77.0905 3.167 0.182
77.1109 2.958 0.176
77.1314 3.021 0.177
77.1518 3.031 0.178
77.1723 3.000 0.177
77.1928 3.156 0.181
77.2132 3.031 0.178
77.2337 3.333 0.186
77.2542 3.198 0.183
77.2746 3.167 0.182
77.2951 3.104 0.180
77.3155 2.854 0.172
77.3360 3.146 0.181
77.3565 3.156 0.181
77.3769 3.177 0.182
77.3974 3.094 0.180
77.4179 3.573 0.193
77.4383 3.031 0.178
77.4588 3.365 0.187
77.4792 3.104 0.180
77.4997 3.563 0.193
77.5202 3.219 0.183
77.5406 3.167 0.182
77.5611 3.698 0.196
77.5816 3.438 0.189
77.6020 3.521 0.192
77.6225 3.427 0.189
77.6429 3.219 0.183
77.6634 3.427 0.189
77.6839 2.885 0.173
77.7043 3.427 0.189
77.7248 3.760 0.198
77.7453 3.344 0.187
77.7657 3.458 0.190
77.7862 3.333 0.186
77.8066 3.667 0.195
77.8271 3.521 0.192
77.8476 3.792 0.199
77.8680 3.677 0.196
77.8885 3.594 0.193
77.9090 3.458 0.190
77.9294 3.542 0.192
77.9499 3.927 0.202
77.9704 3.438 0.189
77.9908 3.438 0.189
78.0113 3.656 0.195
78.0317 3.313 0.186
78.0522 3.385 0.188
78.0727 3.188 0.182
78.0931 3.344 0.187
78.1136 3.333 0.186
78.1341 3.344 0.187
78.1545 3.375 0.188
78.1750 3.260 0.184
78.1954 3.302 0.185
78.2159 3.573 0.193
78.2364 3.510 0.191
78.2568 3.365 0.187
78.2773 3.490 0.191
78.2978 3.427 0.189
78.3182 2.906 0.174
78.3387 3.219 0.183
78.3591 3.250 0.184
78.3796 2.948 0.175
78.4001 3.531 0.192
78.4205 3.385 0.188
78.4410 3.052 0.178
78.4615 3.417 0.189
78.4819 3.563 0.193
78.5024 3.240 0.184
78.5228 3.240 0.184
78.5433 3.438 0.189
78.5638 3.167 0.182
78.5842 3.354 0.187
78.6047 3.188 0.182
78.6252 3.448 0.190
78.6456 3.198 0.183
78.6661 3.365 0.187
78.6865 3.469 0.190
78.7070 3.583 0.193
78.7275 3.208 0.183
78.7479 3.563 0.193
78.7684 3.365 0.187
78.7889 3.521 0.192
78.8093 3.427 0.189
78.8298 3.323 0.186
78.8503 3.240 0.184
78.8707 3.302 0.185
78.8912 2.917 0.174
78.9116 3.229 0.183
78.9321 3.083 0.179
78.9526 3.042 0.178
78.9730 3.104 0.180
78.9935 3.365 0.187
79.0140 3.292 0.185
79.0344 3.156 0.181
79.0549 3.510 0.191
79.0753 3.240 0.184
79.0958 3.604 0.194
79.1163 3.260 0.184
79.1367 3.177 0.182
79.1572 3.406 0.188
79.1777 3.240 0.184
79.1981 3.354 0.187
79.2186 3.333 0.186
79.2390 3.260 0.184
79.2595 3.135 0.181
79.2800 3.302 0.185
79.3004 3.292 0.185
79.3209 3.365 0.187
79.3414 3.125 0.180
79.3618 3.354 0.187
79.3823 3.198 0.183
79.4027 3.063 0.179
79.4232 3.146 0.181
79.4437 3.208 0.183
79.4641 3.531 0.192
79.4846 3.156 0.181
79.5051 3.521 0.192
79.5255 3.635 0.195
79.5460 3.563 0.193
79.5664 3.198 0.183
79.5869 3.719 0.197
79.6074 3.427 0.189
79.6278 3.635 0.195
79.6483 3.271 0.185
79.6688 3.542 0.192
79.6892 3.323 0.186
79.7097 3.729 0.197
79.7302 3.281 0.185
79.7506 3.375 0.188
79.7711 3.406 0.188
79.7915 3.469 0.190
79.8120 3.365 0.187
79.8325 3.490 0.191
79.8529 3.427 0.189
79.8734 3.156 0.181
79.8939 3.344 0.187
79.9143 3.219 0.183
79.9348 3.083 0.179
79.9552 3.167 0.182
79.9757 2.865 0.173
79.9962 3.594 0.193
