'Id: "" Comment: "" Operator: "Lab Manager" Anode: "Cu" Scantype: "Locked Coupled" TimePerStep: "96" X: "0" Y: "0" Z: "0" 
5.0000 18.458 0.438
5.0205 18.333 0.437
5.0409 18.677 0.441
5.0614 19.083 0.446
5.0819 19.146 0.447
5.1023 18.625 0.440
5.1228 18.469 0.439
5.1432 18.292 0.437
5.1637 18.135 0.435
5.1842 18.917 0.444
5.2046 18.542 0.439
5.2251 18.552 0.440
5.2456 18.677 0.441
5.2660 18.458 0.438
5.2865 18.740 0.442
5.3069 19.417 0.450
5.3274 18.104 0.434
5.3479 18.198 0.435
5.3683 18.229 0.436
5.3888 18.458 0.438
5.4093 18.969 0.445
5.4297 18.708 0.441
5.4502 18.052 0.434
5.4706 18.313 0.437
5.4911 17.958 0.433
5.5116 18.927 0.444
5.5320 18.542 0.439
5.5525 18.156 0.435
5.5730 18.344 0.437
5.5934 19.000 0.445
5.6139 18.938 0.444
5.6343 18.958 0.444
5.6548 18.948 0.444
5.6753 19.646 0.452
5.6957 18.781 0.442
5.7162 19.396 0.449
5.7367 19.417 0.450
5.7571 18.500 0.439
5.7776 19.375 0.449
5.7980 19.063 0.446
5.8185 19.896 0.455
5.8390 20.302 0.460
5.8594 20.271 0.460
5.8799 20.885 0.466
5.9004 21.979 0.478
5.9208 22.604 0.485
5.9413 21.563 0.474
5.9618 22.083 0.480
5.9822 23.135 0.491
6.0027 23.656 0.496
6.0231 24.083 0.501
6.0436 24.885 0.509
6.0641 24.729 0.508
6.0845 25.844 0.519
6.1050 26.500 0.525
6.1255 27.333 0.534
6.1459 27.563 0.536
6.1664 29.302 0.552
6.1868 29.531 0.555
6.2073 29.854 0.558
6.2278 32.583 0.583
6.2482 31.500 0.573
6.2687 30.719 0.566
6.2892 32.198 0.579
6.3096 32.531 0.582
6.3301 32.375 0.581
6.3505 32.281 0.580
6.3710 31.708 0.575
6.3915 32.010 0.577
6.4119 30.573 0.564
6.4324 30.667 0.565
6.4529 29.802 0.557
6.4733 28.458 0.544
6.4938 27.510 0.535
6.5142 27.552 0.536
6.5347 27.073 0.531
6.5552 25.719 0.518
6.5756 25.854 0.519
6.5961 23.438 0.494
6.6166 23.750 0.497
6.6370 22.896 0.488
6.6575 22.490 0.484
6.6779 23.406 0.494
6.6984 22.365 0.483
6.7189 22.500 0.484
6.7393 21.167 0.470
6.7598 20.646 0.464
6.7803 20.510 0.462
6.8007 20.646 0.464
6.8212 20.417 0.461
6.8417 19.729 0.453
6.8621 19.635 0.452
6.8826 18.844 0.443
6.9030 19.531 0.451
6.9235 18.708 0.441
6.9440 18.729 0.442
6.9644 19.146 0.447
6.9849 18.750 0.442
7.0054 18.948 0.444
7.0258 17.521 0.427
7.0463 18.740 0.442
7.0667 18.073 0.434
7.0872 17.542 0.427
7.1077 17.958 0.433
7.1281 17.385 0.426
7.1486 17.625 0.428
7.1691 17.271 0.424
7.1895 17.688 0.429
7.2100 16.990 0.421
7.2304 15.896 0.407
7.2509 17.625 0.428
7.2714 17.083 0.422
7.2918 17.229 0.424
7.3123 16.938 0.420
7.3328 16.375 0.413
7.3532 17.302 0.425
7.3737 17.156 0.423
7.3941 17.156 0.423
7.4146 15.438 0.401
7.4351 16.396 0.413
7.4555 16.073 0.409
7.4760 16.146 0.410
7.4965 16.906 0.420
7.5169 17.313 0.425
7.5374 15.927 0.407
7.5579 15.969 0.408
7.5783 16.802 0.418
7.5988 17.448 0.426
7.6192 15.844 0.406
7.6397 16.198 0.411
7.6602 15.552 0.402
7.6806 16.083 0.409
7.7011 16.198 0.411
7.7216 15.948 0.408
7.7420 16.073 0.409
7.7625 15.729 0.405
7.7829 15.844 0.406
7.8034 16.625 0.416
7.8239 16.104 0.410
7.8443 15.938 0.407
7.8648 16.240 0.411
7.8853 15.698 0.404
7.9057 15.510 0.402
7.9262 15.542 0.402
7.9466 15.990 0.408
7.9671 15.938 0.407
7.9876 16.229 0.411
8.0080 15.958 0.408
8.0285 15.667 0.404
8.0490 16.594 0.416
8.0694 16.010 0.408
8.0899 16.042 0.409
8.1103 16.021 0.409
8.1308 15.615 0.403
8.1513 15.604 0.403
8.1717 16.208 0.411
8.1922 16.969 0.420
8.2127 16.594 0.416
8.2331 17.010 0.421
8.2536 17.635 0.429
8.2740 17.479 0.427
8.2945 16.625 0.416
8.3150 15.323 0.400
8.3354 15.167 0.397
8.3559 15.583 0.403
8.3764 15.271 0.399
8.3968 15.854 0.406
8.4173 15.365 0.400
8.4378 14.573 0.390
8.4582 15.063 0.396
8.4787 15.135 0.397
8.4991 14.760 0.392
8.5196 14.750 0.392
8.5401 15.177 0.398
8.5605 14.635 0.390
8.5810 14.719 0.392
8.6015 14.677 0.391
8.6219 15.615 0.403
8.6424 15.115 0.397
8.6628 15.292 0.399
8.6833 15.583 0.403
8.7038 15.281 0.399
8.7242 15.552 0.402
8.7447 16.260 0.412
8.7652 17.344 0.425
8.7856 16.708 0.417
8.8061 16.833 0.419
8.8265 18.365 0.437
8.8470 18.521 0.439
8.8675 19.708 0.453
8.8879 19.823 0.454
8.9084 21.479 0.473
8.9289 23.135 0.491
8.9493 24.135 0.501
8.9698 27.042 0.531
8.9902 31.333 0.571
9.0107 38.010 0.629
9.0312 48.927 0.714
9.0516 67.219 0.837
9.0721 98.667 1.014
9.0926 147.802 1.241
9.1130 208.125 1.472
9.1335 237.292 1.572
9.1539 159.854 1.290
9.1744 71.333 0.862
9.1949 32.688 0.584
9.2153 25.083 0.511
9.2358 22.292 0.482
9.2563 20.802 0.465
9.2767 20.552 0.463
9.2972 19.917 0.455
9.3177 19.094 0.446
9.3381 19.354 0.449
9.3586 18.979 0.445
9.3790 17.375 0.425
9.3995 16.979 0.421
9.4200 16.677 0.417
9.4404 16.406 0.413
9.4609 16.500 0.415
9.4814 16.250 0.411
9.5018 16.052 0.409
9.5223 15.875 0.407
9.5427 15.531 0.402
9.5632 16.688 0.417
9.5837 16.594 0.416
9.6041 15.885 0.407
9.6246 16.188 0.411
9.6451 16.063 0.409
9.6655 16.260 0.412
9.6860 16.010 0.408
9.7064 16.302 0.412
9.7269 15.875 0.407
9.7474 16.156 0.410
9.7678 16.083 0.409
9.7883 16.271 0.412
9.8088 17.115 0.422
9.8292 16.479 0.414
9.8497 17.344 0.425
9.8701 16.615 0.416
9.8906 17.427 0.426
9.9111 18.156 0.435
9.9315 19.406 0.450
9.9520 19.458 0.450
9.9725 19.167 0.447
9.9929 20.208 0.459
10.0134 20.885 0.466
10.0338 19.927 0.456
10.0543 19.052 0.445
10.0748 17.927 0.432
10.0952 16.448 0.414
10.1157 15.354 0.400
10.1362 15.708 0.405
10.1566 15.417 0.401
10.1771 15.313 0.399
10.1976 14.792 0.393
10.2180 15.604 0.403
10.2385 14.146 0.384
10.2589 14.667 0.391
10.2794 14.563 0.389
10.2999 14.250 0.385
10.3203 14.781 0.392
10.3408 14.406 0.387
10.3613 14.677 0.391
10.3817 13.667 0.377
10.4022 15.323 0.400
10.4226 14.667 0.391
10.4431 14.750 0.392
10.4636 13.917 0.381
10.4840 14.042 0.382
10.5045 13.938 0.381
10.5250 13.531 0.375
10.5454 14.875 0.394
10.5659 13.792 0.379
10.5863 14.031 0.382
10.6068 14.313 0.386
10.6273 13.354 0.373
10.6477 14.031 0.382
10.6682 13.781 0.379
10.6887 14.104 0.383
10.7091 13.500 0.375
10.7296 13.990 0.382
10.7500 14.323 0.386
10.7705 14.125 0.384
10.7910 14.052 0.383
10.8114 13.979 0.382
10.8319 13.917 0.381
10.8524 14.115 0.383
10.8728 13.375 0.373
10.8933 14.125 0.384
10.9137 13.365 0.373
10.9342 14.281 0.386
10.9547 13.438 0.374
10.9751 14.438 0.388
10.9956 13.740 0.378
11.0161 13.479 0.375
11.0365 14.021 0.382
11.0570 13.531 0.375
11.0775 13.479 0.375
11.0979 13.708 0.378
11.1184 13.250 0.372
11.1388 12.979 0.368
11.1593 13.500 0.375
11.1798 13.365 0.373
11.2002 12.865 0.366
11.2207 13.823 0.379
11.2412 14.552 0.389
11.2616 13.656 0.377
11.2821 13.417 0.374
11.3025 13.802 0.379
11.3230 13.344 0.373
11.3435 12.979 0.368
11.3639 13.750 0.378
11.3844 12.792 0.365
11.4049 13.635 0.377
11.4253 13.510 0.375
11.4458 13.219 0.371
11.4662 13.333 0.373
11.4867 13.406 0.374
11.5072 13.573 0.376
11.5276 13.698 0.378
11.5481 13.250 0.372
11.5686 13.719 0.378
11.5890 13.427 0.374
11.6095 13.781 0.379
11.6299 13.490 0.375
11.6504 14.365 0.387
11.6709 13.542 0.376
11.6913 13.896 0.380
11.7118 14.125 0.384
11.7323 14.031 0.382
11.7527 14.510 0.389
11.7732 14.094 0.383
11.7937 14.479 0.388
11.8141 14.344 0.387
11.8346 15.583 0.403
11.8550 14.156 0.384
11.8755 14.188 0.384
11.8960 14.740 0.392
11.9164 13.813 0.379
11.9369 14.542 0.389
11.9574 14.823 0.393
11.9778 15.198 0.398
11.9983 15.427 0.401
12.0187 16.271 0.412
12.0392 15.594 0.403
12.0597 16.354 0.413
12.0801 17.625 0.428
12.1006 16.375 0.413
12.1211 17.813 0.431
12.1415 18.385 0.438
12.1620 19.281 0.448
12.1824 18.677 0.441
12.2029 19.177 0.447
12.2234 20.260 0.459
12.2438 20.708 0.464
12.2643 21.813 0.477
12.2848 23.104 0.491
12.3052 23.083 0.490
12.3257 24.542 0.506
12.3461 23.542 0.495
12.3666 23.906 0.499
12.3871 24.010 0.500
12.4075 23.542 0.495
12.4280 23.740 0.497
12.4485 22.208 0.481
12.4689 22.031 0.479
12.4894 21.333 0.471
12.5098 20.500 0.462
12.5303 20.354 0.460
12.5508 19.219 0.447
12.5712 18.979 0.445
12.5917 18.594 0.440
12.6122 18.302 0.437
12.6326 17.615 0.428
12.6531 18.021 0.433
12.6736 18.052 0.434
12.6940 17.135 0.422
12.7145 16.625 0.416
12.7349 16.708 0.417
12.7554 16.000 0.408
12.7759 15.604 0.403
12.7963 15.292 0.399
12.8168 15.135 0.397
12.8373 15.240 0.398
12.8577 14.875 0.394
12.8782 13.542 0.376
12.8986 14.698 0.391
12.9191 14.063 0.383
12.9396 13.917 0.381
12.9600 13.677 0.377
12.9805 13.438 0.374
13.0010 13.771 0.379
13.0214 12.844 0.366
13.0419 13.531 0.375
13.0623 12.698 0.364
13.0828 12.802 0.365
13.1033 12.865 0.366
13.1237 12.323 0.358
13.1442 12.552 0.362
13.1647 12.510 0.361
13.1851 12.250 0.357
13.2056 12.375 0.359
13.2260 11.792 0.350
13.2465 12.594 0.362
13.2670 12.708 0.364
13.2874 11.906 0.352
13.3079 11.917 0.352
13.3284 12.167 0.356
13.3488 12.313 0.358
13.3693 11.802 0.351
13.3897 12.271 0.358
13.4102 11.490 0.346
13.4307 11.781 0.350
13.4511 11.854 0.351
13.4716 12.031 0.354
13.4921 11.354 0.344
13.5125 11.469 0.346
13.5330 11.563 0.347
13.5535 11.594 0.348
13.5739 11.583 0.347
13.5944 11.052 0.339
13.6148 11.906 0.352
13.6353 12.323 0.358
13.6558 11.906 0.352
13.6762 11.875 0.352
13.6967 11.854 0.351
13.7172 11.292 0.343
13.7376 11.365 0.344
13.7581 10.885 0.337
13.7785 10.083 0.324
13.7990 10.875 0.337
13.8195 11.615 0.348
13.8399 11.073 0.340
13.8604 10.917 0.337
13.8809 11.063 0.339
13.9013 10.542 0.331
13.9218 10.615 0.333
13.9422 11.094 0.340
13.9627 10.115 0.325
13.9832 10.260 0.327
14.0036 10.667 0.333
14.0241 11.135 0.341
14.0446 10.313 0.328
14.0650 10.052 0.324
14.0855 10.802 0.335
14.1059 10.323 0.328
14.1264 11.010 0.339
14.1469 10.573 0.332
14.1673 10.635 0.333
14.1878 10.448 0.330
14.2083 11.104 0.340
14.2287 10.760 0.335
14.2492 11.073 0.340
14.2696 10.490 0.331
14.2901 10.396 0.329
14.3106 10.979 0.338
14.3310 10.260 0.327
14.3515 10.490 0.331
14.3720 10.542 0.331
14.3924 10.000 0.323
14.4129 10.354 0.328
14.4334 10.281 0.327
14.4538 10.438 0.330
14.4743 10.667 0.333
14.4947 9.948 0.322
14.5152 9.635 0.317
14.5357 10.177 0.326
14.5561 9.698 0.318
14.5766 10.135 0.325
14.5971 9.917 0.321
14.6175 9.771 0.319
14.6380 10.021 0.323
14.6584 10.302 0.328
14.6789 10.188 0.326
14.6994 10.063 0.324
14.7198 10.417 0.329
14.7403 9.302 0.311
14.7608 9.875 0.321
14.7812 9.906 0.321
14.8017 9.740 0.319
14.8221 10.448 0.330
14.8426 9.948 0.322
14.8631 10.042 0.323
14.8835 9.563 0.316
14.9040 10.052 0.324
14.9245 9.854 0.320
14.9449 10.156 0.325
14.9654 9.813 0.320
14.9858 10.229 0.326
15.0063 10.125 0.325
15.0268 10.083 0.324
15.0472 8.917 0.305
15.0677 10.344 0.328
15.0882 9.490 0.314
15.1086 9.521 0.315
15.1291 10.010 0.323
15.1495 10.240 0.327
15.1700 10.063 0.324
15.1905 10.167 0.325
15.2109 9.802 0.320
15.2314 9.813 0.320
15.2519 9.667 0.317
15.2723 10.656 0.333
15.2928 10.865 0.336
15.3133 10.406 0.329
15.3337 10.917 0.337
15.3542 11.271 0.343
15.3746 11.531 0.347
15.3951 12.073 0.355
15.4156 11.583 0.347
15.4360 11.458 0.345
15.4565 11.563 0.347
15.4770 11.885 0.352
15.4974 10.719 0.334
15.5179 10.375 0.329
15.5383 10.656 0.333
15.5588 11.302 0.343
15.5793 11.948 0.353
15.5997 11.479 0.346
15.6202 11.240 0.342
15.6407 11.917 0.352
15.6611 12.656 0.363
15.6816 13.552 0.376
15.7020 16.448 0.414
15.7225 20.781 0.465
15.7430 28.510 0.545
15.7634 44.969 0.684
15.7839 68.156 0.843
15.8044 84.167 0.936
15.8248 71.677 0.864
15.8453 52.365 0.739
15.8657 32.052 0.578
15.8862 18.875 0.443
15.9067 14.510 0.389
15.9271 12.198 0.356
15.9476 11.969 0.353
15.9681 11.375 0.344
15.9885 11.396 0.345
16.0090 10.958 0.338
16.0295 11.323 0.343
16.0499 10.667 0.333
16.0704 10.781 0.335
16.0908 10.542 0.331
16.1113 9.833 0.320
16.1318 10.292 0.327
16.1522 10.177 0.326
16.1727 9.760 0.319
16.1932 9.833 0.320
16.2136 10.010 0.323
16.2341 10.438 0.330
16.2545 9.510 0.315
16.2750 9.979 0.322
16.2955 9.552 0.315
16.3159 9.823 0.320
16.3364 10.188 0.326
16.3569 9.563 0.316
16.3773 9.948 0.322
16.3978 9.667 0.317
16.4182 10.010 0.323
16.4387 9.542 0.315
16.4592 9.813 0.320
16.4796 9.604 0.316
16.5001 9.740 0.319
16.5206 9.760 0.319
16.5410 9.719 0.318
16.5615 9.906 0.321
16.5819 10.156 0.325
16.6024 10.031 0.323
16.6229 9.563 0.316
16.6433 10.000 0.323
16.6638 10.188 0.326
16.6843 10.344 0.328
16.7047 9.385 0.313
16.7252 9.583 0.316
16.7456 9.604 0.316
16.7661 10.281 0.327
16.7866 9.250 0.310
16.8070 10.104 0.324
16.8275 9.438 0.314
16.8480 9.917 0.321
16.8684 9.615 0.316
16.8889 10.031 0.323
16.9094 9.958 0.322
16.9298 9.802 0.320
16.9503 9.365 0.312
16.9707 9.448 0.314
16.9912 9.052 0.307
17.0117 9.635 0.317
17.0321 9.448 0.314
17.0526 9.802 0.320
17.0731 10.198 0.326
17.0935 9.958 0.322
17.1140 9.875 0.321
17.1344 9.646 0.317
17.1549 9.708 0.318
17.1754 10.198 0.326
17.1958 9.167 0.309
17.2163 10.083 0.324
17.2368 10.083 0.324
17.2572 10.354 0.328
17.2777 10.229 0.326
17.2981 9.885 0.321
17.3186 9.979 0.322
17.3391 9.729 0.318
17.3595 9.677 0.317
17.3800 9.969 0.322
17.4005 9.698 0.318
17.4209 9.604 0.316
17.4414 9.260 0.311
17.4618 10.427 0.330
17.4823 10.458 0.330
17.5028 9.813 0.320
17.5232 9.906 0.321
17.5437 10.125 0.325
17.5642 10.010 0.323
17.5846 9.323 0.312
17.6051 11.000 0.339
17.6255 10.875 0.337
17.6460 10.073 0.324
17.6665 10.719 0.334
17.6869 11.094 0.340
17.7074 10.323 0.328
17.7279 11.302 0.343
17.7483 11.438 0.345
17.7688 12.052 0.354
17.7893 13.177 0.370
17.8097 16.000 0.408
17.8302 18.646 0.441
17.8506 20.740 0.465
17.8711 18.594 0.440
17.8916 16.813 0.418
17.9120 14.833 0.393
17.9325 12.802 0.365
17.9530 12.094 0.355
17.9734 11.354 0.344
17.9939 11.188 0.341
18.0143 11.229 0.342
18.0348 11.354 0.344
18.0553 11.115 0.340
18.0757 10.990 0.338
18.0962 10.833 0.336
18.1167 10.729 0.334
18.1371 11.229 0.342
18.1576 10.490 0.331
18.1780 11.510 0.346
18.1985 12.073 0.355
18.2190 12.990 0.368
18.2394 13.948 0.381
18.2599 16.417 0.414
18.2804 15.083 0.396
18.3008 13.458 0.374
18.3213 12.042 0.354
18.3417 10.813 0.336
18.3622 10.385 0.329
18.3827 10.990 0.338
18.4031 10.323 0.328
18.4236 10.979 0.338
18.4441 10.844 0.336
18.4645 10.729 0.334
18.4850 10.719 0.334
18.5054 11.052 0.339
18.5259 10.167 0.325
18.5464 10.875 0.337
18.5668 10.667 0.333
18.5873 11.115 0.340
18.6078 10.958 0.338
18.6282 10.323 0.328
18.6487 10.740 0.334
18.6692 11.646 0.348
18.6896 11.354 0.344
18.7101 11.906 0.352
18.7305 12.323 0.358
18.7510 11.802 0.351
18.7715 12.365 0.359
18.7919 11.552 0.347
18.8124 11.875 0.352
18.8329 13.521 0.375
18.8533 15.677 0.404
18.8738 19.292 0.448
18.8942 24.125 0.501
18.9147 26.677 0.527
18.9352 23.125 0.491
18.9556 19.625 0.452
18.9761 16.615 0.416
18.9966 14.302 0.386
19.0170 11.635 0.348
19.0375 11.552 0.347
19.0579 10.927 0.337
19.0784 10.052 0.324
19.0989 10.760 0.335
19.1193 10.490 0.331
19.1398 10.760 0.335
19.1603 10.354 0.328
19.1807 10.115 0.325
19.2012 10.521 0.331
19.2216 10.094 0.324
19.2421 9.896 0.321
19.2626 9.771 0.319
19.2830 10.198 0.326
19.3035 10.375 0.329
19.3240 9.844 0.320
19.3444 9.854 0.320
19.3649 9.740 0.319
19.3853 9.927 0.322
19.4058 9.667 0.317
19.4263 9.594 0.316
19.4467 9.667 0.317
19.4672 9.708 0.318
19.4877 9.583 0.316
19.5081 9.500 0.315
19.5286 9.906 0.321
19.5491 9.615 0.316
19.5695 9.698 0.318
19.5900 9.969 0.322
19.6104 9.625 0.317
19.6309 9.333 0.312
19.6514 9.604 0.316
19.6718 9.083 0.308
19.6923 9.500 0.315
19.7128 9.844 0.320
19.7332 10.010 0.323
19.7537 10.302 0.328
19.7741 9.906 0.321
19.7946 9.885 0.321
19.8151 9.510 0.315
19.8355 9.802 0.320
19.8560 9.458 0.314
19.8765 9.635 0.317
19.8969 9.354 0.312
19.9174 9.302 0.311
19.9378 9.885 0.321
19.9583 9.573 0.316
19.9788 9.135 0.308
19.9992 9.771 0.319
20.0197 9.438 0.314
20.0402 9.813 0.320
20.0606 10.052 0.324
20.0811 9.469 0.314
20.1015 9.594 0.316
20.1220 9.938 0.322
20.1425 9.406 0.313
20.1629 9.844 0.320
20.1834 9.885 0.321
20.2039 9.198 0.310
20.2243 9.531 0.315
20.2448 9.896 0.321
20.2653 9.479 0.314
20.2857 9.333 0.312
20.3062 9.573 0.316
20.3266 9.948 0.322
20.3471 10.156 0.325
20.3676 10.292 0.327
20.3880 9.927 0.322
20.4085 9.594 0.316
20.4290 10.594 0.332
20.4494 10.229 0.326
20.4699 10.094 0.324
20.4903 9.823 0.320
20.5108 10.427 0.330
20.5313 10.625 0.333
20.5517 10.250 0.327
20.5722 10.323 0.328
20.5927 9.250 0.310
20.6131 9.500 0.315
20.6336 10.104 0.324
20.6540 10.313 0.328
20.6745 9.573 0.316
20.6950 9.323 0.312
20.7154 10.083 0.324
20.7359 9.271 0.311
20.7564 9.688 0.318
20.7768 9.010 0.306
20.7973 8.677 0.301
20.8177 9.354 0.312
20.8382 9.906 0.321
20.8587 9.240 0.310
20.8791 9.510 0.315
20.8996 8.969 0.306
20.9201 9.094 0.308
20.9405 8.844 0.304
20.9610 9.729 0.318
20.9814 8.927 0.305
21.0019 8.938 0.305
21.0224 9.365 0.312
21.0428 9.010 0.306
21.0633 8.688 0.301
21.0838 8.854 0.304
21.1042 8.896 0.304
21.1247 9.125 0.308
21.1452 8.500 0.298
21.1656 8.917 0.305
21.1861 8.573 0.299
21.2065 8.344 0.295
21.2270 8.135 0.291
21.2475 8.042 0.289
21.2679 8.729 0.302
21.2884 7.906 0.287
21.3089 8.573 0.299
21.3293 8.156 0.291
21.3498 8.677 0.301
21.3702 8.896 0.304
21.3907 8.813 0.303
21.4112 8.854 0.304
21.4316 8.479 0.297
21.4521 8.125 0.291
21.4726 8.865 0.304
21.4930 8.313 0.294
21.5135 8.531 0.298
21.5339 8.406 0.296
21.5544 8.531 0.298
21.5749 7.760 0.284
21.5953 8.302 0.294
21.6158 8.885 0.304
21.6363 8.479 0.297
21.6567 8.583 0.299
21.6772 8.771 0.302
21.6976 8.000 0.289
21.7181 8.729 0.302
21.7386 8.240 0.293
21.7590 8.135 0.291
21.7795 8.354 0.295
21.8000 9.031 0.307
21.8204 8.219 0.293
21.8409 8.375 0.295
21.8613 8.094 0.290
21.8818 8.250 0.293
21.9023 8.365 0.295
21.9227 8.729 0.302
21.9432 8.094 0.290
21.9637 8.500 0.298
21.9841 7.833 0.286
22.0046 8.385 0.296
22.0251 9.198 0.310
22.0455 9.052 0.307
22.0660 9.271 0.311
22.0864 10.365 0.329
22.1069 10.688 0.334
22.1274 10.760 0.335
22.1478 9.958 0.322
22.1683 9.833 0.320
22.1888 9.021 0.307
22.2092 9.260 0.311
22.2297 9.188 0.309
22.2501 8.917 0.305
22.2706 8.292 0.294
22.2911 8.458 0.297
22.3115 8.688 0.301
22.3320 8.354 0.295
22.3525 8.458 0.297
22.3729 8.010 0.289
22.3934 7.677 0.283
22.4138 8.281 0.294
22.4343 8.594 0.299
22.4548 8.521 0.298
22.4752 8.427 0.296
22.4957 8.917 0.305
22.5162 7.906 0.287
22.5366 8.563 0.299
22.5571 8.208 0.292
22.5775 7.813 0.285
22.5980 8.667 0.300
22.6185 8.458 0.297
22.6389 8.813 0.303
22.6594 8.854 0.304
22.6799 9.146 0.309
22.7003 9.063 0.307
22.7208 8.083 0.290
22.7412 9.031 0.307
22.7617 8.771 0.302
22.7822 9.323 0.312
22.8026 9.354 0.312
22.8231 9.677 0.317
22.8436 11.531 0.347
22.8640 12.615 0.362
22.8845 16.927 0.420
22.9050 22.542 0.485
22.9254 31.833 0.576
22.9459 33.542 0.591
22.9663 27.771 0.538
22.9868 24.333 0.503
23.0073 21.083 0.469
23.0277 14.552 0.389
23.0482 11.958 0.353
23.0687 10.323 0.328
23.0891 9.906 0.321
23.1096 9.146 0.309
23.1300 8.854 0.304
23.1505 9.156 0.309
23.1710 8.938 0.305
23.1914 8.719 0.301
23.2119 8.750 0.302
23.2324 8.552 0.298
23.2528 8.604 0.299
23.2733 8.635 0.300
23.2937 8.917 0.305
23.3142 8.385 0.296
23.3347 8.188 0.292
23.3551 8.490 0.297
23.3756 8.302 0.294
23.3961 8.406 0.296
23.4165 8.979 0.306
23.4370 9.469 0.314
23.4574 8.833 0.303
23.4779 9.313 0.311
23.4984 9.896 0.321
23.5188 9.771 0.319
23.5393 10.083 0.324
23.5598 10.135 0.325
23.5802 10.906 0.337
23.6007 12.125 0.355
23.6211 13.510 0.375
23.6416 16.646 0.416
23.6621 24.490 0.505
23.6825 41.521 0.658
23.7030 69.156 0.849
23.7235 79.917 0.912
23.7439 57.875 0.776
23.7644 49.052 0.715
23.7849 43.760 0.675
23.8053 26.469 0.525
23.8258 16.917 0.420
23.8462 12.375 0.359
23.8667 10.875 0.337
23.8872 11.094 0.340
23.9076 10.510 0.331
23.9281 10.188 0.326
23.9486 10.573 0.332
23.9690 10.021 0.323
23.9895 9.802 0.320
24.0099 9.375 0.313
24.0304 9.594 0.316
24.0509 9.281 0.311
24.0713 8.604 0.299
24.0918 9.073 0.307
24.1123 8.854 0.304
24.1327 9.219 0.310
24.1532 9.188 0.309
24.1736 9.625 0.317
24.1941 10.240 0.327
24.2146 11.729 0.350
24.2350 10.698 0.334
24.2555 9.594 0.316
24.2760 10.354 0.328
24.2964 9.854 0.320
24.3169 8.573 0.299
24.3373 9.135 0.308
24.3578 8.521 0.298
24.3783 8.500 0.298
24.3987 9.073 0.307
24.4192 8.552 0.298
24.4397 8.365 0.295
24.4601 8.781 0.302
24.4806 8.771 0.302
24.5011 8.323 0.294
24.5215 9.208 0.310
24.5420 8.750 0.302
24.5624 9.708 0.318
24.5829 9.531 0.315
24.6034 9.625 0.317
24.6238 9.448 0.314
24.6443 10.125 0.325
24.6648 10.958 0.338
24.6852 12.406 0.359
24.7057 13.625 0.377
24.7261 13.500 0.375
24.7466 13.177 0.370
24.7671 11.969 0.353
24.7875 11.750 0.350
24.8080 9.958 0.322
24.8285 9.469 0.314
24.8489 9.354 0.312
24.8694 9.271 0.311
24.8898 9.073 0.307
24.9103 9.844 0.320
24.9308 9.031 0.307
24.9512 9.375 0.313
24.9717 9.500 0.315
24.9922 8.854 0.304
25.0126 8.906 0.305
25.0331 8.729 0.302
25.0535 8.854 0.304
25.0740 8.760 0.302
25.0945 8.844 0.304
25.1149 8.698 0.301
25.1354 8.708 0.301
25.1559 8.531 0.298
25.1763 8.635 0.300
25.1968 8.990 0.306
25.2172 8.708 0.301
25.2377 8.417 0.296
25.2582 8.625 0.300
25.2786 8.958 0.305
25.2991 8.521 0.298
25.3196 7.865 0.286
25.3400 8.781 0.302
25.3605 8.677 0.301
25.3810 9.469 0.314
25.4014 9.365 0.312
25.4219 8.969 0.306
25.4423 8.438 0.296
25.4628 8.927 0.305
25.4833 9.146 0.309
25.5037 9.719 0.318
25.5242 10.125 0.325
25.5447 10.698 0.334
25.5651 13.229 0.371
25.5856 16.823 0.419
25.6060 19.646 0.452
25.6265 22.323 0.482
25.6470 19.885 0.455
25.6674 17.938 0.432
25.6879 16.281 0.412
25.7084 14.000 0.382
25.7288 10.781 0.335
25.7493 9.854 0.320
25.7697 8.990 0.306
25.7902 8.771 0.302
25.8107 8.531 0.298
25.8311 8.365 0.295
25.8516 8.469 0.297
25.8721 8.063 0.290
25.8925 8.010 0.289
25.9130 8.479 0.297
25.9334 8.146 0.291
25.9539 7.813 0.285
25.9744 8.250 0.293
25.9948 7.594 0.281
26.0153 7.844 0.286
26.0358 7.708 0.283
26.0562 7.563 0.281
26.0767 7.750 0.284
26.0971 8.135 0.291
26.1176 8.115 0.291
26.1381 7.979 0.288
26.1585 8.438 0.296
26.1790 7.823 0.285
26.1995 8.177 0.292
26.2199 8.010 0.289
26.2404 7.896 0.287
26.2609 8.156 0.291
26.2813 8.083 0.290
26.3018 7.938 0.288
26.3222 7.813 0.285
26.3427 7.729 0.284
26.3632 8.000 0.289
26.3836 7.469 0.279
26.4041 8.208 0.292
26.4246 7.198 0.274
26.4450 7.813 0.285
26.4655 7.646 0.282
26.4859 8.042 0.289
26.5064 8.156 0.291
26.5269 7.542 0.280
26.5473 8.156 0.291
26.5678 7.938 0.288
26.5883 7.469 0.279
26.6087 7.708 0.283
26.6292 7.688 0.283
26.6496 7.417 0.278
26.6701 7.406 0.278
26.6906 7.917 0.287
26.7110 7.594 0.281
26.7315 8.010 0.289
26.7520 7.635 0.282
26.7724 7.729 0.284
26.7929 7.406 0.278
26.8133 7.906 0.287
26.8338 7.698 0.283
26.8543 7.979 0.288
26.8747 7.635 0.282
26.8952 7.438 0.278
26.9157 8.031 0.289
26.9361 7.354 0.277
26.9566 7.875 0.286
26.9770 7.906 0.287
26.9975 8.292 0.294
27.0180 8.146 0.291
27.0384 7.854 0.286
27.0589 8.177 0.292
27.0794 8.188 0.292
27.0998 8.156 0.291
27.1203 7.635 0.282
27.1408 7.823 0.285
27.1612 8.167 0.292
27.1817 8.521 0.298
27.2021 8.865 0.304
27.2226 9.500 0.315
27.2431 9.729 0.318
27.2635 10.635 0.333
27.2840 10.125 0.325
27.3045 9.917 0.321
27.3249 10.021 0.323
27.3454 9.938 0.322
27.3658 10.260 0.327
27.3863 10.188 0.326
27.4068 11.042 0.339
27.4272 14.302 0.386
27.4477 16.063 0.409
27.4682 17.729 0.430
27.4886 20.688 0.464
27.5091 24.844 0.509
27.5295 23.260 0.492
27.5500 18.000 0.433
27.5705 16.917 0.420
27.5909 16.177 0.411
27.6114 13.563 0.376
27.6319 10.531 0.331
27.6523 9.667 0.317
27.6728 9.667 0.317
27.6932 8.906 0.305
27.7137 8.573 0.299
27.7342 8.875 0.304
27.7546 8.156 0.291
27.7751 8.365 0.295
27.7956 8.198 0.292
27.8160 8.365 0.295
27.8365 8.417 0.296
27.8569 8.594 0.299
27.8774 8.365 0.295
27.8979 8.354 0.295
27.9183 7.594 0.281
27.9388 7.969 0.288
27.9593 7.990 0.288
27.9797 7.729 0.284
28.0002 7.625 0.282
28.0207 7.813 0.285
28.0411 7.688 0.283
28.0616 7.969 0.288
28.0820 8.250 0.293
28.1025 8.052 0.290
28.1230 7.354 0.277
28.1434 7.833 0.286
28.1639 7.583 0.281
28.1844 7.969 0.288
28.2048 7.573 0.281
28.2253 7.771 0.285
28.2457 7.271 0.275
28.2662 8.135 0.291
28.2867 7.563 0.281
28.3071 7.719 0.284
28.3276 7.688 0.283
28.3481 7.906 0.287
28.3685 7.979 0.288
28.3890 7.781 0.285
28.4094 7.615 0.282
28.4299 8.177 0.292
28.4504 7.656 0.282
28.4708 7.625 0.282
28.4913 6.958 0.269
28.5118 7.500 0.280
28.5322 8.083 0.290
28.5527 7.656 0.282
28.5731 7.240 0.275
28.5936 7.615 0.282
28.6141 8.271 0.294
28.6345 8.177 0.292
28.6550 7.615 0.282
28.6755 7.583 0.281
28.6959 7.719 0.284
28.7164 7.396 0.278
28.7368 7.906 0.287
28.7573 7.813 0.285
28.7778 7.990 0.288
28.7982 7.688 0.283
28.8187 7.917 0.287
28.8392 8.021 0.289
28.8596 8.104 0.291
28.8801 8.146 0.291
28.9006 7.719 0.284
28.9210 7.385 0.277
28.9415 7.594 0.281
28.9619 7.490 0.279
28.9824 7.854 0.286
29.0029 7.292 0.276
29.0233 7.563 0.281
29.0438 8.292 0.294
29.0643 7.344 0.277
29.0847 7.969 0.288
29.1052 7.219 0.274
29.1256 7.740 0.284
29.1461 7.271 0.275
29.1666 7.542 0.280
29.1870 7.698 0.283
29.2075 7.781 0.285
29.2280 7.552 0.280
29.2484 7.281 0.275
29.2689 7.740 0.284
29.2893 8.208 0.292
29.3098 7.813 0.285
29.3303 7.510 0.280
29.3507 7.625 0.282
29.3712 7.323 0.276
29.3917 7.615 0.282
29.4121 7.979 0.288
29.4326 8.219 0.293
29.4530 8.448 0.297
29.4735 7.448 0.279
29.4940 7.865 0.286
29.5144 7.958 0.288
29.5349 8.323 0.294
29.5554 8.677 0.301
29.5758 8.823 0.303
29.5963 9.354 0.312
29.6168 10.365 0.329
29.6372 9.375 0.313
29.6577 8.698 0.301
29.6781 9.323 0.312
29.6986 8.813 0.303
29.7191 8.833 0.303
29.7395 8.354 0.295
29.7600 7.427 0.278
29.7805 7.854 0.286
29.8009 7.375 0.277
29.8214 7.094 0.272
29.8418 8.146 0.291
29.8623 7.802 0.285
29.8828 7.760 0.284
29.9032 7.656 0.282
29.9237 7.917 0.287
29.9442 7.417 0.278
29.9646 7.906 0.287
29.9851 7.313 0.276
30.0055 7.990 0.288
30.0260 7.917 0.287
30.0465 7.719 0.284
30.0669 8.104 0.291
30.0874 7.573 0.281
30.1079 8.292 0.294
30.1283 8.292 0.294
30.1488 7.573 0.281
30.1692 7.708 0.283
30.1897 7.625 0.282
30.2102 7.563 0.281
30.2306 7.750 0.284
30.2511 7.719 0.284
30.2716 7.823 0.285
30.2920 7.542 0.280
30.3125 7.677 0.283
30.3329 7.510 0.280
30.3534 7.750 0.284
30.3739 7.760 0.284
30.3943 7.031 0.271
30.4148 7.938 0.288
30.4353 7.760 0.284
30.4557 7.469 0.279
30.4762 7.938 0.288
30.4967 7.177 0.273
30.5171 8.188 0.292
30.5376 7.885 0.287
30.5580 7.740 0.284
30.5785 7.969 0.288
30.5990 7.906 0.287
30.6194 8.417 0.296
30.6399 7.635 0.282
30.6604 8.021 0.289
30.6808 8.688 0.301
30.7013 9.479 0.314
30.7217 10.677 0.333
30.7422 11.417 0.345
30.7627 11.198 0.342
30.7831 10.615 0.333
30.8036 10.229 0.326
30.8241 11.156 0.341
30.8445 10.188 0.326
30.8650 8.479 0.297
30.8854 8.427 0.296
30.9059 8.021 0.289
30.9264 7.969 0.288
30.9468 7.667 0.283
30.9673 8.240 0.293
30.9878 8.271 0.294
31.0082 8.021 0.289
31.0287 8.823 0.303
31.0491 8.354 0.295
31.0696 8.177 0.292
31.0901 8.646 0.300
31.1105 8.917 0.305
31.1310 8.594 0.299
31.1515 8.344 0.295
31.1719 8.260 0.293
31.1924 8.240 0.293
31.2128 8.354 0.295
31.2333 7.417 0.278
31.2538 8.354 0.295
31.2742 8.417 0.296
31.2947 8.354 0.295
31.3152 8.917 0.305
31.3356 8.313 0.294
31.3561 7.979 0.288
31.3766 8.542 0.298
31.3970 9.146 0.309
31.4175 8.948 0.305
31.4379 8.635 0.300
31.4584 8.698 0.301
31.4789 8.500 0.298
31.4993 8.292 0.294
31.5198 7.583 0.281
31.5403 8.417 0.296
31.5607 7.854 0.286
31.5812 7.833 0.286
31.6016 7.802 0.285
31.6221 8.177 0.292
31.6426 7.760 0.284
31.6630 7.833 0.286
31.6835 8.208 0.292
31.7040 8.198 0.292
31.7244 8.188 0.292
31.7449 7.938 0.288
31.7653 7.802 0.285
31.7858 8.292 0.294
31.8063 8.417 0.296
31.8267 10.031 0.323
31.8472 10.177 0.326
31.8677 10.292 0.327
31.8881 10.240 0.327
31.9086 9.396 0.313
31.9290 9.104 0.308
31.9495 9.677 0.317
31.9700 9.354 0.312
31.9904 9.531 0.315
32.0109 9.281 0.311
32.0314 9.354 0.312
32.0518 9.583 0.316
32.0723 10.073 0.324
32.0927 10.010 0.323
32.1132 9.771 0.319
32.1337 10.208 0.326
32.1541 10.969 0.338
32.1746 12.573 0.362
32.1951 14.292 0.386
32.2155 18.302 0.437
32.2360 22.240 0.481
32.2565 24.198 0.502
32.2769 21.635 0.475
32.2974 19.198 0.447
32.3178 18.073 0.434
32.3383 16.927 0.420
32.3588 15.146 0.397
32.3792 11.458 0.345
32.3997 10.333 0.328
32.4202 9.240 0.310
32.4406 9.052 0.307
32.4611 8.542 0.298
32.4815 8.677 0.301
32.5020 8.240 0.293
32.5225 8.063 0.290
32.5429 8.260 0.293
32.5634 8.104 0.291
32.5839 9.115 0.308
32.6043 9.031 0.307
32.6248 8.573 0.299
32.6452 9.094 0.308
32.6657 8.469 0.297
32.6862 8.396 0.296
32.7066 8.292 0.294
32.7271 8.719 0.301
32.7476 8.354 0.295
32.7680 7.542 0.280
32.7885 8.292 0.294
32.8089 8.010 0.289
32.8294 8.125 0.291
32.8499 8.146 0.291
32.8703 8.594 0.299
32.8908 8.635 0.300
32.9113 8.490 0.297
32.9317 8.271 0.294
32.9522 8.510 0.298
32.9726 9.542 0.315
32.9931 8.667 0.300
33.0136 9.177 0.309
33.0340 8.563 0.299
33.0545 9.021 0.307
33.0750 8.125 0.291
33.0954 9.135 0.308
33.1159 9.229 0.310
33.1364 8.521 0.298
33.1568 9.656 0.317
33.1773 10.573 0.332
33.1977 11.521 0.346
33.2182 11.375 0.344
33.2387 10.698 0.334
33.2591 10.448 0.330
33.2796 11.094 0.340
33.3001 11.094 0.340
33.3205 9.875 0.321
33.3410 9.635 0.317
33.3614 9.781 0.319
33.3819 10.781 0.335
33.4024 11.385 0.344
33.4228 10.656 0.333
33.4433 10.094 0.324
33.4638 11.385 0.344
33.4842 10.781 0.335
33.5047 10.156 0.325
33.5251 9.542 0.315
33.5456 9.000 0.306
33.5661 9.396 0.313
33.5865 8.750 0.302
33.6070 8.510 0.298
33.6275 8.563 0.299
33.6479 9.292 0.311
33.6684 9.229 0.310
33.6888 10.208 0.326
33.7093 11.385 0.344
33.7298 14.573 0.390
33.7502 21.406 0.472
33.7707 24.948 0.510
33.7912 19.042 0.445
33.8116 15.823 0.406
33.8321 14.844 0.393
33.8526 16.563 0.415
33.8730 14.198 0.385
33.8935 10.813 0.336
33.9139 8.875 0.304
33.9344 9.250 0.310
33.9549 8.365 0.295
33.9753 8.573 0.299
33.9958 8.385 0.296
34.0163 8.292 0.294
34.0367 8.125 0.291
34.0572 8.625 0.300
34.0776 8.229 0.293
34.0981 7.906 0.287
34.1186 8.469 0.297
34.1390 8.708 0.301
34.1595 9.031 0.307
34.1800 9.396 0.313
34.2004 10.500 0.331
34.2209 11.854 0.351
34.2413 14.104 0.383
34.2618 16.021 0.409
34.2823 16.083 0.409
34.3027 14.135 0.384
34.3232 13.042 0.369
34.3437 13.333 0.373
34.3641 13.042 0.369
34.3846 11.865 0.352
34.4050 9.729 0.318
34.4255 9.292 0.311
34.4460 8.844 0.304
34.4664 8.635 0.300
34.4869 8.365 0.295
34.5074 8.063 0.290
34.5278 8.354 0.295
34.5483 8.083 0.290
34.5687 8.354 0.295
34.5892 8.292 0.294
34.6097 8.094 0.290
34.6301 7.469 0.279
34.6506 8.135 0.291
34.6711 8.167 0.292
34.6915 8.219 0.293
34.7120 7.896 0.287
34.7325 8.104 0.291
34.7529 8.177 0.292
34.7734 8.521 0.298
34.7938 8.510 0.298
34.8143 8.417 0.296
34.8348 9.229 0.310
34.8552 9.688 0.318
34.8757 9.698 0.318
34.8962 10.781 0.335
34.9166 12.396 0.359
34.9371 15.594 0.403
34.9575 18.792 0.442
34.9780 22.917 0.489
34.9985 24.750 0.508
35.0189 22.448 0.484
35.0394 19.552 0.451
35.0599 18.573 0.440
35.0803 18.833 0.443
35.1008 16.219 0.411
35.1212 13.167 0.370
35.1417 11.958 0.353
35.1622 10.604 0.332
35.1826 9.865 0.321
35.2031 9.875 0.321
35.2236 9.250 0.310
35.2440 8.740 0.302
35.2645 8.583 0.299
35.2849 9.042 0.307
35.3054 8.969 0.306
35.3259 8.427 0.296
35.3463 8.531 0.298
35.3668 8.375 0.295
35.3873 8.271 0.294
35.4077 8.938 0.305
35.4282 8.469 0.297
35.4486 9.063 0.307
35.4691 9.063 0.307
35.4896 8.250 0.293
35.5100 8.281 0.294
35.5305 8.708 0.301
35.5510 8.938 0.305
35.5714 9.510 0.315
35.5919 9.063 0.307
35.6124 8.865 0.304
35.6328 8.958 0.305
35.6533 9.042 0.307
35.6737 8.375 0.295
35.6942 7.865 0.286
35.7147 8.354 0.295
35.7351 8.010 0.289
35.7556 7.698 0.283
35.7761 8.375 0.295
35.7965 7.479 0.279
35.8170 8.125 0.291
35.8374 8.219 0.293
35.8579 8.031 0.289
35.8784 8.333 0.295
35.8988 7.917 0.287
35.9193 7.750 0.284
35.9398 8.406 0.296
35.9602 8.021 0.289
35.9807 8.177 0.292
36.0011 8.302 0.294
36.0216 8.344 0.295
36.0421 8.823 0.303
36.0625 9.448 0.314
36.0830 9.083 0.308
36.1035 8.896 0.304
36.1239 9.031 0.307
36.1444 8.958 0.305
36.1648 8.708 0.301
36.1853 9.021 0.307
36.2058 8.417 0.296
36.2262 8.177 0.292
36.2467 8.333 0.295
36.2672 8.177 0.292
36.2876 8.104 0.291
36.3081 8.323 0.294
36.3285 8.854 0.304
36.3490 8.885 0.304
36.3695 9.146 0.309
36.3899 8.625 0.300
36.4104 8.688 0.301
36.4309 8.729 0.302
36.4513 8.104 0.291
36.4718 8.448 0.297
36.4923 9.385 0.313
36.5127 10.135 0.325
36.5332 11.323 0.343
36.5536 13.156 0.370
36.5741 12.583 0.362
36.5946 10.844 0.336
36.6150 9.948 0.322
36.6355 11.115 0.340
36.6560 11.563 0.347
36.6764 10.865 0.336
36.6969 9.979 0.322
36.7173 9.229 0.310
36.7378 9.250 0.310
36.7583 8.729 0.302
36.7787 8.240 0.293
36.7992 8.552 0.298
36.8197 8.604 0.299
36.8401 8.500 0.298
36.8606 8.604 0.299
36.8810 8.948 0.305
36.9015 9.094 0.308
36.9220 8.500 0.298
36.9424 8.979 0.306
36.9629 9.021 0.307
36.9834 8.927 0.305
37.0038 8.594 0.299
37.0243 9.083 0.308
37.0447 9.073 0.307
37.0652 8.344 0.295
37.0857 9.010 0.306
37.1061 9.000 0.306
37.1266 8.844 0.304
37.1471 9.479 0.314
37.1675 9.146 0.309
37.1880 9.052 0.307
37.2084 9.594 0.316
37.2289 10.063 0.324
37.2494 10.906 0.337
37.2698 11.125 0.340
37.2903 11.156 0.341
37.3108 11.719 0.349
37.3312 11.042 0.339
37.3517 10.052 0.324
37.3722 10.292 0.327
37.3926 10.000 0.323
37.4131 9.719 0.318
37.4335 9.354 0.312
37.4540 8.990 0.306
37.4745 8.823 0.303
37.4949 8.875 0.304
37.5154 8.052 0.290
37.5359 9.000 0.306
37.5563 8.813 0.303
37.5768 8.365 0.295
37.5972 8.260 0.293
37.6177 7.823 0.285
37.6382 7.740 0.284
37.6586 7.563 0.281
37.6791 7.917 0.287
37.6996 7.875 0.286
37.7200 8.031 0.289
37.7405 8.167 0.292
37.7609 7.833 0.286
37.7814 7.771 0.285
37.8019 8.219 0.293
37.8223 8.240 0.293
37.8428 8.656 0.300
37.8633 7.885 0.287
37.8837 7.479 0.279
37.9042 8.323 0.294
37.9246 7.875 0.286
37.9451 8.188 0.292
37.9656 8.146 0.291
37.9860 7.740 0.284
38.0065 7.469 0.279
38.0270 7.990 0.288
38.0474 8.167 0.292
38.0679 8.135 0.291
38.0884 7.885 0.287
38.1088 7.917 0.287
38.1293 7.969 0.288
38.1497 8.083 0.290
38.1702 7.875 0.286
38.1907 8.406 0.296
38.2111 8.344 0.295
38.2316 8.781 0.302
38.2521 8.854 0.304
38.2725 8.531 0.298
38.2930 9.313 0.311
38.3134 9.500 0.315
38.3339 9.115 0.308
38.3544 8.792 0.303
38.3748 8.698 0.301
38.3953 8.969 0.306
38.4158 9.042 0.307
38.4362 8.729 0.302
38.4567 7.823 0.285
38.4771 7.969 0.288
38.4976 8.188 0.292
38.5181 7.917 0.287
38.5385 8.042 0.289
38.5590 8.281 0.294
38.5795 8.021 0.289
38.5999 8.094 0.290
38.6204 8.031 0.289
38.6408 7.833 0.286
38.6613 7.740 0.284
38.6818 7.625 0.282
38.7022 7.813 0.285
38.7227 7.823 0.285
38.7432 8.083 0.290
38.7636 8.250 0.293
38.7841 7.875 0.286
38.8045 7.958 0.288
38.8250 7.438 0.278
38.8455 8.063 0.290
38.8659 7.479 0.279
38.8864 7.490 0.279
38.9069 7.792 0.285
38.9273 7.458 0.279
38.9478 8.365 0.295
38.9683 7.656 0.282
38.9887 7.573 0.281
39.0092 7.667 0.283
39.0296 8.292 0.294
39.0501 7.677 0.283
39.0706 8.271 0.294
39.0910 8.604 0.299
39.1115 8.271 0.294
39.1320 9.042 0.307
39.1524 9.625 0.317
39.1729 10.510 0.331
39.1933 10.281 0.327
39.2138 9.323 0.312
39.2343 9.240 0.310
39.2547 10.010 0.323
39.2752 9.125 0.308
39.2957 9.177 0.309
39.3161 8.906 0.305
39.3366 8.552 0.298
39.3570 8.552 0.298
39.3775 8.000 0.289
39.3980 8.177 0.292
39.4184 7.969 0.288
39.4389 8.115 0.291
39.4594 8.313 0.294
39.4798 8.375 0.295
39.5003 8.417 0.296
39.5207 8.073 0.290
39.5412 7.917 0.287
39.5617 8.115 0.291
39.5821 8.271 0.294
39.6026 8.521 0.298
39.6231 8.125 0.291
39.6435 8.073 0.290
39.6640 8.125 0.291
39.6844 8.125 0.291
39.7049 8.302 0.294
39.7254 8.188 0.292
39.7458 7.833 0.286
39.7663 8.010 0.289
39.7868 7.813 0.285
39.8072 7.948 0.288
39.8277 7.927 0.287
39.8482 8.042 0.289
39.8686 8.042 0.289
39.8891 8.094 0.290
39.9095 8.313 0.294
39.9300 7.792 0.285
39.9505 7.385 0.277
39.9709 7.990 0.288
39.9914 7.917 0.287
40.0119 7.938 0.288
40.0323 8.094 0.290
40.0528 7.458 0.279
40.0732 8.146 0.291
40.0937 7.604 0.281
40.1142 8.021 0.289
40.1346 7.938 0.288
40.1551 8.427 0.296
40.1756 7.823 0.285
40.1960 7.750 0.284
40.2165 8.198 0.292
40.2369 7.750 0.284
40.2574 7.844 0.286
40.2779 8.552 0.298
40.2983 7.969 0.288
40.3188 8.208 0.292
40.3393 8.865 0.304
40.3597 9.677 0.317
40.3802 10.479 0.330
40.4006 11.146 0.341
40.4211 10.698 0.334
40.4416 9.896 0.321
40.4620 10.385 0.329
40.4825 9.906 0.321
40.5030 9.844 0.320
40.5234 9.406 0.313
40.5439 8.594 0.299
40.5643 8.906 0.305
40.5848 8.750 0.302
40.6053 8.781 0.302
40.6257 8.927 0.305
40.6462 8.656 0.300
40.6667 8.698 0.301
40.6871 9.729 0.318
40.7076 9.896 0.321
40.7281 9.542 0.315
40.7485 11.448 0.345
40.7690 13.031 0.368
40.7894 15.490 0.402
40.8099 17.594 0.428
40.8304 19.813 0.454
40.8508 20.188 0.459
40.8713 17.594 0.428
40.8918 16.083 0.409
40.9122 14.938 0.394
40.9327 15.698 0.404
40.9531 14.344 0.387
40.9736 13.177 0.370
40.9941 10.667 0.333
41.0145 9.688 0.318
41.0350 9.781 0.319
41.0555 9.052 0.307
41.0759 8.865 0.304
41.0964 8.719 0.301
41.1168 8.698 0.301
41.1373 8.458 0.297
41.1578 8.240 0.293
41.1782 8.521 0.298
41.1987 8.542 0.298
41.2192 8.979 0.306
41.2396 10.167 0.325
41.2601 10.125 0.325
41.2805 10.490 0.331
41.3010 9.990 0.323
41.3215 11.240 0.342
41.3419 9.750 0.319
41.3624 9.625 0.317
41.3829 9.802 0.320
41.4033 10.094 0.324
41.4238 8.885 0.304
41.4442 9.219 0.310
41.4647 8.896 0.304
41.4852 9.344 0.312
41.5056 8.260 0.293
41.5261 9.156 0.309
41.5466 8.875 0.304
41.5670 10.125 0.325
41.5875 11.760 0.350
41.6080 13.229 0.371
41.6284 17.292 0.424
41.6489 21.833 0.477
41.6693 21.458 0.473
41.6898 17.292 0.424
41.7103 14.469 0.388
41.7307 14.688 0.391
41.7512 15.958 0.408
41.7717 16.271 0.412
41.7921 13.729 0.378
41.8126 12.802 0.365
41.8330 11.219 0.342
41.8535 12.156 0.356
41.8740 12.344 0.359
41.8944 13.271 0.372
41.9149 14.708 0.391
41.9354 14.167 0.384
41.9558 12.969 0.368
41.9763 12.531 0.361
41.9967 10.792 0.335
42.0172 11.906 0.352
42.0377 11.563 0.347
42.0581 10.938 0.338
42.0786 9.708 0.318
42.0991 9.302 0.311
42.1195 8.365 0.295
42.1400 8.260 0.293
42.1604 8.104 0.291
42.1809 8.427 0.296
42.2014 8.177 0.292
42.2218 7.563 0.281
42.2423 7.885 0.287
42.2628 7.969 0.288
42.2832 7.542 0.280
42.3037 7.802 0.285
42.3242 7.698 0.283
42.3446 7.750 0.284
42.3651 8.146 0.291
42.3855 7.865 0.286
42.4060 9.302 0.311
42.4265 8.000 0.289
42.4469 8.115 0.291
42.4674 8.094 0.290
42.4879 8.583 0.299
42.5083 8.552 0.298
42.5288 9.229 0.310
42.5492 9.708 0.318
42.5697 9.583 0.316
42.5902 8.948 0.305
42.6106 8.625 0.300
42.6311 9.292 0.311
42.6516 8.958 0.305
42.6720 9.208 0.310
42.6925 8.688 0.301
42.7129 9.063 0.307
42.7334 8.229 0.293
42.7539 7.760 0.284
42.7743 7.635 0.282
42.7948 7.823 0.285
42.8153 7.781 0.285
42.8357 7.823 0.285
42.8562 7.698 0.283
42.8766 7.667 0.283
42.8971 7.125 0.272
42.9176 7.500 0.280
42.9380 7.375 0.277
42.9585 7.260 0.275
42.9790 7.031 0.271
42.9994 6.854 0.267
43.0199 7.563 0.281
43.0403 7.281 0.275
43.0608 7.260 0.275
43.0813 7.656 0.282
43.1017 7.677 0.283
43.1222 6.792 0.266
43.1427 7.708 0.283
43.1631 7.573 0.281
43.1836 7.229 0.274
43.2041 7.438 0.278
43.2245 7.198 0.274
43.2450 6.750 0.265
43.2654 6.927 0.269
43.2859 6.958 0.269
43.3064 7.427 0.278
43.3268 7.479 0.279
43.3473 7.146 0.273
43.3678 7.385 0.277
43.3882 7.552 0.280
43.4087 7.313 0.276
43.4291 8.292 0.294
43.4496 7.438 0.278
43.4701 7.750 0.284
43.4905 7.771 0.285
43.5110 7.594 0.281
43.5315 7.583 0.281
43.5519 7.781 0.285
43.5724 7.760 0.284
43.5928 7.448 0.279
43.6133 7.656 0.282
43.6338 7.677 0.283
43.6542 7.885 0.287
43.6747 7.490 0.279
43.6952 7.813 0.285
43.7156 7.906 0.287
43.7361 7.479 0.279
43.7565 7.479 0.279
43.7770 7.823 0.285
43.7975 8.188 0.292
43.8179 7.563 0.281
43.8384 7.781 0.285
43.8589 8.198 0.292
43.8793 8.375 0.295
43.8998 8.719 0.301
43.9202 9.115 0.308
43.9407 8.323 0.294
43.9612 8.271 0.294
43.9816 7.906 0.287
44.0021 8.021 0.289
44.0226 7.656 0.282
44.0430 8.302 0.294
44.0635 8.250 0.293
44.0840 7.719 0.284
44.1044 7.510 0.280
44.1249 7.063 0.271
44.1453 6.917 0.268
44.1658 7.042 0.271
44.1863 7.156 0.273
44.2067 7.292 0.276
44.2272 6.875 0.268
44.2477 6.969 0.269
44.2681 6.854 0.267
44.2886 7.125 0.272
44.3090 6.844 0.267
44.3295 7.000 0.270
44.3500 7.094 0.272
44.3704 7.052 0.271
44.3909 7.490 0.279
44.4114 7.323 0.276
44.4318 7.292 0.276
44.4523 6.865 0.267
44.4727 6.552 0.261
44.4932 6.938 0.269
44.5137 7.542 0.280
44.5341 7.094 0.272
44.5546 6.438 0.259
44.5751 7.302 0.276
44.5955 6.594 0.262
44.6160 6.927 0.269
44.6364 7.042 0.271
44.6569 7.604 0.281
44.6774 6.552 0.261
44.6978 7.146 0.273
44.7183 7.396 0.278
44.7388 7.500 0.280
44.7592 6.948 0.269
44.7797 7.260 0.275
44.8001 6.969 0.269
44.8206 7.000 0.270
44.8411 6.813 0.266
44.8615 6.729 0.265
44.8820 6.990 0.270
44.9025 6.833 0.267
44.9229 7.000 0.270
44.9434 7.156 0.273
44.9639 6.646 0.263
44.9843 6.656 0.263
45.0048 6.813 0.266
45.0252 6.688 0.264
45.0457 6.865 0.267
45.0662 6.885 0.268
45.0866 7.031 0.271
45.1071 6.958 0.269
45.1276 6.865 0.267
45.1480 7.010 0.270
45.1685 6.990 0.270
45.1889 6.792 0.266
45.2094 7.552 0.280
45.2299 7.052 0.271
45.2503 7.063 0.271
45.2708 7.302 0.276
45.2913 6.979 0.270
45.3117 6.719 0.265
45.3322 6.948 0.269
45.3526 6.938 0.269
45.3731 6.844 0.267
45.3936 7.031 0.271
45.4140 7.000 0.270
45.4345 7.167 0.273
45.4550 6.729 0.265
45.4754 6.573 0.262
45.4959 6.896 0.268
45.5163 6.500 0.260
45.5368 6.708 0.264
45.5573 6.594 0.262
45.5777 6.688 0.264
45.5982 6.469 0.260
45.6187 7.104 0.272
45.6391 6.760 0.265
45.6596 7.135 0.273
45.6800 6.792 0.266
45.7005 7.219 0.274
45.7210 7.365 0.277
45.7414 6.938 0.269
45.7619 7.594 0.281
45.7824 6.875 0.268
45.8028 6.938 0.269
45.8233 6.813 0.266
45.8438 7.031 0.271
45.8642 6.969 0.269
45.8847 7.417 0.278
45.9051 7.125 0.272
45.9256 7.708 0.283
45.9461 7.406 0.278
45.9665 7.740 0.284
45.9870 7.625 0.282
46.0075 7.365 0.277
46.0279 7.417 0.278
46.0484 7.729 0.284
46.0688 7.146 0.273
46.0893 7.271 0.275
46.1098 6.969 0.269
46.1302 6.760 0.265
46.1507 7.063 0.271
46.1712 6.885 0.268
46.1916 6.948 0.269
46.2121 6.198 0.254
46.2325 6.677 0.264
46.2530 6.646 0.263
46.2735 6.813 0.266
46.2939 7.583 0.281
46.3144 7.740 0.284
46.3349 7.031 0.271
46.3553 7.292 0.276
46.3758 6.719 0.265
46.3962 7.344 0.277
46.4167 7.271 0.275
46.4372 7.177 0.273
46.4576 7.521 0.280
46.4781 6.750 0.265
46.4986 7.188 0.274
46.5190 6.667 0.264
46.5395 7.417 0.278
46.5600 7.885 0.287
46.5804 7.958 0.288
46.6009 8.615 0.300
46.6213 10.406 0.329
46.6418 10.375 0.329
46.6623 11.052 0.339
46.6827 10.375 0.329
46.7032 9.698 0.318
46.7237 8.698 0.301
46.7441 9.542 0.315
46.7646 9.406 0.313
46.7850 9.542 0.315
46.8055 8.927 0.305
46.8260 8.313 0.294
46.8464 8.094 0.290
46.8669 7.698 0.283
46.8874 7.583 0.281
46.9078 6.865 0.267
46.9283 6.948 0.269
46.9487 7.167 0.273
46.9692 7.406 0.278
46.9897 6.719 0.265
47.0101 6.583 0.262
47.0306 6.760 0.265
47.0511 6.792 0.266
47.0715 6.521 0.261
47.0920 6.552 0.261
47.1124 6.667 0.264
47.1329 6.677 0.264
47.1534 6.490 0.260
47.1738 6.677 0.264
47.1943 6.208 0.254
47.2148 6.458 0.259
47.2352 6.510 0.260
47.2557 6.438 0.259
47.2761 6.385 0.258
47.2966 6.625 0.263
47.3171 6.365 0.257
47.3375 6.552 0.261
47.3580 6.510 0.260
47.3785 6.677 0.264
47.3989 6.385 0.258
47.4194 6.260 0.255
47.4399 6.229 0.255
47.4603 6.063 0.251
47.4808 6.396 0.258
47.5012 6.542 0.261
47.5217 6.344 0.257
47.5422 6.396 0.258
47.5626 6.531 0.261
47.5831 6.073 0.252
47.6036 6.469 0.260
47.6240 6.333 0.257
47.6445 6.250 0.255
47.6649 6.125 0.253
47.6854 6.958 0.269
47.7059 6.552 0.261
47.7263 6.865 0.267
47.7468 6.708 0.264
47.7673 6.906 0.268
47.7877 6.708 0.264
47.8082 6.677 0.264
47.8286 6.406 0.258
47.8491 6.448 0.259
47.8696 6.021 0.250
47.8900 6.198 0.254
47.9105 6.438 0.259
47.9310 6.500 0.260
47.9514 6.583 0.262
47.9719 6.052 0.251
47.9923 6.510 0.260
48.0128 6.594 0.262
48.0333 6.469 0.260
48.0537 6.188 0.254
48.0742 6.177 0.254
48.0947 6.094 0.252
48.1151 6.083 0.252
48.1356 6.104 0.252
48.1560 6.490 0.260
48.1765 6.156 0.253
48.1970 6.042 0.251
48.2174 6.188 0.254
48.2379 5.927 0.248
48.2584 5.896 0.248
48.2788 6.000 0.250
48.2993 5.594 0.241
48.3198 5.708 0.244
48.3402 6.063 0.251
48.3607 6.146 0.253
48.3811 6.688 0.264
48.4016 6.500 0.260
48.4221 6.260 0.255
48.4425 6.615 0.262
48.4630 7.156 0.273
48.4835 7.042 0.271
48.5039 6.719 0.265
48.5244 6.563 0.261
48.5448 6.292 0.256
48.5653 6.802 0.266
48.5858 6.656 0.263
48.6062 6.104 0.252
48.6267 6.333 0.257
48.6472 6.427 0.259
48.6676 6.344 0.257
48.6881 6.156 0.253
48.7085 6.677 0.264
48.7290 5.719 0.244
48.7495 5.896 0.248
48.7699 6.208 0.254
48.7904 6.188 0.254
48.8109 5.823 0.246
48.8313 5.865 0.247
48.8518 6.052 0.251
48.8722 5.740 0.245
48.8927 5.688 0.243
48.9132 6.198 0.254
48.9336 6.063 0.251
48.9541 5.781 0.245
48.9746 5.823 0.246
48.9950 6.313 0.256
49.0155 6.802 0.266
49.0359 6.271 0.256
49.0564 7.052 0.271
49.0769 7.188 0.274
49.0973 7.750 0.284
49.1178 7.635 0.282
49.1383 8.010 0.289
49.1587 7.781 0.285
49.1792 7.156 0.273
49.1997 7.021 0.270
49.2201 7.167 0.273
49.2406 7.104 0.272
49.2610 7.219 0.274
49.2815 7.510 0.280
49.3020 6.938 0.269
49.3224 7.219 0.274
49.3429 7.500 0.280
49.3634 7.604 0.281
49.3838 7.365 0.277
49.4043 7.969 0.288
49.4247 7.167 0.273
49.4452 7.167 0.273
49.4657 7.563 0.281
49.4861 7.156 0.273
49.5066 7.063 0.271
49.5271 7.156 0.273
49.5475 6.813 0.266
49.5680 6.771 0.266
49.5884 6.729 0.265
49.6089 6.490 0.260
49.6294 6.625 0.263
49.6498 6.229 0.255
49.6703 6.448 0.259
49.6908 6.802 0.266
49.7112 6.750 0.265
49.7317 6.188 0.254
49.7521 6.719 0.265
49.7726 6.917 0.268
49.7931 6.865 0.267
49.8135 6.792 0.266
49.8340 6.740 0.265
49.8545 7.010 0.270
49.8749 6.885 0.268
49.8954 6.469 0.260
49.9158 6.708 0.264
49.9363 6.417 0.259
49.9568 6.531 0.261
49.9772 6.094 0.252
49.9977 6.125 0.253
50.0182 5.979 0.250
50.0386 5.448 0.238
50.0591 5.813 0.246
50.0796 6.229 0.255
50.1000 5.781 0.245
50.1205 5.958 0.249
50.1409 6.104 0.252
50.1614 5.354 0.236
50.1819 5.906 0.248
50.2023 6.344 0.257
50.2228 6.208 0.254
50.2433 6.083 0.252
50.2637 6.000 0.250
50.2842 6.667 0.264
50.3046 6.740 0.265
50.3251 6.781 0.266
50.3456 7.167 0.273
50.3660 6.583 0.262
50.3865 6.385 0.258
50.4070 6.646 0.263
50.4274 6.667 0.264
50.4479 6.417 0.259
50.4683 6.188 0.254
50.4888 6.510 0.260
50.5093 6.385 0.258
50.5297 7.125 0.272
50.5502 7.427 0.278
50.5707 7.594 0.281
50.5911 8.323 0.294
50.6116 7.750 0.284
50.6320 7.719 0.284
50.6525 7.740 0.284
50.6730 7.094 0.272
50.6934 7.104 0.272
50.7139 7.344 0.277
50.7344 7.250 0.275
50.7548 6.635 0.263
50.7753 6.792 0.266
50.7958 6.052 0.251
50.8162 6.635 0.263
50.8367 5.740 0.245
50.8571 6.094 0.252
50.8776 5.375 0.237
50.8981 5.958 0.249
50.9185 5.573 0.241
50.9390 5.854 0.247
50.9595 5.969 0.249
50.9799 5.896 0.248
51.0004 6.896 0.268
51.0208 6.042 0.251
51.0413 6.750 0.265
51.0618 6.292 0.256
51.0822 6.229 0.255
51.1027 6.313 0.256
51.1232 6.125 0.253
51.1436 5.854 0.247
51.1641 6.146 0.253
51.1845 6.333 0.257
51.2050 5.948 0.249
51.2255 6.052 0.251
51.2459 5.969 0.249
51.2664 5.417 0.238
51.2869 5.938 0.249
51.3073 5.656 0.243
51.3278 5.635 0.242
51.3482 5.885 0.248
51.3687 5.896 0.248
51.3892 5.885 0.248
51.4096 5.698 0.244
51.4301 6.010 0.250
51.4506 5.302 0.235
51.4710 5.406 0.237
51.4915 5.823 0.246
51.5119 5.750 0.245
51.5324 6.042 0.251
51.5529 6.063 0.251
51.5733 6.021 0.250
51.5938 6.302 0.256
51.6143 6.708 0.264
51.6347 6.438 0.259
51.6552 6.771 0.266
51.6757 7.458 0.279
51.6961 6.573 0.262
51.7166 6.865 0.267
51.7370 6.229 0.255
51.7575 6.458 0.259
51.7780 6.156 0.253
51.7984 6.417 0.259
51.8189 6.458 0.259
51.8394 6.333 0.257
51.8598 6.156 0.253
51.8803 6.771 0.266
51.9007 6.594 0.262
51.9212 6.927 0.269
51.9417 6.698 0.264
51.9621 6.927 0.269
51.9826 5.917 0.248
52.0031 6.010 0.250
52.0235 6.229 0.255
52.0440 5.938 0.249
52.0644 6.531 0.261
52.0849 6.094 0.252
52.1054 6.010 0.250
52.1258 6.031 0.251
52.1463 5.927 0.248
52.1668 5.458 0.238
52.1872 5.906 0.248
52.2077 5.135 0.231
52.2281 6.198 0.254
52.2486 5.906 0.248
52.2691 5.708 0.244
52.2895 6.281 0.256
52.3100 5.833 0.247
52.3305 6.240 0.255
52.3509 6.385 0.258
52.3714 5.625 0.242
52.3918 5.844 0.247
52.4123 5.500 0.239
52.4328 5.927 0.248
52.4532 5.156 0.232
52.4737 5.271 0.234
52.4942 5.740 0.245
52.5146 5.323 0.235
52.5351 5.479 0.239
52.5556 5.344 0.236
52.5760 5.719 0.244
52.5965 5.573 0.241
52.6169 5.313 0.235
52.6374 5.604 0.242
52.6579 5.563 0.241
52.6783 5.490 0.239
52.6988 5.104 0.231
52.7193 5.344 0.236
52.7397 4.635 0.220
52.7602 5.240 0.234
52.7806 5.073 0.230
52.8011 5.156 0.232
52.8216 5.333 0.236
52.8420 5.510 0.240
52.8625 4.979 0.228
52.8830 5.042 0.229
52.9034 5.510 0.240
52.9239 5.823 0.246
52.9443 5.365 0.236
52.9648 5.792 0.246
52.9853 5.427 0.238
53.0057 5.406 0.237
53.0262 5.542 0.240
53.0467 6.146 0.253
53.0671 6.083 0.252
53.0876 6.396 0.258
53.1080 6.271 0.256
53.1285 6.063 0.251
53.1490 5.542 0.240
53.1694 5.479 0.239
53.1899 5.958 0.249
53.2104 5.302 0.235
53.2308 5.719 0.244
53.2513 5.354 0.236
53.2717 6.042 0.251
53.2922 5.292 0.235
53.3127 5.125 0.231
53.3331 5.094 0.230
53.3536 4.969 0.228
53.3741 5.677 0.243
53.3945 5.115 0.231
53.4150 5.531 0.240
53.4355 5.198 0.233
53.4559 5.281 0.235
53.4764 5.865 0.247
53.4968 5.646 0.243
53.5173 4.979 0.228
53.5378 5.260 0.234
53.5582 5.260 0.234
53.5787 5.271 0.234
53.5992 5.510 0.240
53.6196 5.885 0.248
53.6401 5.510 0.240
53.6605 5.917 0.248
53.6810 5.469 0.239
53.7015 5.677 0.243
53.7219 6.083 0.252
53.7424 6.740 0.265
53.7629 5.635 0.242
53.7833 6.333 0.257
53.8038 5.833 0.247
53.8242 6.167 0.253
53.8447 5.865 0.247
53.8652 6.167 0.253
53.8856 5.896 0.248
53.9061 6.271 0.256
53.9266 5.917 0.248
53.9470 5.490 0.239
53.9675 5.490 0.239
53.9879 5.802 0.246
54.0084 5.729 0.244
54.0289 5.396 0.237
54.0493 5.604 0.242
54.0698 4.979 0.228
54.0903 5.271 0.234
54.1107 4.833 0.224
54.1312 5.198 0.233
54.1516 5.229 0.233
54.1721 5.490 0.239
54.1926 5.583 0.241
54.2130 5.177 0.232
54.2335 4.990 0.228
54.2540 5.438 0.238
54.2744 5.146 0.232
54.2949 4.813 0.224
54.3154 5.219 0.233
54.3358 5.125 0.231
54.3563 5.333 0.236
54.3767 5.031 0.229
54.3972 4.844 0.225
54.4177 5.302 0.235
54.4381 5.167 0.232
54.4586 5.094 0.230
54.4791 5.615 0.242
54.4995 5.365 0.236
54.5200 5.979 0.250
54.5404 5.792 0.246
54.5609 6.302 0.256
54.5814 6.594 0.262
54.6018 7.281 0.275
54.6223 6.885 0.268
54.6428 6.865 0.267
54.6632 6.385 0.258
54.6837 6.406 0.258
54.7041 5.802 0.246
54.7246 5.885 0.248
54.7451 6.313 0.256
54.7655 6.406 0.258
54.7860 5.833 0.247
54.8065 6.281 0.256
54.8269 5.635 0.242
54.8474 6.021 0.250
54.8678 5.667 0.243
54.8883 5.479 0.239
54.9088 5.448 0.238
54.9292 5.542 0.240
54.9497 5.708 0.244
54.9702 5.833 0.247
54.9906 5.844 0.247
55.0111 6.031 0.251
55.0316 6.167 0.253
55.0520 6.052 0.251
55.0725 6.479 0.260
55.0929 7.615 0.282
55.1134 7.865 0.286
55.1339 8.479 0.297
55.1543 7.906 0.287
55.1748 7.385 0.277
55.1953 7.625 0.282
55.2157 7.750 0.284
55.2362 7.281 0.275
55.2566 8.073 0.290
55.2771 8.156 0.291
55.2976 7.510 0.280
55.3180 6.771 0.266
55.3385 6.406 0.258
55.3590 6.438 0.259
55.3794 6.438 0.259
55.3999 6.125 0.253
55.4203 5.854 0.247
55.4408 5.969 0.249
55.4613 5.833 0.247
55.4817 6.010 0.250
55.5022 5.823 0.246
55.5227 5.302 0.235
55.5431 5.438 0.238
55.5636 5.240 0.234
55.5840 5.521 0.240
55.6045 5.344 0.236
55.6250 5.052 0.229
55.6454 4.813 0.224
55.6659 5.844 0.247
55.6864 5.219 0.233
55.7068 5.104 0.231
55.7273 4.833 0.224
55.7477 4.875 0.225
55.7682 5.135 0.231
55.7887 5.281 0.235
55.8091 5.323 0.235
55.8296 5.260 0.234
55.8501 5.010 0.228
55.8705 5.406 0.237
55.8910 4.604 0.219
55.9115 4.948 0.227
55.9319 5.104 0.231
55.9524 5.052 0.229
55.9728 5.188 0.232
55.9933 4.760 0.223
56.0138 5.490 0.239
56.0342 5.250 0.234
56.0547 5.323 0.235
56.0752 5.438 0.238
56.0956 5.438 0.238
56.1161 4.875 0.225
56.1365 4.917 0.226
56.1570 5.010 0.228
56.1775 5.156 0.232
56.1979 5.406 0.237
56.2184 5.135 0.231
56.2389 5.406 0.237
56.2593 5.385 0.237
56.2798 5.208 0.233
56.3002 5.740 0.245
56.3207 5.635 0.242
56.3412 6.135 0.253
56.3616 5.531 0.240
56.3821 5.115 0.231
56.4026 5.771 0.245
56.4230 5.573 0.241
56.4435 5.760 0.245
56.4639 6.021 0.250
56.4844 6.219 0.255
56.5049 6.615 0.262
56.5253 6.990 0.270
56.5458 7.552 0.280
56.5663 8.385 0.296
56.5867 9.240 0.310
56.6072 8.260 0.293
56.6276 8.250 0.293
56.6481 8.625 0.300
56.6686 8.031 0.289
56.6890 8.292 0.294
56.7095 8.417 0.296
56.7300 9.198 0.310
56.7504 10.333 0.328
56.7709 8.333 0.295
56.7914 7.688 0.283
56.8118 7.260 0.275
56.8323 6.667 0.264
56.8527 6.698 0.264
56.8732 6.677 0.264
56.8937 7.115 0.272
56.9141 6.375 0.258
56.9346 6.104 0.252
56.9551 5.677 0.243
56.9755 5.573 0.241
56.9960 5.365 0.236
57.0164 5.771 0.245
57.0369 5.646 0.243
57.0574 5.271 0.234
57.0778 5.552 0.240
57.0983 5.021 0.229
57.1188 4.813 0.224
57.1392 5.354 0.236
57.1597 5.219 0.233
57.1801 4.844 0.225
57.2006 5.313 0.235
57.2211 5.302 0.235
57.2415 5.333 0.236
57.2620 5.073 0.230
57.2825 5.448 0.238
57.3029 5.333 0.236
57.3234 5.521 0.240
57.3438 5.479 0.239
57.3643 4.823 0.224
57.3848 5.552 0.240
57.4052 5.531 0.240
57.4257 4.917 0.226
57.4462 5.073 0.230
57.4666 5.229 0.233
57.4871 5.365 0.236
57.5075 5.104 0.231
57.5280 5.406 0.237
57.5485 5.688 0.243
57.5689 5.677 0.243
57.5894 5.531 0.240
57.6099 5.427 0.238
57.6303 5.031 0.229
57.6508 5.563 0.241
57.6713 5.594 0.241
57.6917 5.458 0.238
57.7122 5.365 0.236
57.7326 5.521 0.240
57.7531 5.469 0.239
57.7736 5.240 0.234
57.7940 4.927 0.227
57.8145 4.979 0.228
57.8350 5.406 0.237
57.8554 5.260 0.234
57.8759 5.094 0.230
57.8963 4.885 0.226
57.9168 5.167 0.232
57.9373 5.000 0.228
57.9577 4.927 0.227
57.9782 5.323 0.235
57.9987 5.052 0.229
58.0191 4.750 0.222
58.0396 5.333 0.236
58.0600 5.479 0.239
58.0805 4.948 0.227
58.1010 5.313 0.235
58.1214 5.240 0.234
58.1419 5.313 0.235
58.1624 5.042 0.229
58.1828 5.229 0.233
58.2033 5.469 0.239
58.2237 5.438 0.238
58.2442 5.885 0.248
58.2647 6.115 0.252
58.2851 5.156 0.232
58.3056 5.969 0.249
58.3261 6.042 0.251
58.3465 5.875 0.247
58.3670 5.854 0.247
58.3874 5.906 0.248
58.4079 5.906 0.248
58.4284 6.802 0.266
58.4488 7.031 0.271
58.4693 7.021 0.270
58.4898 7.646 0.282
58.5102 7.802 0.285
58.5307 7.333 0.276
58.5512 6.938 0.269
58.5716 6.990 0.270
58.5921 6.792 0.266
58.6125 6.844 0.267
58.6330 6.688 0.264
58.6535 6.833 0.267
58.6739 6.635 0.263
58.6944 6.240 0.255
58.7149 5.854 0.247
58.7353 5.729 0.244
58.7558 5.802 0.246
58.7762 5.354 0.236
58.7967 5.167 0.232
58.8172 4.990 0.228
58.8376 4.750 0.222
58.8581 4.906 0.226
58.8786 5.385 0.237
58.8990 4.896 0.226
58.9195 4.823 0.224
58.9399 4.656 0.220
58.9604 4.990 0.228
58.9809 5.375 0.237
59.0013 5.281 0.235
59.0218 4.469 0.216
59.0423 4.979 0.228
59.0627 4.938 0.227
59.0832 4.573 0.218
59.1036 4.844 0.225
59.1241 4.792 0.223
59.1446 4.760 0.223
59.1650 4.531 0.217
59.1855 4.865 0.225
59.2060 4.656 0.220
59.2264 4.896 0.226
59.2469 4.313 0.212
59.2674 4.760 0.223
59.2878 5.365 0.236
59.3083 4.615 0.219
59.3287 4.781 0.223
59.3492 4.729 0.222
59.3697 4.792 0.223
59.3901 4.708 0.221
59.4106 4.896 0.226
59.4311 5.042 0.229
59.4515 4.771 0.223
59.4720 4.115 0.207
59.4924 4.885 0.226
59.5129 4.896 0.226
59.5334 4.833 0.224
59.5538 5.104 0.231
59.5743 4.885 0.226
59.5948 4.542 0.218
59.6152 4.844 0.225
59.6357 4.438 0.215
59.6561 4.583 0.219
59.6766 4.563 0.218
59.6971 4.833 0.224
59.7175 4.698 0.221
59.7380 4.813 0.224
59.7585 4.396 0.214
59.7789 4.760 0.223
59.7994 4.521 0.217
59.8198 4.750 0.222
59.8403 4.750 0.222
59.8608 4.729 0.222
59.8812 4.708 0.221
59.9017 4.823 0.224
59.9222 5.010 0.228
59.9426 4.646 0.220
59.9631 4.833 0.224
59.9835 4.896 0.226
60.0040 4.958 0.227
60.0245 4.990 0.228
60.0449 4.406 0.214
60.0654 4.896 0.226
60.0859 4.750 0.222
60.1063 4.708 0.221
60.1268 5.073 0.230
60.1473 4.167 0.208
60.1677 4.344 0.213
60.1882 4.865 0.225
60.2086 4.229 0.210
60.2291 4.396 0.214
60.2496 4.698 0.221
60.2700 4.927 0.227
60.2905 5.188 0.232
60.3110 5.479 0.239
60.3314 5.458 0.238
60.3519 6.021 0.250
60.3723 5.833 0.247
60.3928 5.635 0.242
60.4133 5.042 0.229
60.4337 4.854 0.225
60.4542 5.490 0.239
60.4747 5.198 0.233
60.4951 5.313 0.235
60.5156 5.573 0.241
60.5360 5.448 0.238
60.5565 5.188 0.232
60.5770 5.010 0.228
60.5974 5.125 0.231
60.6179 4.677 0.221
60.6384 4.448 0.215
60.6588 4.740 0.222
60.6793 4.229 0.210
60.6997 4.729 0.222
60.7202 4.313 0.212
60.7407 4.313 0.212
60.7611 4.698 0.221
60.7816 4.938 0.227
60.8021 4.521 0.217
60.8225 4.542 0.218
60.8430 4.417 0.214
60.8634 4.490 0.216
60.8839 4.656 0.220
60.9044 4.552 0.218
60.9248 4.729 0.222
60.9453 4.865 0.225
60.9658 4.552 0.218
60.9862 4.760 0.223
61.0067 4.448 0.215
61.0272 4.760 0.223
61.0476 4.573 0.218
61.0681 4.760 0.223
61.0885 4.802 0.224
61.1090 4.719 0.222
61.1295 4.885 0.226
61.1499 5.031 0.229
61.1704 4.583 0.219
61.1909 4.458 0.216
61.2113 4.563 0.218
61.2318 4.531 0.217
61.2522 5.021 0.229
61.2727 4.365 0.213
61.2932 4.521 0.217
61.3136 4.958 0.227
61.3341 4.698 0.221
61.3546 4.823 0.224
61.3750 4.813 0.224
61.3955 5.042 0.229
61.4159 5.240 0.234
61.4364 5.083 0.230
61.4569 5.188 0.232
61.4773 5.177 0.232
61.4978 5.042 0.229
61.5183 5.021 0.229
61.5387 4.990 0.228
61.5592 4.948 0.227
61.5796 5.073 0.230
61.6001 4.719 0.222
61.6206 4.500 0.217
61.6410 4.479 0.216
61.6615 4.167 0.208
61.6820 4.510 0.217
61.7024 4.177 0.209
61.7229 4.219 0.210
61.7433 4.354 0.213
61.7638 4.448 0.215
61.7843 4.219 0.210
61.8047 4.219 0.210
61.8252 4.250 0.210
61.8457 4.365 0.213
61.8661 4.240 0.210
61.8866 4.646 0.220
61.9071 4.635 0.220
61.9275 4.552 0.218
61.9480 5.177 0.232
61.9684 4.958 0.227
61.9889 4.948 0.227
62.0094 4.990 0.228
62.0298 4.906 0.226
62.0503 4.906 0.226
62.0708 4.906 0.226
62.0912 4.865 0.225
62.1117 5.615 0.242
62.1321 5.583 0.241
62.1526 6.031 0.251
62.1731 6.875 0.268
62.1935 7.229 0.274
62.2140 6.490 0.260
62.2345 6.135 0.253
62.2549 5.125 0.231
62.2754 5.198 0.233
62.2958 5.510 0.240
62.3163 5.531 0.240
62.3368 5.938 0.249
62.3572 5.760 0.245
62.3777 5.823 0.246
62.3982 5.271 0.234
62.4186 5.177 0.232
62.4391 4.906 0.226
62.4595 4.969 0.228
62.4800 4.719 0.222
62.5005 4.885 0.226
62.5209 4.854 0.225
62.5414 4.604 0.219
62.5619 4.594 0.219
62.5823 4.344 0.213
62.6028 4.635 0.220
62.6232 4.219 0.210
62.6437 4.396 0.214
62.6642 4.521 0.217
62.6846 4.250 0.210
62.7051 4.271 0.211
62.7256 4.500 0.217
62.7460 4.563 0.218
62.7665 4.385 0.214
62.7870 4.240 0.210
62.8074 4.438 0.215
62.8279 4.365 0.213
62.8483 4.052 0.205
62.8688 4.490 0.216
62.8893 4.010 0.204
62.9097 4.010 0.204
62.9302 4.635 0.220
62.9507 4.083 0.206
62.9711 4.396 0.214
62.9916 4.427 0.215
63.0120 4.000 0.204
63.0325 4.333 0.212
63.0530 4.281 0.211
63.0734 4.698 0.221
63.0939 4.052 0.205
63.1144 3.885 0.201
63.1348 3.854 0.200
63.1553 4.323 0.212
63.1757 4.375 0.213
63.1962 4.458 0.216
63.2167 4.240 0.210
63.2371 4.396 0.214
63.2576 4.177 0.209
63.2781 4.156 0.208
63.2985 3.979 0.204
63.3190 4.448 0.215
63.3394 4.448 0.215
63.3599 4.573 0.218
63.3804 4.281 0.211
63.4008 4.375 0.213
63.4213 3.990 0.204
63.4418 4.333 0.212
63.4622 4.594 0.219
63.4827 4.740 0.222
63.5032 4.271 0.211
63.5236 4.677 0.221
63.5441 4.635 0.220
63.5645 4.333 0.212
63.5850 4.125 0.207
63.6055 4.677 0.221
63.6259 4.969 0.228
63.6464 4.969 0.228
63.6669 5.448 0.238
63.6873 4.865 0.225
63.7078 5.010 0.228
63.7282 5.177 0.232
63.7487 4.938 0.227
63.7692 4.438 0.215
63.7896 4.292 0.211
63.8101 4.500 0.217
63.8306 4.844 0.225
63.8510 4.635 0.220
63.8715 4.438 0.215
63.8919 4.646 0.220
63.9124 4.552 0.218
63.9329 4.271 0.211
63.9533 4.188 0.209
63.9738 4.740 0.222
63.9943 4.729 0.222
64.0147 4.292 0.211
64.0352 4.500 0.217
64.0556 4.073 0.206
64.0761 4.063 0.206
64.0966 4.396 0.214
64.1170 4.323 0.212
64.1375 4.406 0.214
64.1580 4.281 0.211
64.1784 4.177 0.209
64.1989 4.531 0.217
64.2193 4.563 0.218
64.2398 4.469 0.216
64.2603 4.323 0.212
64.2807 4.240 0.210
64.3012 4.292 0.211
64.3217 4.260 0.211
64.3421 4.229 0.210
64.3626 4.344 0.213
64.3831 4.292 0.211
64.4035 4.208 0.209
64.4240 4.198 0.209
64.4444 3.740 0.197
64.4649 4.000 0.204
64.4854 4.323 0.212
64.5058 4.229 0.210
64.5263 4.198 0.209
64.5468 4.167 0.208
64.5672 4.344 0.213
64.5877 4.344 0.213
64.6081 4.281 0.211
64.6286 4.104 0.207
64.6491 4.188 0.209
64.6695 3.885 0.201
64.6900 3.719 0.197
64.7105 4.177 0.209
64.7309 4.385 0.214
64.7514 4.146 0.208
64.7718 4.240 0.210
64.7923 4.125 0.207
64.8128 4.208 0.209
64.8332 4.292 0.211
64.8537 4.438 0.215
64.8742 4.198 0.209
64.8946 4.198 0.209
64.9151 3.917 0.202
64.9355 4.073 0.206
64.9560 4.646 0.220
64.9765 4.333 0.212
64.9969 4.167 0.208
65.0174 4.156 0.208
65.0379 4.083 0.206
65.0583 4.219 0.210
65.0788 4.479 0.216
65.0992 4.208 0.209
65.1197 4.292 0.211
65.1402 4.042 0.205
65.1606 4.354 0.213
65.1811 4.208 0.209
65.2016 4.167 0.208
65.2220 4.500 0.217
65.2425 4.156 0.208
65.2630 4.000 0.204
65.2834 4.260 0.211
65.3039 4.573 0.218
65.3243 4.104 0.207
65.3448 4.469 0.216
65.3653 4.219 0.210
65.3857 4.510 0.217
65.4062 3.948 0.203
65.4267 3.979 0.204
65.4471 3.875 0.201
65.4676 4.198 0.209
65.4880 4.000 0.204
65.5085 4.229 0.210
65.5290 4.010 0.204
65.5494 4.240 0.210
65.5699 4.188 0.209
65.5904 3.969 0.203
65.6108 3.917 0.202
65.6313 4.240 0.210
65.6517 3.813 0.199
65.6722 4.552 0.218
65.6927 4.583 0.219
65.7131 4.104 0.207
65.7336 3.740 0.197
65.7541 4.354 0.213
65.7745 4.542 0.218
65.7950 4.146 0.208
65.8154 4.531 0.217
65.8359 4.260 0.211
65.8564 4.042 0.205
65.8768 4.021 0.205
65.8973 4.333 0.212
65.9178 4.229 0.210
65.9382 4.354 0.213
65.9587 4.406 0.214
65.9791 4.438 0.215
65.9996 4.125 0.207
66.0201 4.104 0.207
66.0405 4.531 0.217
66.0610 4.469 0.216
66.0815 4.354 0.213
66.1019 3.969 0.203
66.1224 4.135 0.208
66.1429 3.938 0.203
66.1633 3.990 0.204
66.1838 4.104 0.207
66.2042 4.302 0.212
66.2247 4.073 0.206
66.2452 3.885 0.201
66.2656 4.438 0.215
66.2861 4.135 0.208
66.3066 4.146 0.208
66.3270 4.073 0.206
66.3475 4.229 0.210
66.3679 4.333 0.212
66.3884 4.052 0.205
66.4089 4.260 0.211
66.4293 4.021 0.205
66.4498 4.250 0.210
66.4703 4.177 0.209
66.4907 3.760 0.198
66.5112 4.375 0.213
66.5316 3.760 0.198
66.5521 4.010 0.204
66.5726 4.198 0.209
66.5930 3.938 0.203
66.6135 4.240 0.210
66.6340 4.125 0.207
66.6544 4.385 0.214
66.6749 3.875 0.201
66.6953 4.167 0.208
66.7158 3.896 0.201
66.7363 4.125 0.207
66.7567 4.375 0.213
66.7772 3.635 0.195
66.7977 3.917 0.202
66.8181 4.073 0.206
66.8386 3.740 0.197
66.8590 4.229 0.210
66.8795 3.948 0.203
66.9000 3.969 0.203
66.9204 4.667 0.220
66.9409 4.615 0.219
66.9614 4.427 0.215
66.9818 4.073 0.206
67.0023 3.979 0.204
67.0228 4.042 0.205
67.0432 4.177 0.209
67.0637 4.479 0.216
67.0841 4.073 0.206
67.1046 4.385 0.214
67.1251 4.479 0.216
67.1455 4.167 0.208
67.1660 4.469 0.216
67.1865 4.708 0.221
67.2069 4.729 0.222
67.2274 4.698 0.221
67.2478 4.208 0.209
67.2683 4.156 0.208
67.2888 4.427 0.215
67.3092 4.677 0.221
67.3297 4.219 0.210
67.3502 4.813 0.224
67.3706 4.990 0.228
67.3911 5.000 0.228
67.4115 4.865 0.225
67.4320 5.156 0.232
67.4525 4.875 0.225
67.4729 5.146 0.232
67.4934 5.729 0.244
67.5139 5.510 0.240
67.5343 5.406 0.237
67.5548 4.979 0.228
67.5752 4.615 0.219
67.5957 4.688 0.221
67.6162 4.698 0.221
67.6366 4.521 0.217
67.6571 5.073 0.230
67.6776 4.677 0.221
67.6980 4.719 0.222
67.7185 4.938 0.227
67.7389 4.708 0.221
67.7594 4.542 0.218
67.7799 3.990 0.204
67.8003 4.365 0.213
67.8208 4.323 0.212
67.8413 4.052 0.205
67.8617 3.938 0.203
67.8822 3.792 0.199
67.9027 4.396 0.214
67.9231 3.615 0.194
67.9436 3.573 0.193
67.9640 3.708 0.197
67.9845 4.167 0.208
68.0050 3.750 0.198
68.0254 3.677 0.196
68.0459 3.875 0.201
68.0664 4.052 0.205
68.0868 3.677 0.196
68.1073 3.667 0.195
68.1277 3.948 0.203
68.1482 4.229 0.210
68.1687 4.302 0.212
68.1891 3.729 0.197
68.2096 3.510 0.191
68.2301 3.771 0.198
68.2505 3.677 0.196
68.2710 3.813 0.199
68.2914 4.115 0.207
68.3119 4.010 0.204
68.3324 3.771 0.198
68.3528 3.635 0.195
68.3733 3.615 0.194
68.3938 3.760 0.198
68.4142 3.990 0.204
68.4347 3.885 0.201
68.4551 3.958 0.203
68.4756 4.083 0.206
68.4961 4.438 0.215
68.5165 3.823 0.200
68.5370 4.083 0.206
68.5575 3.594 0.193
68.5779 3.969 0.203
68.5984 3.823 0.200
68.6189 4.427 0.215
68.6393 3.969 0.203
68.6598 3.573 0.193
68.6802 3.979 0.204
68.7007 4.021 0.205
68.7212 3.677 0.196
68.7416 3.427 0.189
68.7621 3.865 0.201
68.7826 4.208 0.209
68.8030 3.792 0.199
68.8235 3.729 0.197
68.8439 3.667 0.195
68.8644 3.760 0.198
68.8849 3.656 0.195
68.9053 4.021 0.205
68.9258 3.885 0.201
68.9463 3.531 0.192
68.9667 3.823 0.200
68.9872 3.906 0.202
69.0076 4.115 0.207
69.0281 3.969 0.203
69.0486 4.385 0.214
69.0690 4.333 0.212
69.0895 3.969 0.203
69.1100 4.010 0.204
69.1304 4.573 0.218
69.1509 4.490 0.216
69.1713 4.229 0.210
69.1918 4.292 0.211
69.2123 5.188 0.232
69.2327 5.229 0.233
69.2532 4.635 0.220
69.2737 4.990 0.228
69.2941 4.323 0.212
69.3146 4.375 0.213
69.3350 4.156 0.208
69.3555 4.542 0.218
69.3760 4.021 0.205
69.3964 4.688 0.221
69.4169 4.104 0.207
69.4374 4.125 0.207
69.4578 4.406 0.214
69.4783 4.417 0.214
69.4988 3.938 0.203
69.5192 3.885 0.201
69.5397 4.104 0.207
69.5601 3.740 0.197
69.5806 3.708 0.197
69.6011 3.604 0.194
69.6215 3.594 0.193
69.6420 3.625 0.194
69.6625 3.677 0.196
69.6829 4.052 0.205
69.7034 3.740 0.197
69.7238 3.635 0.195
69.7443 3.531 0.192
69.7648 3.583 0.193
69.7852 3.604 0.194
69.8057 3.823 0.200
69.8262 3.698 0.196
69.8466 3.927 0.202
69.8671 3.885 0.201
69.8875 3.906 0.202
69.9080 3.625 0.194
69.9285 3.802 0.199
69.9489 3.719 0.197
69.9694 4.167 0.208
69.9899 3.740 0.197
70.0103 3.552 0.192
70.0308 3.990 0.204
70.0512 4.021 0.205
70.0717 3.823 0.200
70.0922 4.115 0.207
70.1126 4.146 0.208
70.1331 3.531 0.192
70.1536 4.052 0.205
70.1740 4.073 0.206
70.1945 3.885 0.201
70.2149 3.979 0.204
70.2354 3.958 0.203
70.2559 3.990 0.204
70.2763 4.365 0.213
70.2968 3.958 0.203
70.3173 3.896 0.201
70.3377 4.156 0.208
70.3582 3.958 0.203
70.3787 3.625 0.194
70.3991 4.042 0.205
70.4196 3.990 0.204
70.4400 3.771 0.198
70.4605 3.802 0.199
70.4810 3.885 0.201
70.5014 3.667 0.195
70.5219 3.906 0.202
70.5424 3.979 0.204
70.5628 3.740 0.197
70.5833 3.698 0.196
70.6037 3.740 0.197
70.6242 3.375 0.188
70.6447 3.615 0.194
70.6651 3.510 0.191
70.6856 3.729 0.197
70.7061 4.073 0.206
70.7265 3.813 0.199
70.7470 3.708 0.197
70.7674 3.688 0.196
70.7879 4.000 0.204
70.8084 3.729 0.197
70.8288 4.094 0.207
70.8493 3.667 0.195
70.8698 3.802 0.199
70.8902 4.073 0.206
70.9107 4.135 0.208
70.9311 4.323 0.212
70.9516 4.583 0.219
70.9721 4.594 0.219
70.9925 4.479 0.216
71.0130 4.552 0.218
71.0335 3.844 0.200
71.0539 3.938 0.203
71.0744 3.969 0.203
71.0948 3.646 0.195
71.1153 3.906 0.202
71.1358 4.135 0.208
71.1562 4.438 0.215
71.1767 3.688 0.196
71.1972 3.604 0.194
71.2176 3.958 0.203
71.2381 3.646 0.195
71.2586 3.469 0.190
71.2790 3.438 0.189
71.2995 3.677 0.196
71.3199 3.979 0.204
71.3404 3.198 0.183
71.3609 3.125 0.180
71.3813 3.865 0.201
71.4018 3.354 0.187
71.4223 3.635 0.195
71.4427 3.698 0.196
71.4632 3.417 0.189
71.4836 3.594 0.193
71.5041 3.531 0.192
71.5246 3.469 0.190
71.5450 3.792 0.199
71.5655 3.885 0.201
71.5860 3.375 0.188
71.6064 3.625 0.194
71.6269 3.500 0.191
71.6473 3.917 0.202
71.6678 4.323 0.212
71.6883 3.542 0.192
71.7087 3.927 0.202
71.7292 3.302 0.185
71.7497 3.323 0.186
71.7701 3.865 0.201
71.7906 3.625 0.194
71.8110 3.844 0.200
71.8315 3.760 0.198
71.8520 3.802 0.199
71.8724 3.333 0.186
71.8929 3.625 0.194
71.9134 3.344 0.187
71.9338 3.021 0.177
71.9543 3.427 0.189
71.9747 3.521 0.192
71.9952 3.385 0.188
72.0157 3.823 0.200
72.0361 3.552 0.192
72.0566 3.760 0.198
72.0771 3.323 0.186
72.0975 4.167 0.208
72.1180 3.646 0.195
72.1385 4.125 0.207
72.1589 4.063 0.206
72.1794 3.813 0.199
72.1998 4.531 0.217
72.2203 4.188 0.209
72.2408 4.177 0.209
72.2612 3.927 0.202
72.2817 3.646 0.195
72.3022 3.719 0.197
72.3226 3.594 0.193
72.3431 3.927 0.202
72.3635 3.573 0.193
72.3840 4.281 0.211
72.4045 3.542 0.192
72.4249 3.865 0.201
72.4454 3.729 0.197
72.4659 4.010 0.204
72.4863 3.771 0.198
72.5068 3.531 0.192
72.5272 3.885 0.201
72.5477 3.417 0.189
72.5682 3.406 0.188
72.5886 3.740 0.197
72.6091 3.656 0.195
72.6296 3.896 0.201
72.6500 3.667 0.195
72.6705 3.844 0.200
72.6909 3.792 0.199
72.7114 3.542 0.192
72.7319 3.302 0.185
72.7523 3.531 0.192
72.7728 3.469 0.190
72.7933 3.531 0.192
72.8137 3.583 0.193
72.8342 3.719 0.197
72.8547 3.417 0.189
72.8751 3.677 0.196
72.8956 3.750 0.198
72.9160 3.250 0.184
72.9365 3.594 0.193
72.9570 3.354 0.187
72.9774 3.458 0.190
72.9979 3.688 0.196
73.0184 3.458 0.190
73.0388 3.479 0.190
73.0593 3.375 0.188
73.0797 3.177 0.182
73.1002 3.677 0.196
73.1207 3.635 0.195
73.1411 3.344 0.187
73.1616 3.563 0.193
73.1821 3.542 0.192
73.2025 3.688 0.196
73.2230 3.542 0.192
73.2434 3.510 0.191
73.2639 3.490 0.191
73.2844 3.813 0.199
73.3048 3.854 0.200
73.3253 3.490 0.191
73.3458 3.563 0.193
73.3662 3.865 0.201
73.3867 3.802 0.199
73.4071 3.708 0.197
73.4276 3.698 0.196
73.4481 3.573 0.193
73.4685 3.281 0.185
73.4890 3.677 0.196
73.5095 3.240 0.184
73.5299 3.250 0.184
73.5504 3.563 0.193
73.5708 3.510 0.191
73.5913 3.510 0.191
73.6118 3.896 0.201
73.6322 3.781 0.198
73.6527 3.625 0.194
73.6732 3.344 0.187
73.6936 3.521 0.192
73.7141 3.552 0.192
73.7346 3.271 0.185
73.7550 3.333 0.186
73.7755 3.406 0.188
73.7959 3.365 0.187
73.8164 3.563 0.193
73.8369 3.323 0.186
73.8573 3.510 0.191
73.8778 4.104 0.207
73.8983 3.594 0.193
73.9187 3.583 0.193
73.9392 3.500 0.191
73.9596 3.573 0.193
73.9801 3.677 0.196
74.0006 3.792 0.199
74.0210 4.000 0.204
74.0415 3.844 0.200
74.0620 3.813 0.199
74.0824 3.510 0.191
74.1029 3.833 0.200
74.1233 3.573 0.193
74.1438 3.469 0.190
74.1643 3.135 0.181
74.1847 3.688 0.196
74.2052 3.573 0.193
74.2257 3.490 0.191
74.2461 3.521 0.192
74.2666 3.448 0.190
74.2870 3.740 0.197
74.3075 3.760 0.198
74.3280 3.552 0.192
74.3484 3.125 0.180
74.3689 3.427 0.189
74.3894 2.854 0.172
74.4098 3.000 0.177
74.4303 3.583 0.193
74.4507 3.344 0.187
74.4712 3.490 0.191
74.4917 3.219 0.183
74.5121 3.177 0.182
74.5326 3.260 0.184
74.5531 3.354 0.187
74.5735 3.490 0.191
74.5940 3.563 0.193
74.6145 3.177 0.182
74.6349 3.292 0.185
74.6554 3.115 0.180
74.6758 3.146 0.181
74.6963 3.083 0.179
74.7168 3.073 0.179
74.7372 3.302 0.185
74.7577 3.219 0.183
74.7782 3.531 0.192
74.7986 3.313 0.186
74.8191 3.021 0.177
74.8395 2.990 0.176
74.8600 3.385 0.188
74.8805 3.198 0.183
74.9009 3.510 0.191
74.9214 3.156 0.181
74.9419 3.219 0.183
74.9623 3.406 0.188
74.9828 3.406 0.188
75.0032 3.688 0.196
75.0237 3.354 0.187
75.0442 3.469 0.190
75.0646 3.000 0.177
75.0851 3.531 0.192
75.1056 3.510 0.191
75.1260 3.281 0.185
75.1465 3.552 0.192
75.1669 3.583 0.193
75.1874 3.271 0.185
75.2079 3.396 0.188
75.2283 3.250 0.184
75.2488 3.479 0.190
75.2693 3.094 0.180
75.2897 3.552 0.192
75.3102 3.208 0.183
75.3306 3.219 0.183
75.3511 3.375 0.188
75.3716 3.000 0.177
75.3920 3.552 0.192
75.4125 3.615 0.194
75.4330 3.385 0.188
75.4534 3.094 0.180
75.4739 3.396 0.188
75.4944 3.542 0.192
75.5148 3.417 0.189
75.5353 3.448 0.190
75.5557 3.479 0.190
75.5762 3.500 0.191
75.5967 3.396 0.188
75.6171 3.281 0.185
75.6376 3.177 0.182
75.6581 3.438 0.189
75.6785 3.604 0.194
75.6990 3.385 0.188
75.7194 3.479 0.190
75.7399 3.260 0.184
75.7604 3.500 0.191
75.7808 3.604 0.194
75.8013 3.552 0.192
75.8218 4.083 0.206
75.8422 3.729 0.197
75.8627 3.865 0.201
75.8831 4.115 0.207
75.9036 4.281 0.211
75.9241 4.146 0.208
75.9445 4.521 0.217
75.9650 4.625 0.219
75.9855 4.885 0.226
76.0059 4.740 0.222
76.0264 4.844 0.225
76.0468 4.479 0.216
76.0673 4.302 0.212
76.0878 3.844 0.200
76.1082 4.250 0.210
76.1287 3.656 0.195
76.1492 4.135 0.208
76.1696 4.115 0.207
76.1901 4.271 0.211
76.2105 4.083 0.206
76.2310 4.063 0.206
76.2515 3.854 0.200
76.2719 3.802 0.199
76.2924 3.563 0.193
76.3129 3.396 0.188
76.3333 3.729 0.197
76.3538 3.500 0.191
76.3743 3.479 0.190
76.3947 3.573 0.193
76.4152 3.427 0.189
76.4356 3.365 0.187
76.4561 3.604 0.194
76.4766 3.302 0.185
76.4970 3.240 0.184
76.5175 3.063 0.179
76.5380 3.510 0.191
76.5584 3.031 0.178
76.5789 3.531 0.192
76.5993 3.135 0.181
76.6198 3.333 0.186
76.6403 2.865 0.173
76.6607 3.240 0.184
76.6812 3.333 0.186
76.7017 3.458 0.190
76.7221 3.333 0.186
76.7426 3.240 0.184
76.7630 3.052 0.178
76.7835 3.104 0.180
76.8040 2.823 0.171
76.8244 3.344 0.187
76.8449 3.125 0.180
76.8654 3.240 0.184
76.8858 2.833 0.172
76.9063 3.333 0.186
76.9267 3.333 0.186
76.9472 3.073 0.179
76.9677 3.365 0.187
76.9881 3.167 0.182
77.0086 3.042 0.178
77.0291 3.375 0.188
77.0495 3.052 0.178
77.0700 3.250 0.184
77.0905 2.969 0.176
77.1109 3.073 0.179
77.1314 3.302 0.185
77.1518 3.271 0.185
77.1723 3.313 0.186
77.1928 3.042 0.178
77.2132 2.990 0.176
77.2337 3.354 0.187
77.2542 3.083 0.179
77.2746 2.969 0.176
77.2951 3.208 0.183
77.3155 3.385 0.188
77.3360 3.063 0.179
77.3565 3.219 0.183
77.3769 3.406 0.188
77.3974 2.823 0.171
77.4179 3.177 0.182
77.4383 3.177 0.182
77.4588 3.479 0.190
77.4792 3.281 0.185
77.4997 2.854 0.172
77.5202 3.458 0.190
77.5406 3.010 0.177
77.5611 3.354 0.187
77.5816 3.396 0.188
77.6020 3.490 0.191
77.6225 2.958 0.176
77.6429 3.292 0.185
77.6634 3.260 0.184
77.6839 3.188 0.182
77.7043 2.813 0.171
77.7248 3.260 0.184
77.7453 3.188 0.182
77.7657 3.229 0.183
77.7862 3.552 0.192
77.8066 3.594 0.193
77.8271 3.302 0.185
77.8476 3.396 0.188
77.8680 3.865 0.201
77.8885 3.448 0.190
77.9090 3.188 0.182
77.9294 3.698 0.196
77.9499 3.313 0.186
77.9704 3.385 0.188
77.9908 3.333 0.186
78.0113 3.365 0.187
78.0317 3.344 0.187
78.0522 3.250 0.184
78.0727 3.594 0.193
78.0931 3.073 0.179
78.1136 3.323 0.186
78.1341 3.292 0.185
78.1545 3.490 0.191
78.1750 3.313 0.186
78.1954 3.531 0.192
78.2159 3.427 0.189
78.2364 3.354 0.187
78.2568 3.156 0.181
78.2773 3.427 0.189
78.2978 3.469 0.190
78.3182 2.906 0.174
78.3387 3.083 0.179
78.3591 2.990 0.176
78.3796 3.385 0.188
78.4001 2.802 0.171
78.4205 3.490 0.191
78.4410 3.260 0.184
78.4615 3.083 0.179
78.4819 3.188 0.182
78.5024 3.198 0.183
78.5228 3.260 0.184
78.5433 3.406 0.188
78.5638 3.073 0.179
78.5842 3.177 0.182
78.6047 3.031 0.178
78.6252 2.990 0.176
78.6456 3.260 0.184
78.6661 3.260 0.184
78.6865 3.500 0.191
78.7070 3.292 0.185
78.7275 3.229 0.183
78.7479 3.042 0.178
78.7684 3.510 0.191
78.7889 3.010 0.177
78.8093 3.354 0.187
78.8298 3.177 0.182
78.8503 3.281 0.185
78.8707 3.104 0.180
78.8912 2.938 0.175
78.9116 2.885 0.173
78.9321 2.990 0.176
78.9526 3.042 0.178
78.9730 2.833 0.172
78.9935 3.063 0.179
79.0140 3.646 0.195
79.0344 3.365 0.187
79.0549 3.135 0.181
79.0753 3.104 0.180
79.0958 3.323 0.186
79.1163 3.333 0.186
79.1367 3.000 0.177
79.1572 3.313 0.186
79.1777 3.000 0.177
79.1981 3.083 0.179
79.2186 3.042 0.178
79.2390 3.375 0.188
79.2595 3.073 0.179
79.2800 3.438 0.189
79.3004 3.354 0.187
79.3209 3.583 0.193
79.3414 2.875 0.173
79.3618 3.573 0.193
79.3823 2.885 0.173
79.4027 3.156 0.181
79.4232 3.146 0.181
79.4437 3.188 0.182
79.4641 3.135 0.181
79.4846 3.354 0.187
79.5051 3.323 0.186
79.5255 3.167 0.182
79.5460 3.354 0.187
79.5664 3.063 0.179
79.5869 2.969 0.176
79.6074 3.333 0.186
79.6278 3.250 0.184
79.6483 3.438 0.189
79.6688 3.292 0.185
79.6892 3.323 0.186
79.7097 3.313 0.186
79.7302 3.156 0.181
79.7506 3.625 0.194
79.7711 3.125 0.180
79.7915 3.208 0.183
79.8120 2.948 0.175
79.8325 3.177 0.182
79.8529 3.219 0.183
79.8734 3.260 0.184
79.8939 3.344 0.187
79.9143 3.125 0.180
79.9348 3.302 0.185
79.9552 3.188 0.182
79.9757 3.573 0.193
79.9962 3.646 0.195
