'Id: "" Comment: "" Operator: "Lab Manager" Anode: "Cu" Scantype: "Locked Coupled" TimePerStep: "96" X: "0" Y: "0" Z: "0" 
5.0000 24.010 0.500
5.0205 23.323 0.493
5.0409 23.146 0.491
5.0614 23.490 0.495
5.0819 23.875 0.499
5.1023 23.177 0.491
5.1228 22.469 0.484
5.1432 23.073 0.490
5.1637 22.188 0.481
5.1842 23.000 0.489
5.2046 22.583 0.485
5.2251 21.906 0.478
5.2456 22.229 0.481
5.2660 22.271 0.482
5.2865 22.344 0.482
5.3069 22.219 0.481
5.3274 22.396 0.483
5.3479 22.104 0.480
5.3683 23.219 0.492
5.3888 21.375 0.472
5.4093 22.833 0.488
5.4297 21.958 0.478
5.4502 21.760 0.476
5.4706 21.229 0.470
5.4911 22.427 0.483
5.5116 21.719 0.476
5.5320 21.615 0.475
5.5525 21.313 0.471
5.5730 20.948 0.467
5.5934 21.729 0.476
5.6139 21.698 0.475
5.6343 21.344 0.472
5.6548 21.729 0.476
5.6753 20.927 0.467
5.6957 20.813 0.466
5.7162 21.260 0.471
5.7367 21.219 0.470
5.7571 21.583 0.474
5.7776 21.365 0.472
5.7980 20.635 0.464
5.8185 19.521 0.451
5.8390 20.635 0.464
5.8594 20.667 0.464
5.8799 20.552 0.463
5.9004 19.615 0.452
5.9208 19.771 0.454
5.9413 20.771 0.465
5.9618 20.573 0.463
5.9822 21.135 0.469
6.0027 20.750 0.465
6.0231 20.031 0.457
6.0436 20.625 0.464
6.0641 19.927 0.456
6.0845 19.688 0.453
6.1050 19.698 0.453
6.1255 20.125 0.458
6.1459 20.729 0.465
6.1664 20.490 0.462
6.1868 20.031 0.457
6.2073 19.375 0.449
6.2278 20.250 0.459
6.2482 19.969 0.456
6.2687 19.958 0.456
6.2892 20.906 0.467
6.3096 19.667 0.453
6.3301 19.271 0.448
6.3505 20.542 0.463
6.3710 20.323 0.460
6.3915 18.615 0.440
6.4119 20.156 0.458
6.4324 19.510 0.451
6.4529 20.031 0.457
6.4733 19.781 0.454
6.4938 19.219 0.447
6.5142 19.771 0.454
6.5347 20.094 0.458
6.5552 19.313 0.449
6.5756 20.125 0.458
6.5961 20.479 0.462
6.6166 19.979 0.456
6.6370 19.969 0.456
6.6575 19.094 0.446
6.6779 19.573 0.452
6.6984 20.385 0.461
6.7189 20.208 0.459
6.7393 19.844 0.455
6.7598 20.521 0.462
6.7803 19.813 0.454
6.8007 19.302 0.448
6.8212 19.583 0.452
6.8417 19.917 0.455
6.8621 20.260 0.459
6.8826 19.563 0.451
6.9030 19.740 0.453
6.9235 19.917 0.455
6.9440 19.375 0.449
6.9644 19.813 0.454
6.9849 19.052 0.445
7.0054 19.125 0.446
7.0258 19.365 0.449
7.0463 20.302 0.460
7.0667 19.802 0.454
7.0872 19.917 0.455
7.1077 19.563 0.451
7.1281 19.958 0.456
7.1486 20.438 0.461
7.1691 19.719 0.453
7.1895 20.021 0.457
7.2100 19.396 0.449
7.2304 19.844 0.455
7.2509 19.219 0.447
7.2714 19.521 0.451
7.2918 19.698 0.453
7.3123 19.021 0.445
7.3328 19.646 0.452
7.3532 19.594 0.452
7.3737 19.917 0.455
7.3941 20.333 0.460
7.4146 20.417 0.461
7.4351 20.573 0.463
7.4555 19.271 0.448
7.4760 19.229 0.448
7.4965 19.333 0.449
7.5169 19.292 0.448
7.5374 19.906 0.455
7.5579 19.875 0.455
7.5783 19.729 0.453
7.5988 18.958 0.444
7.6192 20.073 0.457
7.6397 19.542 0.451
7.6602 19.656 0.452
7.6806 18.896 0.444
7.7011 19.625 0.452
7.7216 19.875 0.455
7.7420 20.552 0.463
7.7625 20.281 0.460
7.7829 20.583 0.463
7.8034 19.688 0.453
7.8239 19.635 0.452
7.8443 20.406 0.461
7.8648 19.854 0.455
7.8853 19.854 0.455
7.9057 20.823 0.466
7.9262 20.667 0.464
7.9466 20.198 0.459
7.9671 19.667 0.453
7.9876 21.208 0.470
8.0080 20.271 0.460
8.0285 20.000 0.456
8.0490 19.792 0.454
8.0694 20.010 0.457
8.0899 20.771 0.465
8.1103 20.896 0.467
8.1308 19.646 0.452
8.1513 20.625 0.464
8.1717 20.125 0.458
8.1922 20.240 0.459
8.2127 20.000 0.456
8.2331 20.146 0.458
8.2536 19.625 0.452
8.2740 20.417 0.461
8.2945 18.656 0.441
8.3150 20.354 0.460
8.3354 19.625 0.452
8.3559 20.531 0.462
8.3764 20.573 0.463
8.3968 20.052 0.457
8.4173 20.563 0.463
8.4378 20.458 0.462
8.4582 20.750 0.465
8.4787 20.938 0.467
8.4991 20.115 0.458
8.5196 20.115 0.458
8.5401 19.938 0.456
8.5605 19.802 0.454
8.5810 20.917 0.467
8.6015 20.698 0.464
8.6219 21.865 0.477
8.6424 19.594 0.452
8.6628 20.052 0.457
8.6833 21.115 0.469
8.7038 20.177 0.458
8.7242 20.229 0.459
8.7447 20.635 0.464
8.7652 21.260 0.471
8.7856 21.083 0.469
8.8061 20.917 0.467
8.8265 21.917 0.478
8.8470 21.615 0.475
8.8675 22.281 0.482
8.8879 20.781 0.465
8.9084 22.656 0.486
8.9289 21.938 0.478
8.9493 22.260 0.482
8.9698 22.625 0.485
8.9902 21.469 0.473
9.0107 21.833 0.477
9.0312 21.729 0.476
9.0516 22.167 0.481
9.0721 22.865 0.488
9.0926 23.198 0.492
9.1130 22.656 0.486
9.1335 23.969 0.500
9.1539 24.490 0.505
9.1744 24.073 0.501
9.1949 24.698 0.507
9.2153 25.375 0.514
9.2358 27.385 0.534
9.2563 27.813 0.538
9.2767 28.052 0.541
9.2972 27.948 0.540
9.3177 28.219 0.542
9.3381 28.771 0.547
9.3586 27.833 0.538
9.3790 28.552 0.545
9.3995 28.510 0.545
9.4200 28.427 0.544
9.4404 28.469 0.545
9.4609 29.771 0.557
9.4814 30.313 0.562
9.5018 30.708 0.566
9.5223 31.583 0.574
9.5427 31.885 0.576
9.5632 35.104 0.605
9.5837 35.938 0.612
9.6041 36.323 0.615
9.6246 38.917 0.637
9.6451 40.479 0.649
9.6655 42.458 0.665
9.6860 46.635 0.697
9.7064 50.813 0.728
9.7269 57.406 0.773
9.7474 64.844 0.822
9.7678 76.438 0.892
9.7883 94.271 0.991
9.8088 121.458 1.125
9.8292 159.323 1.288
9.8497 206.688 1.467
9.8701 259.750 1.645
9.8906 266.010 1.665
9.9111 218.250 1.508
9.9315 156.927 1.279
9.9520 117.573 1.107
9.9725 92.896 0.984
9.9929 79.031 0.907
10.0134 70.469 0.857
10.0338 63.219 0.811
10.0543 58.740 0.782
10.0748 54.198 0.751
10.0952 52.104 0.737
10.1157 47.385 0.703
10.1362 46.771 0.698
10.1566 43.802 0.675
10.1771 42.552 0.666
10.1976 40.552 0.650
10.2180 39.260 0.640
10.2385 38.219 0.631
10.2589 36.385 0.616
10.2794 35.927 0.612
10.2999 35.844 0.611
10.3203 34.823 0.602
10.3408 35.760 0.610
10.3613 34.771 0.602
10.3817 34.427 0.599
10.4022 33.865 0.594
10.4226 32.813 0.585
10.4431 32.542 0.582
10.4636 33.896 0.594
10.4840 33.792 0.593
10.5045 31.427 0.572
10.5250 32.198 0.579
10.5454 32.854 0.585
10.5659 33.677 0.592
10.5863 33.240 0.588
10.6068 33.354 0.589
10.6273 32.625 0.583
10.6477 32.677 0.583
10.6682 32.563 0.582
10.6887 32.281 0.580
10.7091 32.781 0.584
10.7296 31.583 0.574
10.7500 30.792 0.566
10.7705 29.750 0.557
10.7910 28.552 0.545
10.8114 26.479 0.525
10.8319 25.688 0.517
10.8524 24.000 0.500
10.8728 23.948 0.499
10.8933 23.875 0.499
10.9137 23.156 0.491
10.9342 22.260 0.482
10.9547 21.760 0.476
10.9751 21.854 0.477
10.9956 20.479 0.462
11.0161 20.344 0.460
11.0365 20.323 0.460
11.0570 19.740 0.453
11.0775 20.375 0.461
11.0979 20.552 0.463
11.1184 20.021 0.457
11.1388 19.104 0.446
11.1593 18.656 0.441
11.1798 18.802 0.443
11.2002 18.396 0.438
11.2207 18.031 0.433
11.2412 18.385 0.438
11.2616 19.052 0.445
11.2821 18.906 0.444
11.3025 18.635 0.441
11.3230 18.177 0.435
11.3435 17.625 0.428
11.3639 17.750 0.430
11.3844 18.135 0.435
11.4049 17.479 0.427
11.4253 17.656 0.429
11.4458 16.844 0.419
11.4662 18.094 0.434
11.4867 17.688 0.429
11.5072 17.802 0.431
11.5276 17.281 0.424
11.5481 17.479 0.427
11.5686 17.156 0.423
11.5890 17.760 0.430
11.6095 17.490 0.427
11.6299 16.646 0.416
11.6504 17.031 0.421
11.6709 16.938 0.420
11.6913 17.219 0.424
11.7118 17.573 0.428
11.7323 17.177 0.423
11.7527 17.323 0.425
11.7732 16.781 0.418
11.7937 17.875 0.432
11.8141 16.385 0.413
11.8346 16.146 0.410
11.8550 16.427 0.414
11.8755 15.771 0.405
11.8960 17.333 0.425
11.9164 16.688 0.417
11.9369 16.719 0.417
11.9574 16.708 0.417
11.9778 16.438 0.414
11.9983 15.708 0.405
12.0187 15.688 0.404
12.0392 15.479 0.402
12.0597 15.281 0.399
12.0801 15.885 0.407
12.1006 16.177 0.411
12.1211 16.063 0.409
12.1415 15.229 0.398
12.1620 16.135 0.410
12.1824 15.302 0.399
12.2029 15.281 0.399
12.2234 15.813 0.406
12.2438 15.292 0.399
12.2643 15.323 0.400
12.2848 15.594 0.403
12.3052 15.344 0.400
12.3257 15.958 0.408
12.3461 15.042 0.396
12.3666 15.083 0.396
12.3871 15.427 0.401
12.4075 15.542 0.402
12.4280 14.563 0.389
12.4485 14.896 0.394
12.4689 14.854 0.393
12.4894 14.781 0.392
12.5098 14.302 0.386
12.5303 14.927 0.394
12.5508 14.469 0.388
12.5712 14.865 0.393
12.5917 14.594 0.390
12.6122 14.781 0.392
12.6326 14.896 0.394
12.6531 14.406 0.387
12.6736 14.177 0.384
12.6940 14.823 0.393
12.7145 14.469 0.388
12.7349 14.156 0.384
12.7554 13.885 0.380
12.7759 13.135 0.370
12.7963 13.542 0.376
12.8168 14.823 0.393
12.8373 13.625 0.377
12.8577 14.708 0.391
12.8782 14.969 0.395
12.8986 14.010 0.382
12.9191 13.240 0.371
12.9396 13.354 0.373
12.9600 13.167 0.370
12.9805 13.865 0.380
13.0010 13.500 0.375
13.0214 13.938 0.381
13.0419 13.375 0.373
13.0623 14.594 0.390
13.0828 13.052 0.369
13.1033 13.479 0.375
13.1237 13.448 0.374
13.1442 13.531 0.375
13.1647 13.146 0.370
13.1851 13.406 0.374
13.2056 13.167 0.370
13.2260 12.958 0.367
13.2465 13.396 0.374
13.2670 12.938 0.367
13.2874 12.615 0.362
13.3079 12.542 0.361
13.3284 13.188 0.371
13.3488 12.406 0.359
13.3693 12.427 0.360
13.3897 13.021 0.368
13.4102 12.875 0.366
13.4307 12.594 0.362
13.4511 12.375 0.359
13.4716 12.156 0.356
13.4921 12.531 0.361
13.5125 12.448 0.360
13.5330 12.333 0.358
13.5535 12.375 0.359
13.5739 12.000 0.354
13.5944 12.688 0.364
13.6148 12.156 0.356
13.6353 12.365 0.359
13.6558 12.781 0.365
13.6762 12.604 0.362
13.6967 12.219 0.357
13.7172 12.083 0.355
13.7376 12.365 0.359
13.7581 12.698 0.364
13.7785 12.458 0.360
13.7990 11.833 0.351
13.8195 11.708 0.349
13.8399 11.333 0.344
13.8604 11.969 0.353
13.8809 12.531 0.361
13.9013 11.969 0.353
13.9218 12.229 0.357
13.9422 11.375 0.344
13.9627 11.760 0.350
13.9832 11.979 0.353
14.0036 12.115 0.355
14.0241 11.865 0.352
14.0446 11.646 0.348
14.0650 11.917 0.352
14.0855 12.385 0.359
14.1059 12.260 0.357
14.1264 11.906 0.352
14.1469 11.521 0.346
14.1673 11.458 0.345
14.1878 11.656 0.348
14.2083 11.229 0.342
14.2287 12.260 0.357
14.2492 11.552 0.347
14.2696 11.167 0.341
14.2901 10.698 0.334
14.3106 11.229 0.342
14.3310 11.333 0.344
14.3515 11.177 0.341
14.3720 11.000 0.339
14.3924 11.219 0.342
14.4129 11.354 0.344
14.4334 11.719 0.349
14.4538 11.198 0.342
14.4743 11.219 0.342
14.4947 11.448 0.345
14.5152 11.375 0.344
14.5357 11.313 0.343
14.5561 11.146 0.341
14.5766 11.208 0.342
14.5971 11.583 0.347
14.6175 11.719 0.349
14.6380 11.250 0.342
14.6584 10.354 0.328
14.6789 11.375 0.344
14.6994 11.156 0.341
14.7198 11.625 0.348
14.7403 10.979 0.338
14.7608 10.958 0.338
14.7812 10.792 0.335
14.8017 11.354 0.344
14.8221 10.906 0.337
14.8426 11.521 0.346
14.8631 11.375 0.344
14.8835 10.750 0.335
14.9040 11.188 0.341
14.9245 10.729 0.334
14.9449 11.125 0.340
14.9654 10.542 0.331
14.9858 10.625 0.333
15.0063 11.000 0.339
15.0268 10.865 0.336
15.0472 10.344 0.328
15.0677 9.979 0.322
15.0882 10.844 0.336
15.1086 11.177 0.341
15.1291 10.979 0.338
15.1495 11.042 0.339
15.1700 10.781 0.335
15.1905 10.708 0.334
15.2109 10.677 0.333
15.2314 10.417 0.329
15.2519 10.396 0.329
15.2723 10.740 0.334
15.2928 11.010 0.339
15.3133 10.542 0.331
15.3337 10.729 0.334
15.3542 10.854 0.336
15.3746 10.396 0.329
15.3951 10.260 0.327
15.4156 10.885 0.337
15.4360 10.510 0.331
15.4565 10.875 0.337
15.4770 10.448 0.330
15.4974 10.656 0.333
15.5179 10.417 0.329
15.5383 9.833 0.320
15.5588 10.500 0.331
15.5793 10.802 0.335
15.5997 10.552 0.332
15.6202 10.521 0.331
15.6407 10.552 0.332
15.6611 10.417 0.329
15.6816 10.844 0.336
15.7020 10.375 0.329
15.7225 10.625 0.333
15.7430 10.958 0.338
15.7634 10.417 0.329
15.7839 10.854 0.336
15.8044 10.854 0.336
15.8248 10.531 0.331
15.8453 10.500 0.331
15.8657 10.583 0.332
15.8862 10.823 0.336
15.9067 10.865 0.336
15.9271 10.146 0.325
15.9476 10.521 0.331
15.9681 10.240 0.327
15.9885 10.448 0.330
16.0090 10.427 0.330
16.0295 10.292 0.327
16.0499 9.604 0.316
16.0704 10.031 0.323
16.0908 10.656 0.333
16.1113 10.771 0.335
16.1318 10.563 0.332
16.1522 9.823 0.320
16.1727 10.167 0.325
16.1932 9.896 0.321
16.2136 10.073 0.324
16.2341 10.667 0.333
16.2545 10.135 0.325
16.2750 10.063 0.324
16.2955 10.156 0.325
16.3159 9.688 0.318
16.3364 10.021 0.323
16.3569 10.406 0.329
16.3773 10.698 0.334
16.3978 9.792 0.319
16.4182 9.896 0.321
16.4387 9.958 0.322
16.4592 9.927 0.322
16.4796 10.469 0.330
16.5001 10.271 0.327
16.5206 9.885 0.321
16.5410 10.000 0.323
16.5615 9.531 0.315
16.5819 10.260 0.327
16.6024 10.365 0.329
16.6229 10.302 0.328
16.6433 10.313 0.328
16.6638 9.990 0.323
16.6843 9.844 0.320
16.7047 10.656 0.333
16.7252 9.760 0.319
16.7456 9.969 0.322
16.7661 10.063 0.324
16.7866 9.844 0.320
16.8070 10.271 0.327
16.8275 9.979 0.322
16.8480 10.167 0.325
16.8684 10.125 0.325
16.8889 9.208 0.310
16.9094 10.156 0.325
16.9298 9.344 0.312
16.9503 10.073 0.324
16.9707 9.948 0.322
16.9912 10.792 0.335
17.0117 9.865 0.321
17.0321 10.219 0.326
17.0526 10.229 0.326
17.0731 9.740 0.319
17.0935 10.094 0.324
17.1140 10.510 0.331
17.1344 10.313 0.328
17.1549 10.281 0.327
17.1754 10.333 0.328
17.1958 10.208 0.326
17.2163 10.313 0.328
17.2368 10.208 0.326
17.2572 10.333 0.328
17.2777 10.271 0.327
17.2981 10.219 0.326
17.3186 10.885 0.337
17.3391 11.125 0.340
17.3595 10.917 0.337
17.3800 10.156 0.325
17.4005 10.906 0.337
17.4209 11.156 0.341
17.4414 10.740 0.334
17.4618 10.813 0.336
17.4823 11.156 0.341
17.5028 10.917 0.337
17.5232 11.073 0.340
17.5437 10.677 0.333
17.5642 11.156 0.341
17.5846 11.646 0.348
17.6051 11.354 0.344
17.6255 11.625 0.348
17.6460 11.833 0.351
17.6665 11.729 0.350
17.6869 11.792 0.350
17.7074 12.135 0.356
17.7279 13.010 0.368
17.7483 13.760 0.379
17.7688 14.073 0.383
17.7893 14.833 0.393
17.8097 13.885 0.380
17.8302 14.552 0.389
17.8506 14.719 0.392
17.8711 14.594 0.390
17.8916 15.198 0.398
17.9120 15.292 0.399
17.9325 15.542 0.402
17.9530 16.167 0.410
17.9734 16.979 0.421
17.9939 17.260 0.424
18.0143 18.896 0.444
18.0348 19.406 0.450
18.0553 21.833 0.477
18.0757 21.594 0.474
18.0962 21.344 0.472
18.1167 19.500 0.451
18.1371 20.542 0.463
18.1576 20.490 0.462
18.1780 21.417 0.472
18.1985 21.938 0.478
18.2190 21.500 0.473
18.2394 23.615 0.496
18.2599 23.469 0.494
18.2804 24.698 0.507
18.3008 24.177 0.502
18.3213 24.927 0.510
18.3417 25.427 0.515
18.3622 26.656 0.527
18.3827 26.250 0.523
18.4031 26.625 0.527
18.4236 26.708 0.527
18.4441 25.708 0.517
18.4645 26.573 0.526
18.4850 26.719 0.528
18.5054 25.844 0.519
18.5259 26.344 0.524
18.5464 26.354 0.524
18.5668 26.792 0.528
18.5873 25.573 0.516
18.6078 25.302 0.513
18.6282 25.344 0.514
18.6487 24.969 0.510
18.6692 24.510 0.505
18.6896 24.438 0.505
18.7101 25.385 0.514
18.7305 24.573 0.506
18.7510 25.396 0.514
18.7715 25.594 0.516
18.7919 24.000 0.500
18.8124 23.667 0.497
18.8329 21.813 0.477
18.8533 19.906 0.455
18.8738 19.552 0.451
18.8942 18.635 0.441
18.9147 17.313 0.425
18.9352 16.531 0.415
18.9556 16.604 0.416
18.9761 15.979 0.408
18.9966 15.490 0.402
19.0170 14.906 0.394
19.0375 14.625 0.390
19.0579 13.458 0.374
19.0784 13.667 0.377
19.0989 13.823 0.379
19.1193 13.740 0.378
19.1398 13.604 0.376
19.1603 13.719 0.378
19.1807 13.615 0.377
19.2012 13.646 0.377
19.2216 13.406 0.374
19.2421 13.302 0.372
19.2626 13.500 0.375
19.2830 13.802 0.379
19.3035 13.802 0.379
19.3240 13.250 0.372
19.3444 13.167 0.370
19.3649 13.479 0.375
19.3853 13.177 0.370
19.4058 13.594 0.376
19.4263 13.646 0.377
19.4467 13.177 0.370
19.4672 13.333 0.373
19.4877 14.969 0.395
19.5081 13.875 0.380
19.5286 14.979 0.395
19.5491 14.292 0.386
19.5695 14.427 0.388
19.5900 15.115 0.397
19.6104 15.958 0.408
19.6309 16.958 0.420
19.6514 16.802 0.418
19.6718 18.552 0.440
19.6923 19.042 0.445
19.7128 21.635 0.475
19.7332 24.760 0.508
19.7537 30.365 0.562
19.7741 36.906 0.620
19.7946 48.563 0.711
19.8151 61.958 0.803
19.8355 70.250 0.855
19.8560 67.927 0.841
19.8765 58.052 0.778
19.8969 49.906 0.721
19.9174 38.833 0.636
19.9378 31.938 0.577
19.9583 28.396 0.544
19.9788 25.490 0.515
19.9992 25.000 0.510
20.0197 24.031 0.500
20.0402 22.844 0.488
20.0606 21.292 0.471
20.0811 20.938 0.467
20.1015 20.552 0.463
20.1220 20.833 0.466
20.1425 21.094 0.469
20.1629 21.073 0.469
20.1834 21.625 0.475
20.2039 22.333 0.482
20.2243 22.458 0.484
20.2448 23.271 0.492
20.2653 24.292 0.503
20.2857 24.865 0.509
20.3062 24.635 0.507
20.3266 24.375 0.504
20.3471 24.031 0.500
20.3676 23.979 0.500
20.3880 23.573 0.496
20.4085 23.885 0.499
20.4290 23.010 0.490
20.4494 23.885 0.499
20.4699 22.781 0.487
20.4903 22.938 0.489
20.5108 21.146 0.469
20.5313 21.000 0.468
20.5517 20.417 0.461
20.5722 19.417 0.450
20.5927 18.573 0.440
20.6131 18.167 0.435
20.6336 18.260 0.436
20.6540 17.792 0.430
20.6745 16.646 0.416
20.6950 16.073 0.409
20.7154 16.469 0.414
20.7359 15.625 0.403
20.7564 16.052 0.409
20.7768 15.563 0.403
20.7973 14.448 0.388
20.8177 14.802 0.393
20.8382 14.469 0.388
20.8587 14.427 0.388
20.8791 14.281 0.386
20.8996 14.271 0.386
20.9201 13.760 0.379
20.9405 14.125 0.384
20.9610 13.385 0.373
20.9814 13.771 0.379
21.0019 14.406 0.387
21.0224 12.833 0.366
21.0428 13.396 0.374
21.0633 13.885 0.380
21.0838 14.281 0.386
21.1042 12.802 0.365
21.1247 13.531 0.375
21.1452 13.667 0.377
21.1656 13.385 0.373
21.1861 13.417 0.374
21.2065 13.333 0.373
21.2270 13.760 0.379
21.2475 12.802 0.365
21.2679 13.385 0.373
21.2884 13.198 0.371
21.3089 13.104 0.369
21.3293 12.208 0.357
21.3498 12.917 0.367
21.3702 13.177 0.370
21.3907 12.979 0.368
21.4112 13.990 0.382
21.4316 13.854 0.380
21.4521 13.521 0.375
21.4726 13.417 0.374
21.4930 14.010 0.382
21.5135 14.844 0.393
21.5339 13.302 0.372
21.5544 13.604 0.376
21.5749 14.156 0.384
21.5953 13.792 0.379
21.6158 14.021 0.382
21.6363 14.167 0.384
21.6567 13.969 0.381
21.6772 13.844 0.380
21.6976 14.438 0.388
21.7181 13.573 0.376
21.7386 13.552 0.376
21.7590 13.573 0.376
21.7795 13.927 0.381
21.8000 13.188 0.371
21.8204 13.094 0.369
21.8409 13.677 0.377
21.8613 13.542 0.376
21.8818 13.479 0.375
21.9023 13.406 0.374
21.9227 13.688 0.378
21.9432 13.323 0.373
21.9637 14.500 0.389
21.9841 14.385 0.387
22.0046 14.896 0.394
22.0251 16.135 0.410
22.0455 17.281 0.424
22.0660 19.250 0.448
22.0864 22.292 0.482
22.1069 26.479 0.525
22.1274 32.521 0.582
22.1478 39.583 0.642
22.1683 45.688 0.690
22.1888 43.969 0.677
22.2092 39.375 0.640
22.2297 34.333 0.598
22.2501 28.260 0.543
22.2706 23.302 0.493
22.2911 20.469 0.462
22.3115 18.021 0.433
22.3320 16.104 0.410
22.3525 15.865 0.407
22.3729 14.021 0.382
22.3934 13.969 0.381
22.4138 13.260 0.372
22.4343 12.917 0.367
22.4548 12.781 0.365
22.4752 12.229 0.357
22.4957 12.448 0.360
22.5162 11.792 0.350
22.5366 11.813 0.351
22.5571 11.198 0.342
22.5775 11.167 0.341
22.5980 11.458 0.345
22.6185 11.094 0.340
22.6389 10.396 0.329
22.6594 10.281 0.327
22.6799 10.854 0.336
22.7003 10.354 0.328
22.7208 10.667 0.333
22.7412 9.958 0.322
22.7617 10.823 0.336
22.7822 10.510 0.331
22.8026 10.125 0.325
22.8231 10.354 0.328
22.8436 10.854 0.336
22.8640 10.823 0.336
22.8845 10.552 0.332
22.9050 10.292 0.327
22.9254 10.323 0.328
22.9459 9.771 0.319
22.9663 9.792 0.319
22.9868 9.740 0.319
23.0073 9.583 0.316
23.0277 10.292 0.327
23.0482 9.250 0.310
23.0687 9.729 0.318
23.0891 9.760 0.319
23.1096 9.615 0.316
23.1300 9.542 0.315
23.1505 10.177 0.326
23.1710 9.531 0.315
23.1914 9.438 0.314
23.2119 9.510 0.315
23.2324 9.250 0.310
23.2528 9.521 0.315
23.2733 9.302 0.311
23.2937 9.323 0.312
23.3142 8.969 0.306
23.3347 9.563 0.316
23.3551 9.094 0.308
23.3756 9.635 0.317
23.3961 9.573 0.316
23.4165 9.646 0.317
23.4370 9.792 0.319
23.4574 8.875 0.304
23.4779 9.667 0.317
23.4984 9.635 0.317
23.5188 9.938 0.322
23.5393 10.375 0.329
23.5598 9.823 0.320
23.5802 10.188 0.326
23.6007 10.927 0.337
23.6211 11.927 0.352
23.6416 12.917 0.367
23.6621 12.146 0.356
23.6825 12.135 0.356
23.7030 12.094 0.355
23.7235 10.792 0.335
23.7439 10.375 0.329
23.7644 10.177 0.326
23.7849 9.563 0.316
23.8053 9.063 0.307
23.8258 9.760 0.319
23.8462 9.260 0.311
23.8667 9.542 0.315
23.8872 8.635 0.300
23.9076 9.125 0.308
23.9281 9.083 0.308
23.9486 9.281 0.311
23.9690 9.240 0.310
23.9895 8.719 0.301
24.0099 8.844 0.304
24.0304 8.979 0.306
24.0509 8.906 0.305
24.0713 8.875 0.304
24.0918 9.125 0.308
24.1123 9.073 0.307
24.1327 9.135 0.308
24.1532 8.948 0.305
24.1736 9.146 0.309
24.1941 8.833 0.303
24.2146 8.927 0.305
24.2350 10.406 0.329
24.2555 10.573 0.332
24.2760 10.625 0.333
24.2964 11.833 0.351
24.3169 11.427 0.345
24.3373 10.969 0.338
24.3578 10.969 0.338
24.3783 10.135 0.325
24.3987 9.979 0.322
24.4192 9.781 0.319
24.4397 9.115 0.308
24.4601 8.750 0.302
24.4806 8.948 0.305
24.5011 8.271 0.294
24.5215 8.510 0.298
24.5420 8.958 0.305
24.5624 8.719 0.301
24.5829 8.833 0.303
24.6034 8.427 0.296
24.6238 8.510 0.298
24.6443 8.104 0.291
24.6648 8.375 0.295
24.6852 8.323 0.294
24.7057 8.396 0.296
24.7261 8.354 0.295
24.7466 8.802 0.303
24.7671 8.271 0.294
24.7875 8.125 0.291
24.8080 8.438 0.296
24.8285 8.458 0.297
24.8489 8.406 0.296
24.8694 8.781 0.302
24.8898 8.510 0.298
24.9103 8.740 0.302
24.9308 8.729 0.302
24.9512 8.594 0.299
24.9717 8.615 0.300
24.9922 8.521 0.298
25.0126 8.615 0.300
25.0331 8.615 0.300
25.0535 8.906 0.305
25.0740 8.135 0.291
25.0945 8.375 0.295
25.1149 8.042 0.289
25.1354 8.292 0.294
25.1559 8.385 0.296
25.1763 8.438 0.296
25.1968 8.188 0.292
25.2172 7.719 0.284
25.2377 8.010 0.289
25.2582 8.625 0.300
25.2786 8.552 0.298
25.2991 8.271 0.294
25.3196 7.760 0.284
25.3400 7.781 0.285
25.3605 7.969 0.288
25.3810 7.906 0.287
25.4014 8.208 0.292
25.4219 7.885 0.287
25.4423 7.990 0.288
25.4628 7.896 0.287
25.4833 7.938 0.288
25.5037 8.313 0.294
25.5242 7.844 0.286
25.5447 7.927 0.287
25.5651 7.813 0.285
25.5856 8.219 0.293
25.6060 7.667 0.283
25.6265 8.094 0.290
25.6470 7.594 0.281
25.6674 8.469 0.297
25.6879 7.802 0.285
25.7084 7.823 0.285
25.7288 8.125 0.291
25.7493 7.219 0.274
25.7697 7.604 0.281
25.7902 7.729 0.284
25.8107 7.813 0.285
25.8311 8.583 0.299
25.8516 7.802 0.285
25.8721 8.208 0.292
25.8925 7.438 0.278
25.9130 8.229 0.293
25.9334 8.229 0.293
25.9539 7.927 0.287
25.9744 8.031 0.289
25.9948 8.563 0.299
26.0153 8.354 0.295
26.0358 8.292 0.294
26.0562 7.719 0.284
26.0767 8.156 0.291
26.0971 8.156 0.291
26.1176 7.896 0.287
26.1381 8.115 0.291
26.1585 8.313 0.294
26.1790 8.083 0.290
26.1995 8.313 0.294
26.2199 8.333 0.295
26.2404 7.688 0.283
26.2609 8.167 0.292
26.2813 8.271 0.294
26.3018 7.927 0.287
26.3222 8.594 0.299
26.3427 8.333 0.295
26.3632 8.656 0.300
26.3836 8.698 0.301
26.4041 7.969 0.288
26.4246 8.458 0.297
26.4450 8.198 0.292
26.4655 8.083 0.290
26.4859 8.333 0.295
26.5064 8.552 0.298
26.5269 8.365 0.295
26.5473 8.469 0.297
26.5678 8.990 0.306
26.5883 8.427 0.296
26.6087 7.917 0.287
26.6292 8.458 0.297
26.6496 8.188 0.292
26.6701 7.813 0.285
26.6906 8.417 0.296
26.7110 7.875 0.286
26.7315 7.563 0.281
26.7520 8.615 0.300
26.7724 8.260 0.293
26.7929 7.979 0.288
26.8133 8.344 0.295
26.8338 8.323 0.294
26.8543 9.031 0.307
26.8747 8.375 0.295
26.8952 8.438 0.296
26.9157 8.219 0.293
26.9361 8.000 0.289
26.9566 8.260 0.293
26.9770 7.896 0.287
26.9975 8.333 0.295
27.0180 8.146 0.291
27.0384 7.990 0.288
27.0589 7.938 0.288
27.0794 7.740 0.284
27.0998 8.146 0.291
27.1203 7.948 0.288
27.1408 7.896 0.287
27.1612 7.969 0.288
27.1817 7.896 0.287
27.2021 7.823 0.285
27.2226 7.781 0.285
27.2431 7.615 0.282
27.2635 7.552 0.280
27.2840 8.000 0.289
27.3045 8.240 0.293
27.3249 8.010 0.289
27.3454 8.552 0.298
27.3658 8.177 0.292
27.3863 8.188 0.292
27.4068 8.010 0.289
27.4272 7.833 0.286
27.4477 7.531 0.280
27.4682 8.146 0.291
27.4886 7.615 0.282
27.5091 7.990 0.288
27.5295 7.875 0.286
27.5500 7.719 0.284
27.5705 8.479 0.297
27.5909 8.094 0.290
27.6114 8.354 0.295
27.6319 8.885 0.304
27.6523 8.365 0.295
27.6728 8.240 0.293
27.6932 8.417 0.296
27.7137 8.333 0.295
27.7342 8.510 0.298
27.7546 8.677 0.301
27.7751 8.792 0.303
27.7956 8.375 0.295
27.8160 8.625 0.300
27.8365 8.823 0.303
27.8569 9.052 0.307
27.8774 8.927 0.305
27.8979 8.969 0.306
27.9183 8.656 0.300
27.9388 8.792 0.303
27.9593 8.896 0.304
27.9797 8.740 0.302
28.0002 8.563 0.299
28.0207 8.219 0.293
28.0411 7.969 0.288
28.0616 8.583 0.299
28.0820 8.000 0.289
28.1025 8.031 0.289
28.1230 7.833 0.286
28.1434 7.844 0.286
28.1639 7.813 0.285
28.1844 8.458 0.297
28.2048 7.844 0.286
28.2253 7.521 0.280
28.2457 7.615 0.282
28.2662 8.240 0.293
28.2867 8.458 0.297
28.3071 7.615 0.282
28.3276 7.719 0.284
28.3481 7.125 0.272
28.3685 7.635 0.282
28.3890 7.240 0.275
28.4094 7.615 0.282
28.4299 7.781 0.285
28.4504 7.583 0.281
28.4708 7.052 0.271
28.4913 7.375 0.277
28.5118 7.604 0.281
28.5322 7.760 0.284
28.5527 7.854 0.286
28.5731 8.281 0.294
28.5936 7.875 0.286
28.6141 7.969 0.288
28.6345 7.583 0.281
28.6550 7.906 0.287
28.6755 7.573 0.281
28.6959 7.083 0.272
28.7164 7.313 0.276
28.7368 7.000 0.270
28.7573 7.438 0.278
28.7778 7.604 0.281
28.7982 7.104 0.272
28.8187 7.146 0.273
28.8392 7.125 0.272
28.8596 7.552 0.280
28.8801 7.240 0.275
28.9006 7.521 0.280
28.9210 7.313 0.276
28.9415 7.198 0.274
28.9619 7.542 0.280
28.9824 7.417 0.278
29.0029 6.969 0.269
29.0233 6.740 0.265
29.0438 7.458 0.279
29.0643 7.156 0.273
29.0847 7.010 0.270
29.1052 6.938 0.269
29.1256 7.167 0.273
29.1461 7.635 0.282
29.1666 6.990 0.270
29.1870 7.417 0.278
29.2075 7.740 0.284
29.2280 7.792 0.285
29.2484 7.375 0.277
29.2689 7.302 0.276
29.2893 7.479 0.279
29.3098 7.427 0.278
29.3303 7.656 0.282
29.3507 7.469 0.279
29.3712 7.573 0.281
29.3917 7.313 0.276
29.4121 7.313 0.276
29.4326 7.563 0.281
29.4530 7.823 0.285
29.4735 7.052 0.271
29.4940 7.656 0.282
29.5144 6.802 0.266
29.5349 7.448 0.279
29.5554 7.292 0.276
29.5758 7.521 0.280
29.5963 7.531 0.280
29.6168 7.146 0.273
29.6372 6.958 0.269
29.6577 7.135 0.273
29.6781 7.031 0.271
29.6986 7.073 0.271
29.7191 6.979 0.270
29.7395 7.115 0.272
29.7600 6.792 0.266
29.7805 6.948 0.269
29.8009 7.208 0.274
29.8214 6.854 0.267
29.8418 6.875 0.268
29.8623 6.646 0.263
29.8828 6.844 0.267
29.9032 7.073 0.271
29.9237 7.229 0.274
29.9442 7.135 0.273
29.9646 7.083 0.272
29.9851 7.010 0.270
30.0055 6.979 0.270
30.0260 6.813 0.266
30.0465 7.365 0.277
30.0669 7.479 0.279
30.0874 7.208 0.274
30.1079 7.219 0.274
30.1283 7.302 0.276
30.1488 7.563 0.281
30.1692 7.135 0.273
30.1897 7.438 0.278
30.2102 6.667 0.264
30.2306 7.094 0.272
30.2511 6.698 0.264
30.2716 6.896 0.268
30.2920 7.823 0.285
30.3125 6.646 0.263
30.3329 7.156 0.273
30.3534 6.979 0.270
30.3739 7.063 0.271
30.3943 7.052 0.271
30.4148 7.333 0.276
30.4353 7.198 0.274
30.4557 6.990 0.270
30.4762 7.458 0.279
30.4967 7.000 0.270
30.5171 6.865 0.267
30.5376 6.896 0.268
30.5580 7.188 0.274
30.5785 7.365 0.277
30.5990 7.698 0.283
30.6194 7.021 0.270
30.6399 7.250 0.275
30.6604 7.302 0.276
30.6808 7.292 0.276
30.7013 7.385 0.277
30.7217 8.510 0.298
30.7422 8.000 0.289
30.7627 8.469 0.297
30.7831 8.563 0.299
30.8036 8.740 0.302
30.8241 10.000 0.323
30.8445 10.323 0.328
30.8650 11.396 0.345
30.8854 12.927 0.367
30.9059 14.875 0.394
30.9264 19.854 0.455
30.9468 27.021 0.531
30.9673 38.260 0.631
30.9878 51.531 0.733
31.0082 58.802 0.783
31.0287 51.563 0.733
31.0491 44.781 0.683
31.0696 42.063 0.662
31.0901 38.833 0.636
31.1105 31.698 0.575
31.1310 24.490 0.505
31.1515 19.146 0.447
31.1719 16.469 0.414
31.1924 14.792 0.393
31.2128 13.552 0.376
31.2333 11.583 0.347
31.2538 11.073 0.340
31.2742 10.635 0.333
31.2947 10.281 0.327
31.3152 10.000 0.323
31.3356 9.677 0.317
31.3561 8.208 0.292
31.3766 8.260 0.293
31.3970 8.594 0.299
31.4175 8.167 0.292
31.4379 8.844 0.304
31.4584 8.188 0.292
31.4789 8.396 0.296
31.4993 7.688 0.283
31.5198 7.625 0.282
31.5403 7.740 0.284
31.5607 7.615 0.282
31.5812 7.854 0.286
31.6016 7.365 0.277
31.6221 7.833 0.286
31.6426 7.594 0.281
31.6630 7.854 0.286
31.6835 7.333 0.276
31.7040 7.729 0.284
31.7244 8.365 0.295
31.7449 8.052 0.290
31.7653 7.979 0.288
31.7858 8.271 0.294
31.8063 7.875 0.286
31.8267 8.052 0.290
31.8472 8.271 0.294
31.8677 8.240 0.293
31.8881 8.448 0.297
31.9086 8.573 0.299
31.9290 8.052 0.290
31.9495 8.729 0.302
31.9700 9.094 0.308
31.9904 8.875 0.304
32.0109 9.885 0.321
32.0314 9.250 0.310
32.0518 10.104 0.324
32.0723 9.500 0.315
32.0927 10.958 0.338
32.1132 10.573 0.332
32.1337 10.521 0.331
32.1541 10.469 0.330
32.1746 10.271 0.327
32.1951 9.302 0.311
32.2155 9.719 0.318
32.2360 9.104 0.308
32.2565 9.365 0.312
32.2769 9.448 0.314
32.2974 8.385 0.296
32.3178 9.042 0.307
32.3383 8.615 0.300
32.3588 9.417 0.313
32.3792 9.667 0.317
32.3997 9.177 0.309
32.4202 9.552 0.315
32.4406 10.302 0.328
32.4611 10.542 0.331
32.4815 11.542 0.347
32.5020 12.417 0.360
32.5225 12.865 0.366
32.5429 14.990 0.395
32.5634 16.885 0.419
32.5839 18.250 0.436
32.6043 21.031 0.468
32.6248 22.094 0.480
32.6452 18.896 0.444
32.6657 18.042 0.434
32.6862 17.188 0.423
32.7066 16.021 0.409
32.7271 13.854 0.380
32.7476 12.260 0.357
32.7680 11.375 0.344
32.7885 10.688 0.334
32.8089 10.469 0.330
32.8294 9.469 0.314
32.8499 8.990 0.306
32.8703 9.177 0.309
32.8908 8.677 0.301
32.9113 8.948 0.305
32.9317 8.792 0.303
32.9522 8.510 0.298
32.9726 8.740 0.302
32.9931 8.500 0.298
33.0136 8.573 0.299
33.0340 7.823 0.285
33.0545 8.406 0.296
33.0750 8.188 0.292
33.0954 7.969 0.288
33.1159 8.156 0.291
33.1364 8.323 0.294
33.1568 8.063 0.290
33.1773 7.750 0.284
33.1977 8.104 0.291
33.2182 7.552 0.280
33.2387 7.802 0.285
33.2591 7.417 0.278
33.2796 7.250 0.275
33.3001 7.135 0.273
33.3205 7.229 0.274
33.3410 7.240 0.275
33.3614 7.083 0.272
33.3819 7.583 0.281
33.4024 7.438 0.278
33.4228 7.823 0.285
33.4433 7.313 0.276
33.4638 7.542 0.280
33.4842 6.990 0.270
33.5047 7.010 0.270
33.5251 7.500 0.280
33.5456 7.313 0.276
33.5661 7.010 0.270
33.5865 7.042 0.271
33.6070 7.188 0.274
33.6275 7.063 0.271
33.6479 7.104 0.272
33.6684 7.281 0.275
33.6888 7.583 0.281
33.7093 7.500 0.280
33.7298 7.448 0.279
33.7502 6.844 0.267
33.7707 6.604 0.262
33.7912 7.885 0.287
33.8116 7.458 0.279
33.8321 6.948 0.269
33.8526 6.823 0.267
33.8730 7.010 0.270
33.8935 6.927 0.269
33.9139 6.365 0.257
33.9344 7.083 0.272
33.9549 7.302 0.276
33.9753 6.917 0.268
33.9958 6.667 0.264
34.0163 7.177 0.273
34.0367 7.344 0.277
34.0572 7.323 0.276
34.0776 7.281 0.275
34.0981 6.615 0.262
34.1186 6.448 0.259
34.1390 7.219 0.274
34.1595 7.052 0.271
34.1800 6.948 0.269
34.2004 7.125 0.272
34.2209 7.219 0.274
34.2413 7.667 0.283
34.2618 7.031 0.271
34.2823 6.604 0.262
34.3027 6.792 0.266
34.3232 7.156 0.273
34.3437 6.760 0.265
34.3641 7.010 0.270
34.3846 7.281 0.275
34.4050 6.500 0.260
34.4255 7.302 0.276
34.4460 6.781 0.266
34.4664 6.677 0.264
34.4869 6.698 0.264
34.5074 7.052 0.271
34.5278 6.281 0.256
34.5483 6.615 0.262
34.5687 6.677 0.264
34.5892 6.375 0.258
34.6097 6.323 0.257
34.6301 6.604 0.262
34.6506 6.760 0.265
34.6711 6.656 0.263
34.6915 6.469 0.260
34.7120 7.198 0.274
34.7325 6.313 0.256
34.7529 6.573 0.262
34.7734 6.177 0.254
34.7938 6.229 0.255
34.8143 6.313 0.256
34.8348 6.646 0.263
34.8552 6.531 0.261
34.8757 6.458 0.259
34.8962 6.354 0.257
34.9166 6.365 0.257
34.9371 6.292 0.256
34.9575 6.354 0.257
34.9780 6.448 0.259
34.9985 6.729 0.265
35.0189 6.625 0.263
35.0394 6.063 0.251
35.0599 6.604 0.262
35.0803 6.406 0.258
35.1008 6.750 0.265
35.1212 6.781 0.266
35.1417 6.260 0.255
35.1622 6.510 0.260
35.1826 6.615 0.262
35.2031 6.552 0.261
35.2236 6.573 0.262
35.2440 6.313 0.256
35.2645 6.385 0.258
35.2849 7.167 0.273
35.3054 7.385 0.277
35.3259 7.344 0.277
35.3463 7.271 0.275
35.3668 6.302 0.256
35.3873 6.917 0.268
35.4077 6.323 0.257
35.4282 6.448 0.259
35.4486 6.240 0.255
35.4691 6.479 0.260
35.4896 6.625 0.263
35.5100 7.490 0.279
35.5305 7.427 0.278
35.5510 6.667 0.264
35.5714 7.417 0.278
35.5919 7.458 0.279
35.6124 7.094 0.272
35.6328 7.375 0.277
35.6533 7.365 0.277
35.6737 7.500 0.280
35.6942 7.323 0.276
35.7147 7.323 0.276
35.7351 7.896 0.287
35.7556 7.438 0.278
35.7761 7.479 0.279
35.7965 8.188 0.292
35.8170 8.417 0.296
35.8374 8.573 0.299
35.8579 8.469 0.297
35.8784 8.938 0.305
35.8988 9.427 0.313
35.9193 9.052 0.307
35.9398 10.708 0.334
35.9602 10.635 0.333
35.9807 11.958 0.353
36.0011 12.208 0.357
36.0216 12.406 0.359
36.0421 12.240 0.357
36.0625 13.052 0.369
36.0830 13.219 0.371
36.1035 14.333 0.386
36.1239 13.927 0.381
36.1444 13.792 0.379
36.1648 13.365 0.373
36.1853 13.000 0.368
36.2058 13.260 0.372
36.2262 13.979 0.382
36.2467 13.406 0.374
36.2672 13.167 0.370
36.2876 12.583 0.362
36.3081 13.833 0.380
36.3285 13.531 0.375
36.3490 14.729 0.392
36.3695 14.427 0.388
36.3899 14.771 0.392
36.4104 15.510 0.402
36.4309 16.073 0.409
36.4513 16.563 0.415
36.4718 16.823 0.419
36.4923 18.021 0.433
36.5127 20.177 0.458
36.5332 22.698 0.486
36.5536 25.625 0.517
36.5741 30.813 0.567
36.5946 31.781 0.575
36.6150 29.469 0.554
36.6355 26.583 0.526
36.6560 24.917 0.509
36.6764 25.083 0.511
36.6969 23.896 0.499
36.7173 19.740 0.453
36.7378 18.625 0.440
36.7583 16.906 0.420
36.7787 17.052 0.421
36.7992 16.698 0.417
36.8197 16.573 0.415
36.8401 16.510 0.415
36.8606 17.375 0.425
36.8810 17.896 0.432
36.9015 17.458 0.426
36.9220 17.948 0.432
36.9424 19.406 0.450
36.9629 20.490 0.462
36.9834 21.302 0.471
37.0038 23.885 0.499
37.0243 27.156 0.532
37.0447 31.104 0.569
37.0652 33.500 0.591
37.0857 33.490 0.591
37.1061 30.604 0.565
37.1266 28.979 0.549
37.1471 27.771 0.538
37.1675 25.010 0.510
37.1880 25.104 0.511
37.2084 20.667 0.464
37.2289 19.083 0.446
37.2494 17.135 0.422
37.2698 15.854 0.406
37.2903 15.250 0.399
37.3108 14.125 0.384
37.3312 14.000 0.382
37.3517 13.594 0.376
37.3722 12.104 0.355
37.3926 12.625 0.363
37.4131 13.083 0.369
37.4335 12.594 0.362
37.4540 12.490 0.361
37.4745 12.354 0.359
37.4949 12.260 0.357
37.5154 12.563 0.362
37.5359 12.219 0.357
37.5563 12.677 0.363
37.5768 11.115 0.340
37.5972 12.292 0.358
37.6177 12.365 0.359
37.6382 12.115 0.355
37.6586 11.792 0.350
37.6791 11.521 0.346
37.6996 11.615 0.348
37.7200 11.781 0.350
37.7405 12.229 0.357
37.7609 11.823 0.351
37.7814 11.667 0.349
37.8019 12.042 0.354
37.8223 11.844 0.351
37.8428 11.688 0.349
37.8633 11.760 0.350
37.8837 12.365 0.359
37.9042 12.302 0.358
37.9246 13.448 0.374
37.9451 13.427 0.374
37.9656 14.854 0.393
37.9860 15.573 0.403
38.0065 16.198 0.411
38.0270 16.563 0.415
38.0474 16.375 0.413
38.0679 15.802 0.406
38.0884 15.573 0.403
38.1088 15.073 0.396
38.1293 14.760 0.392
38.1497 14.125 0.384
38.1702 13.646 0.377
38.1907 13.875 0.380
38.2111 12.885 0.366
38.2316 12.688 0.364
38.2521 12.031 0.354
38.2725 12.354 0.359
38.2930 12.302 0.358
38.3134 12.990 0.368
38.3339 13.292 0.372
38.3544 13.167 0.370
38.3748 14.375 0.387
38.3953 14.875 0.394
38.4158 15.927 0.407
38.4362 16.323 0.412
38.4567 17.958 0.433
38.4771 16.177 0.411
38.4976 15.115 0.397
38.5181 14.521 0.389
38.5385 13.885 0.380
38.5590 13.771 0.379
38.5795 13.083 0.369
38.5999 11.948 0.353
38.6204 11.198 0.342
38.6408 10.906 0.337
38.6613 10.188 0.326
38.6818 10.292 0.327
38.7022 10.198 0.326
38.7227 10.531 0.331
38.7432 10.406 0.329
38.7636 9.927 0.322
38.7841 10.240 0.327
38.8045 9.781 0.319
38.8250 9.365 0.312
38.8455 9.427 0.313
38.8659 9.823 0.320
38.8864 9.146 0.309
38.9069 9.604 0.316
38.9273 9.323 0.312
38.9478 9.677 0.317
38.9683 9.271 0.311
38.9887 9.167 0.309
39.0092 9.469 0.314
39.0296 9.177 0.309
39.0501 9.615 0.316
39.0706 8.813 0.303
39.0910 9.531 0.315
39.1115 9.104 0.308
39.1320 9.323 0.312
39.1524 9.094 0.308
39.1729 9.344 0.312
39.1933 9.271 0.311
39.2138 9.781 0.319
39.2343 8.938 0.305
39.2547 9.125 0.308
39.2752 9.094 0.308
39.2957 8.927 0.305
39.3161 8.979 0.306
39.3366 9.188 0.309
39.3570 8.979 0.306
39.3775 9.313 0.311
39.3980 9.333 0.312
39.4184 9.958 0.322
39.4389 8.760 0.302
39.4594 9.292 0.311
39.4798 9.938 0.322
39.5003 10.010 0.323
39.5207 10.271 0.327
39.5412 9.885 0.321
39.5617 9.781 0.319
39.5821 9.938 0.322
39.6026 9.875 0.321
39.6231 10.042 0.323
39.6435 10.250 0.327
39.6640 10.469 0.330
39.6844 11.083 0.340
39.7049 10.865 0.336
39.7254 11.208 0.342
39.7458 11.708 0.349
39.7663 11.990 0.353
39.7868 13.042 0.369
39.8072 13.115 0.370
39.8277 13.010 0.368
39.8482 11.615 0.348
39.8686 11.594 0.348
39.8891 12.167 0.356
39.9095 11.635 0.348
39.9300 10.625 0.333
39.9505 10.115 0.325
39.9709 10.344 0.328
39.9914 10.313 0.328
40.0119 9.646 0.317
40.0323 10.292 0.327
40.0528 9.760 0.319
40.0732 9.469 0.314
40.0937 9.135 0.308
40.1142 9.823 0.320
40.1346 9.865 0.321
40.1551 10.323 0.328
40.1756 9.865 0.321
40.1960 10.146 0.325
40.2165 10.521 0.331
40.2369 11.063 0.339
40.2574 10.323 0.328
40.2779 12.115 0.355
40.2983 11.521 0.346
40.3188 11.729 0.350
40.3393 11.594 0.348
40.3597 11.833 0.351
40.3802 11.146 0.341
40.4006 11.219 0.342
40.4211 12.031 0.354
40.4416 10.844 0.336
40.4620 11.281 0.343
40.4825 11.063 0.339
40.5030 11.125 0.340
40.5234 10.417 0.329
40.5439 10.635 0.333
40.5643 10.417 0.329
40.5848 11.250 0.342
40.6053 10.479 0.330
40.6257 10.792 0.335
40.6462 10.510 0.331
40.6667 9.708 0.318
40.6871 9.958 0.322
40.7076 9.990 0.323
40.7281 9.844 0.320
40.7485 9.354 0.312
40.7690 9.583 0.316
40.7894 8.979 0.306
40.8099 9.427 0.313
40.8304 8.500 0.298
40.8508 9.438 0.314
40.8713 8.948 0.305
40.8918 9.333 0.312
40.9122 8.906 0.305
40.9327 8.938 0.305
40.9531 9.417 0.313
40.9736 8.917 0.305
40.9941 9.448 0.314
41.0145 10.063 0.324
41.0350 10.552 0.332
41.0555 10.979 0.338
41.0759 11.583 0.347
41.0964 12.125 0.355
41.1168 13.813 0.379
41.1373 13.927 0.381
41.1578 13.615 0.377
41.1782 12.781 0.365
41.1987 12.094 0.355
41.2192 12.177 0.356
41.2396 11.750 0.350
41.2601 11.615 0.348
41.2805 10.323 0.328
41.3010 9.802 0.320
41.3215 9.677 0.317
41.3419 9.063 0.307
41.3624 8.531 0.298
41.3829 8.760 0.302
41.4033 8.281 0.294
41.4238 8.000 0.289
41.4442 8.490 0.297
41.4647 7.948 0.288
41.4852 7.969 0.288
41.5056 8.323 0.294
41.5261 8.125 0.291
41.5466 7.500 0.280
41.5670 7.813 0.285
41.5875 8.281 0.294
41.6080 7.844 0.286
41.6284 8.031 0.289
41.6489 8.125 0.291
41.6693 7.615 0.282
41.6898 8.135 0.291
41.7103 8.490 0.297
41.7307 7.740 0.284
41.7512 7.719 0.284
41.7717 7.344 0.277
41.7921 7.656 0.282
41.8126 7.948 0.288
41.8330 7.917 0.287
41.8535 7.740 0.284
41.8740 7.729 0.284
41.8944 7.604 0.281
41.9149 6.906 0.268
41.9354 7.625 0.282
41.9558 7.740 0.284
41.9763 7.521 0.280
41.9967 7.146 0.273
42.0172 7.281 0.275
42.0377 7.344 0.277
42.0581 6.958 0.269
42.0786 7.479 0.279
42.0991 7.688 0.283
42.1195 7.448 0.279
42.1400 7.427 0.278
42.1604 7.219 0.274
42.1809 7.177 0.273
42.2014 7.573 0.281
42.2218 7.813 0.285
42.2423 7.271 0.275
42.2628 7.781 0.285
42.2832 7.396 0.278
42.3037 7.906 0.287
42.3242 7.635 0.282
42.3446 6.979 0.270
42.3651 7.865 0.286
42.3855 7.760 0.284
42.4060 7.385 0.277
42.4265 7.354 0.277
42.4469 7.417 0.278
42.4674 7.594 0.281
42.4879 8.125 0.291
42.5083 8.021 0.289
42.5288 7.688 0.283
42.5492 7.708 0.283
42.5697 7.979 0.288
42.5902 7.938 0.288
42.6106 7.833 0.286
42.6311 8.073 0.290
42.6516 8.677 0.301
42.6720 8.177 0.292
42.6925 7.865 0.286
42.7129 7.302 0.276
42.7334 7.927 0.287
42.7539 7.260 0.275
42.7743 8.031 0.289
42.7948 8.010 0.289
42.8153 8.021 0.289
42.8357 8.427 0.296
42.8562 8.115 0.291
42.8766 8.365 0.295
42.8971 7.844 0.286
42.9176 8.313 0.294
42.9380 7.896 0.287
42.9585 8.292 0.294
42.9790 8.438 0.296
42.9994 8.073 0.290
43.0199 8.500 0.298
43.0403 8.094 0.290
43.0608 8.760 0.302
43.0813 9.104 0.308
43.1017 8.469 0.297
43.1222 9.344 0.312
43.1427 9.698 0.318
43.1631 10.073 0.324
43.1836 10.563 0.332
43.2041 10.594 0.332
43.2245 10.781 0.335
43.2450 10.188 0.326
43.2654 10.646 0.333
43.2859 10.385 0.329
43.3064 10.313 0.328
43.3268 10.240 0.327
43.3473 10.469 0.330
43.3678 10.688 0.334
43.3882 11.083 0.340
43.4087 10.052 0.324
43.4291 11.135 0.341
43.4496 11.469 0.346
43.4701 11.063 0.339
43.4905 11.854 0.351
43.5110 12.271 0.358
43.5315 13.906 0.381
43.5519 14.604 0.390
43.5724 16.271 0.412
43.5928 17.594 0.428
43.6133 19.260 0.448
43.6338 20.385 0.461
43.6542 20.573 0.463
43.6747 19.198 0.447
43.6952 17.385 0.426
43.7156 17.281 0.424
43.7361 16.635 0.416
43.7565 15.396 0.400
43.7770 14.833 0.393
43.7975 12.906 0.367
43.8179 11.938 0.353
43.8384 10.854 0.336
43.8589 10.260 0.327
43.8793 10.229 0.326
43.8998 9.781 0.319
43.9202 9.083 0.308
43.9407 8.615 0.300
43.9612 8.604 0.299
43.9816 8.750 0.302
44.0021 8.083 0.290
44.0226 8.188 0.292
44.0430 8.646 0.300
44.0635 8.552 0.298
44.0840 8.073 0.290
44.1044 8.063 0.290
44.1249 9.229 0.310
44.1453 8.271 0.294
44.1658 7.958 0.288
44.1863 8.010 0.289
44.2067 8.375 0.295
44.2272 7.854 0.286
44.2477 7.667 0.283
44.2681 7.688 0.283
44.2886 8.083 0.290
44.3090 8.031 0.289
44.3295 7.958 0.288
44.3500 7.615 0.282
44.3704 8.219 0.293
44.3909 8.260 0.293
44.4114 7.823 0.285
44.4318 7.896 0.287
44.4523 7.646 0.282
44.4727 7.385 0.277
44.4932 7.635 0.282
44.5137 7.729 0.284
44.5341 7.063 0.271
44.5546 7.510 0.280
44.5751 7.271 0.275
44.5955 7.094 0.272
44.6160 7.344 0.277
44.6364 7.208 0.274
44.6569 7.771 0.285
44.6774 7.260 0.275
44.6978 7.458 0.279
44.7183 7.677 0.283
44.7388 7.698 0.283
44.7592 7.573 0.281
44.7797 7.698 0.283
44.8001 7.292 0.276
44.8206 7.240 0.275
44.8411 7.396 0.278
44.8615 7.333 0.276
44.8820 8.063 0.290
44.9025 7.583 0.281
44.9229 7.313 0.276
44.9434 7.219 0.274
44.9639 7.240 0.275
44.9843 7.448 0.279
45.0048 7.677 0.283
45.0252 8.240 0.293
45.0457 7.427 0.278
45.0662 8.083 0.290
45.0866 8.240 0.293
45.1071 8.094 0.290
45.1276 8.271 0.294
45.1480 8.438 0.296
45.1685 9.438 0.314
45.1889 9.323 0.312
45.2094 10.115 0.325
45.2299 10.760 0.335
45.2503 10.729 0.334
45.2708 10.563 0.332
45.2913 9.833 0.320
45.3117 9.073 0.307
45.3322 9.490 0.314
45.3526 9.563 0.316
45.3731 9.240 0.310
45.3936 8.823 0.303
45.4140 8.500 0.298
45.4345 7.719 0.284
45.4550 7.573 0.281
45.4754 7.427 0.278
45.4959 7.125 0.272
45.5163 7.427 0.278
45.5368 7.365 0.277
45.5573 7.010 0.270
45.5777 7.073 0.271
45.5982 7.042 0.271
45.6187 6.969 0.269
45.6391 6.896 0.268
45.6596 6.771 0.266
45.6800 7.125 0.272
45.7005 6.958 0.269
45.7210 7.104 0.272
45.7414 6.396 0.258
45.7619 6.438 0.259
45.7824 6.771 0.266
45.8028 6.500 0.260
45.8233 6.344 0.257
45.8438 6.604 0.262
45.8642 6.365 0.257
45.8847 6.750 0.265
45.9051 6.104 0.252
45.9256 6.708 0.264
45.9461 6.552 0.261
45.9665 6.469 0.260
45.9870 6.510 0.260
46.0075 6.365 0.257
46.0279 6.667 0.264
46.0484 6.146 0.253
46.0688 6.469 0.260
46.0893 6.365 0.257
46.1098 5.979 0.250
46.1302 6.438 0.259
46.1507 6.417 0.259
46.1712 6.865 0.267
46.1916 6.323 0.257
46.2121 5.781 0.245
46.2325 6.354 0.257
46.2530 6.313 0.256
46.2735 6.302 0.256
46.2939 6.406 0.258
46.3144 6.073 0.252
46.3349 6.167 0.253
46.3553 5.875 0.247
46.3758 5.917 0.248
46.3962 6.521 0.261
46.4167 5.854 0.247
46.4372 5.740 0.245
46.4576 6.281 0.256
46.4781 6.229 0.255
46.4986 6.177 0.254
46.5190 5.813 0.246
46.5395 5.969 0.249
46.5600 6.146 0.253
46.5804 6.563 0.261
46.6009 6.313 0.256
46.6213 6.615 0.262
46.6418 6.344 0.257
46.6623 6.073 0.252
46.6827 6.229 0.255
46.7032 6.813 0.266
46.7237 6.115 0.252
46.7441 6.344 0.257
46.7646 5.885 0.248
46.7850 6.208 0.254
46.8055 6.000 0.250
46.8260 5.656 0.243
46.8464 5.969 0.249
46.8669 6.073 0.252
46.8874 5.885 0.248
46.9078 6.240 0.255
46.9283 6.208 0.254
46.9487 6.479 0.260
46.9692 6.448 0.259
46.9897 6.052 0.251
47.0101 6.542 0.261
47.0306 6.438 0.259
47.0511 6.177 0.254
47.0715 6.052 0.251
47.0920 6.667 0.264
47.1124 6.396 0.258
47.1329 6.208 0.254
47.1534 6.479 0.260
47.1738 6.302 0.256
47.1943 6.531 0.261
47.2148 6.510 0.260
47.2352 6.531 0.261
47.2557 6.521 0.261
47.2761 6.740 0.265
47.2966 6.177 0.254
47.3171 6.594 0.262
47.3375 6.406 0.258
47.3580 6.802 0.266
47.3785 7.198 0.274
47.3989 6.813 0.266
47.4194 7.604 0.281
47.4399 7.135 0.273
47.4603 6.844 0.267
47.4808 7.417 0.278
47.5012 7.583 0.281
47.5217 7.667 0.283
47.5422 8.229 0.293
47.5626 8.948 0.305
47.5831 9.385 0.313
47.6036 10.104 0.324
47.6240 10.031 0.323
47.6445 9.719 0.318
47.6649 9.094 0.308
47.6854 9.094 0.308
47.7059 8.281 0.294
47.7263 8.427 0.296
47.7468 8.198 0.292
47.7673 8.177 0.292
47.7877 7.635 0.282
47.8082 7.458 0.279
47.8286 6.844 0.267
47.8491 6.667 0.264
47.8696 6.615 0.262
47.8900 7.083 0.272
47.9105 6.396 0.258
47.9310 6.833 0.267
47.9514 5.917 0.248
47.9719 5.885 0.248
47.9923 6.292 0.256
48.0128 6.188 0.254
48.0333 6.281 0.256
48.0537 6.094 0.252
48.0742 6.823 0.267
48.0947 6.271 0.256
48.1151 6.250 0.255
48.1356 6.188 0.254
48.1560 6.396 0.258
48.1765 6.625 0.263
48.1970 7.104 0.272
48.2174 6.844 0.267
48.2379 7.146 0.273
48.2584 7.688 0.283
48.2788 7.792 0.285
48.2993 8.667 0.300
48.3198 8.240 0.293
48.3402 8.188 0.292
48.3607 8.552 0.298
48.3811 8.198 0.292
48.4016 7.625 0.282
48.4221 7.854 0.286
48.4425 8.052 0.290
48.4630 7.083 0.272
48.4835 7.104 0.272
48.5039 7.198 0.274
48.5244 6.552 0.261
48.5448 7.042 0.271
48.5653 6.656 0.263
48.5858 7.719 0.284
48.6062 7.281 0.275
48.6267 7.031 0.271
48.6472 7.760 0.284
48.6676 7.698 0.283
48.6881 8.031 0.289
48.7085 7.719 0.284
48.7290 7.750 0.284
48.7495 7.688 0.283
48.7699 7.500 0.280
48.7904 6.792 0.266
48.8109 7.510 0.280
48.8313 7.125 0.272
48.8518 7.135 0.273
48.8722 7.323 0.276
48.8927 6.479 0.260
48.9132 6.677 0.264
48.9336 6.792 0.266
48.9541 6.542 0.261
48.9746 6.260 0.255
48.9950 6.333 0.257
49.0155 5.948 0.249
49.0359 6.125 0.253
49.0564 6.323 0.257
49.0769 6.125 0.253
49.0973 6.271 0.256
49.1178 5.833 0.247
49.1383 5.865 0.247
49.1587 6.135 0.253
49.1792 5.917 0.248
49.1997 6.156 0.253
49.2201 6.219 0.255
49.2406 6.333 0.257
49.2610 5.781 0.245
49.2815 6.240 0.255
49.3020 6.021 0.250
49.3224 6.531 0.261
49.3429 6.135 0.253
49.3634 6.333 0.257
49.3838 6.427 0.259
49.4043 6.448 0.259
49.4247 6.625 0.263
49.4452 6.302 0.256
49.4657 6.625 0.263
49.4861 6.542 0.261
49.5066 6.563 0.261
49.5271 6.958 0.269
49.5475 6.844 0.267
49.5680 7.427 0.278
49.5884 7.104 0.272
49.6089 7.458 0.279
49.6294 7.833 0.286
49.6498 7.979 0.288
49.6703 7.781 0.285
49.6908 8.229 0.293
49.7112 8.969 0.306
49.7317 9.156 0.309
49.7521 9.583 0.316
49.7726 11.271 0.343
49.7931 11.698 0.349
49.8135 13.344 0.373
49.8340 14.083 0.383
49.8545 15.000 0.395
49.8749 14.271 0.386
49.8954 12.750 0.364
49.9158 13.313 0.372
49.9363 12.365 0.359
49.9568 13.260 0.372
49.9772 12.104 0.355
49.9977 11.250 0.342
50.0182 10.656 0.333
50.0386 10.354 0.328
50.0591 9.198 0.310
50.0796 9.760 0.319
50.1000 9.344 0.312
50.1205 9.073 0.307
50.1409 10.031 0.323
50.1614 9.500 0.315
50.1819 9.208 0.310
50.2023 9.510 0.315
50.2228 9.958 0.322
50.2433 8.802 0.303
50.2637 8.448 0.297
50.2842 8.479 0.297
50.3046 7.844 0.286
50.3251 8.313 0.294
50.3456 8.240 0.293
50.3660 7.552 0.280
50.3865 7.125 0.272
50.4070 6.698 0.264
50.4274 6.698 0.264
50.4479 6.740 0.265
50.4683 6.802 0.266
50.4888 6.365 0.257
50.5093 6.448 0.259
50.5297 6.031 0.251
50.5502 6.896 0.268
50.5707 6.698 0.264
50.5911 6.385 0.258
50.6116 6.646 0.263
50.6320 7.073 0.271
50.6525 6.448 0.259
50.6730 5.865 0.247
50.6934 6.563 0.261
50.7139 6.510 0.260
50.7344 5.865 0.247
50.7548 6.250 0.255
50.7753 6.313 0.256
50.7958 6.427 0.259
50.8162 6.125 0.253
50.8367 5.833 0.247
50.8571 6.333 0.257
50.8776 6.490 0.260
50.8981 6.510 0.260
50.9185 6.281 0.256
50.9390 6.604 0.262
50.9595 6.646 0.263
50.9799 6.604 0.262
51.0004 6.115 0.252
51.0208 7.104 0.272
51.0413 6.698 0.264
51.0618 6.010 0.250
51.0822 6.438 0.259
51.1027 6.510 0.260
51.1232 6.677 0.264
51.1436 6.469 0.260
51.1641 6.104 0.252
51.1845 6.177 0.254
51.2050 6.333 0.257
51.2255 6.729 0.265
51.2459 6.490 0.260
51.2664 6.479 0.260
51.2869 7.125 0.272
51.3073 6.979 0.270
51.3278 6.656 0.263
51.3482 6.125 0.253
51.3687 6.604 0.262
51.3892 6.698 0.264
51.4096 6.417 0.259
51.4301 6.344 0.257
51.4506 5.958 0.249
51.4710 5.792 0.246
51.4915 6.302 0.256
51.5119 6.396 0.258
51.5324 5.813 0.246
51.5529 6.198 0.254
51.5733 6.198 0.254
51.5938 6.667 0.264
51.6143 6.729 0.265
51.6347 6.542 0.261
51.6552 6.479 0.260
51.6757 6.885 0.268
51.6961 6.615 0.262
51.7166 7.156 0.273
51.7370 6.531 0.261
51.7575 6.656 0.263
51.7780 6.229 0.255
51.7984 6.563 0.261
51.8189 5.969 0.249
51.8394 6.021 0.250
51.8598 6.115 0.252
51.8803 5.885 0.248
51.9007 6.052 0.251
51.9212 5.510 0.240
51.9417 5.625 0.242
51.9621 5.323 0.235
51.9826 5.448 0.238
52.0031 5.208 0.233
52.0235 5.594 0.241
52.0440 5.198 0.233
52.0644 5.240 0.234
52.0849 5.177 0.232
52.1054 5.094 0.230
52.1258 4.792 0.223
52.1463 5.260 0.234
52.1668 5.083 0.230
52.1872 5.198 0.233
52.2077 5.354 0.236
52.2281 5.646 0.243
52.2486 5.385 0.237
52.2691 5.396 0.237
52.2895 5.521 0.240
52.3100 5.594 0.241
52.3305 5.250 0.234
52.3509 5.229 0.233
52.3714 5.479 0.239
52.3918 5.354 0.236
52.4123 5.219 0.233
52.4328 5.771 0.245
52.4532 5.292 0.235
52.4737 5.427 0.238
52.4942 5.458 0.238
52.5146 5.146 0.232
52.5351 5.417 0.238
52.5556 5.844 0.247
52.5760 5.156 0.232
52.5965 5.094 0.230
52.6169 5.177 0.232
52.6374 5.760 0.245
52.6579 5.063 0.230
52.6783 5.198 0.233
52.6988 4.927 0.227
52.7193 4.750 0.222
52.7397 5.208 0.233
52.7602 5.052 0.229
52.7806 5.490 0.239
52.8011 5.198 0.233
52.8216 5.615 0.242
52.8420 5.031 0.229
52.8625 4.854 0.225
52.8830 5.635 0.242
52.9034 5.240 0.234
52.9239 5.604 0.242
52.9443 5.083 0.230
52.9648 5.583 0.241
52.9853 5.521 0.240
53.0057 5.406 0.237
53.0262 5.771 0.245
53.0467 5.615 0.242
53.0671 5.781 0.245
53.0876 5.760 0.245
53.1080 5.833 0.247
53.1285 6.000 0.250
53.1490 5.688 0.243
53.1694 6.031 0.251
53.1899 5.417 0.238
53.2104 5.635 0.242
53.2308 5.302 0.235
53.2513 5.271 0.234
53.2717 5.396 0.237
53.2922 5.271 0.234
53.3127 5.823 0.246
53.3331 5.156 0.232
53.3536 5.698 0.244
53.3741 5.375 0.237
53.3945 5.042 0.229
53.4150 5.083 0.230
53.4355 5.167 0.232
53.4559 4.500 0.217
53.4764 5.135 0.231
53.4968 4.771 0.223
53.5173 4.927 0.227
53.5378 4.479 0.216
53.5582 5.010 0.228
53.5787 4.698 0.221
53.5992 4.635 0.220
53.6196 4.677 0.221
53.6401 4.542 0.218
53.6605 4.177 0.209
53.6810 5.146 0.232
53.7015 4.781 0.223
53.7219 4.667 0.220
53.7424 4.885 0.226
53.7629 4.708 0.221
53.7833 4.896 0.226
53.8038 5.104 0.231
53.8242 5.052 0.229
53.8447 4.813 0.224
53.8652 4.823 0.224
53.8856 4.854 0.225
53.9061 4.708 0.221
53.9266 4.813 0.224
53.9470 5.115 0.231
53.9675 4.688 0.221
53.9879 4.719 0.222
54.0084 4.979 0.228
54.0289 5.271 0.234
54.0493 4.958 0.227
54.0698 5.052 0.229
54.0903 5.042 0.229
54.1107 5.292 0.235
54.1312 5.344 0.236
54.1516 5.625 0.242
54.1721 5.073 0.230
54.1926 5.406 0.237
54.2130 5.167 0.232
54.2335 4.927 0.227
54.2540 5.365 0.236
54.2744 4.958 0.227
54.2949 5.135 0.231
54.3154 5.219 0.233
54.3358 4.656 0.220
54.3563 5.010 0.228
54.3767 4.635 0.220
54.3972 5.146 0.232
54.4177 5.094 0.230
54.4381 5.083 0.230
54.4586 4.729 0.222
54.4791 4.583 0.219
54.4995 4.958 0.227
54.5200 4.896 0.226
54.5404 4.948 0.227
54.5609 5.188 0.232
54.5814 4.969 0.228
54.6018 4.844 0.225
54.6223 4.875 0.225
54.6428 4.781 0.223
54.6632 4.698 0.221
54.6837 4.708 0.221
54.7041 4.792 0.223
54.7246 4.885 0.226
54.7451 4.354 0.213
54.7655 4.969 0.228
54.7860 4.958 0.227
54.8065 4.635 0.220
54.8269 4.719 0.222
54.8474 4.854 0.225
54.8678 5.604 0.242
54.8883 4.885 0.226
54.9088 5.740 0.245
54.9292 5.510 0.240
54.9497 5.781 0.245
54.9702 6.271 0.256
54.9906 6.688 0.264
55.0111 7.469 0.279
55.0316 7.375 0.277
55.0520 8.510 0.298
55.0725 9.656 0.317
55.0929 11.115 0.340
55.1134 12.917 0.367
55.1339 15.427 0.401
55.1543 16.885 0.419
55.1748 16.698 0.417
55.1953 15.906 0.407
55.2157 13.813 0.379
55.2362 13.240 0.371
55.2566 12.979 0.368
55.2771 12.990 0.368
55.2976 12.760 0.365
55.3180 13.052 0.369
55.3385 12.563 0.362
55.3590 10.771 0.335
55.3794 10.000 0.323
55.3999 8.948 0.305
55.4203 8.552 0.298
55.4408 7.656 0.282
55.4613 7.333 0.276
55.4817 6.354 0.257
55.5022 7.000 0.270
55.5227 6.344 0.257
55.5431 6.469 0.260
55.5636 6.188 0.254
55.5840 6.271 0.256
55.6045 6.521 0.261
55.6250 6.208 0.254
55.6454 5.979 0.250
55.6659 5.917 0.248
55.6864 6.031 0.251
55.7068 6.708 0.264
55.7273 6.250 0.255
55.7477 6.427 0.259
55.7682 6.448 0.259
55.7887 6.573 0.262
55.8091 7.052 0.271
55.8296 7.281 0.275
55.8501 6.729 0.265
55.8705 7.521 0.280
55.8910 7.406 0.278
55.9115 7.042 0.271
55.9319 6.792 0.266
55.9524 7.583 0.281
55.9728 6.885 0.268
55.9933 7.333 0.276
56.0138 6.938 0.269
56.0342 8.063 0.290
56.0547 8.135 0.291
56.0752 8.042 0.289
56.0956 8.865 0.304
56.1161 9.427 0.313
56.1365 9.969 0.322
56.1570 10.354 0.328
56.1775 11.208 0.342
56.1979 11.417 0.345
56.2184 10.385 0.329
56.2389 9.229 0.310
56.2593 8.573 0.299
56.2798 8.542 0.298
56.3002 8.667 0.300
56.3207 8.729 0.302
56.3412 8.542 0.298
56.3616 7.698 0.283
56.3821 7.406 0.278
56.4026 6.135 0.253
56.4230 6.438 0.259
56.4435 6.000 0.250
56.4639 5.865 0.247
56.4844 5.490 0.239
56.5049 5.083 0.230
56.5253 4.875 0.225
56.5458 5.000 0.228
56.5663 5.094 0.230
56.5867 4.865 0.225
56.6072 4.948 0.227
56.6276 4.792 0.223
56.6481 4.667 0.220
56.6686 4.604 0.219
56.6890 4.740 0.222
56.7095 4.604 0.219
56.7300 4.458 0.216
56.7504 4.740 0.222
56.7709 4.458 0.216
56.7914 4.542 0.218
56.8118 4.490 0.216
56.8323 4.510 0.217
56.8527 4.604 0.219
56.8732 4.167 0.208
56.8937 4.438 0.215
56.9141 4.792 0.223
56.9346 4.646 0.220
56.9551 4.906 0.226
56.9755 4.531 0.217
56.9960 4.781 0.223
57.0164 4.719 0.222
57.0369 4.792 0.223
57.0574 4.531 0.217
57.0778 4.677 0.221
57.0983 4.438 0.215
57.1188 4.729 0.222
57.1392 4.781 0.223
57.1597 4.802 0.224
57.1801 4.333 0.212
57.2006 4.635 0.220
57.2211 4.542 0.218
57.2415 4.938 0.227
57.2620 4.760 0.223
57.2825 4.563 0.218
57.3029 4.781 0.223
57.3234 5.188 0.232
57.3438 5.292 0.235
57.3643 4.885 0.226
57.3848 5.177 0.232
57.4052 5.167 0.232
57.4257 4.479 0.216
57.4462 4.615 0.219
57.4666 4.573 0.218
57.4871 5.250 0.234
57.5075 5.052 0.229
57.5280 4.979 0.228
57.5485 5.010 0.228
57.5689 5.354 0.236
57.5894 4.729 0.222
57.6099 5.104 0.231
57.6303 4.875 0.225
57.6508 5.323 0.235
57.6713 5.458 0.238
57.6917 5.177 0.232
57.7122 5.438 0.238
57.7326 5.521 0.240
57.7531 5.406 0.237
57.7736 5.417 0.238
57.7940 5.781 0.245
57.8145 6.271 0.256
57.8350 6.125 0.253
57.8554 6.500 0.260
57.8759 7.073 0.271
57.8963 6.875 0.268
57.9168 7.406 0.278
57.9373 7.292 0.276
57.9577 6.896 0.268
57.9782 7.083 0.272
57.9987 6.771 0.266
58.0191 6.813 0.266
58.0396 6.458 0.259
58.0600 6.323 0.257
58.0805 6.448 0.259
58.1010 6.354 0.257
58.1214 6.229 0.255
58.1419 6.344 0.257
58.1624 5.771 0.245
58.1828 5.677 0.243
58.2033 5.281 0.235
58.2237 4.906 0.226
58.2442 5.000 0.228
58.2647 5.375 0.237
58.2851 5.594 0.241
58.3056 4.698 0.221
58.3261 5.000 0.228
58.3465 4.906 0.226
58.3670 4.979 0.228
58.3874 5.000 0.228
58.4079 4.885 0.226
58.4284 5.156 0.232
58.4488 5.146 0.232
58.4693 4.896 0.226
58.4898 5.198 0.233
58.5102 5.083 0.230
58.5307 4.750 0.222
58.5512 5.542 0.240
58.5716 5.031 0.229
58.5921 4.938 0.227
58.6125 4.802 0.224
58.6330 5.000 0.228
58.6535 5.135 0.231
58.6739 4.740 0.222
58.6944 4.875 0.225
58.7149 5.073 0.230
58.7353 4.969 0.228
58.7558 4.531 0.217
58.7762 4.479 0.216
58.7967 4.490 0.216
58.8172 4.958 0.227
58.8376 4.844 0.225
58.8581 4.750 0.222
58.8786 5.344 0.236
58.8990 4.875 0.225
58.9195 4.958 0.227
58.9399 4.948 0.227
58.9604 5.604 0.242
58.9809 5.146 0.232
59.0013 5.146 0.232
59.0218 5.052 0.229
59.0423 5.781 0.245
59.0627 5.063 0.230
59.0832 6.052 0.251
59.1036 5.865 0.247
59.1241 6.365 0.257
59.1446 6.729 0.265
59.1650 7.229 0.274
59.1855 6.938 0.269
59.2060 7.552 0.280
59.2264 7.094 0.272
59.2469 6.823 0.267
59.2674 6.844 0.267
59.2878 5.875 0.247
59.3083 6.188 0.254
59.3287 6.073 0.252
59.3492 5.927 0.248
59.3697 5.979 0.250
59.3901 5.552 0.240
59.4106 5.573 0.241
59.4311 5.479 0.239
59.4515 5.073 0.230
59.4720 4.833 0.224
59.4924 4.708 0.221
59.5129 4.531 0.217
59.5334 5.052 0.229
59.5538 4.417 0.214
59.5743 4.417 0.214
59.5948 5.000 0.228
59.6152 4.354 0.213
59.6357 4.885 0.226
59.6561 4.563 0.218
59.6766 4.688 0.221
59.6971 4.521 0.217
59.7175 4.906 0.226
59.7380 5.198 0.233
59.7585 5.042 0.229
59.7789 5.333 0.236
59.7994 5.625 0.242
59.8198 6.042 0.251
59.8403 6.667 0.264
59.8608 6.229 0.255
59.8812 6.615 0.262
59.9017 6.417 0.259
59.9222 6.125 0.253
59.9426 6.688 0.264
59.9631 5.990 0.250
59.9835 5.490 0.239
60.0040 5.573 0.241
60.0245 6.000 0.250
60.0449 5.385 0.237
60.0654 5.438 0.238
60.0859 5.438 0.238
60.1063 4.854 0.225
60.1268 4.563 0.218
60.1473 5.021 0.229
60.1677 4.344 0.213
60.1882 4.344 0.213
60.2086 4.490 0.216
60.2291 4.552 0.218
60.2496 4.156 0.208
60.2700 4.344 0.213
60.2905 4.344 0.213
60.3110 4.042 0.205
60.3314 4.594 0.219
60.3519 4.188 0.209
60.3723 4.052 0.205
60.3928 4.167 0.208
60.4133 3.729 0.197
60.4337 4.406 0.214
60.4542 4.125 0.207
60.4747 4.385 0.214
60.4951 4.292 0.211
60.5156 4.146 0.208
60.5360 3.969 0.203
60.5565 3.938 0.203
60.5770 4.167 0.208
60.5974 4.042 0.205
60.6179 3.833 0.200
60.6384 3.854 0.200
60.6588 4.208 0.209
60.6793 4.156 0.208
60.6997 4.208 0.209
60.7202 4.021 0.205
60.7407 4.250 0.210
60.7611 3.729 0.197
60.7816 4.219 0.210
60.8021 3.750 0.198
60.8225 3.688 0.196
60.8430 4.458 0.216
60.8634 3.771 0.198
60.8839 3.927 0.202
60.9044 3.833 0.200
60.9248 4.094 0.207
60.9453 4.104 0.207
60.9658 3.917 0.202
60.9862 4.115 0.207
61.0067 4.177 0.209
61.0272 4.177 0.209
61.0476 3.594 0.193
61.0681 4.010 0.204
61.0885 3.906 0.202
61.1090 3.844 0.200
61.1295 3.990 0.204
61.1499 3.833 0.200
61.1704 3.906 0.202
61.1909 4.000 0.204
61.2113 3.740 0.197
61.2318 3.917 0.202
61.2522 3.583 0.193
61.2727 3.906 0.202
61.2932 4.031 0.205
61.3136 3.969 0.203
61.3341 3.990 0.204
61.3546 3.729 0.197
61.3750 3.656 0.195
61.3955 3.708 0.197
61.4159 3.729 0.197
61.4364 3.927 0.202
61.4569 3.896 0.201
61.4773 3.719 0.197
61.4978 4.177 0.209
61.5183 3.552 0.192
61.5387 3.906 0.202
61.5592 3.792 0.199
61.5796 3.958 0.203
61.6001 3.833 0.200
61.6206 4.000 0.204
61.6410 3.802 0.199
61.6615 3.615 0.194
61.6820 3.563 0.193
61.7024 3.719 0.197
61.7229 4.000 0.204
61.7433 3.729 0.197
61.7638 4.104 0.207
61.7843 3.990 0.204
61.8047 3.875 0.201
61.8252 4.094 0.207
61.8457 3.677 0.196
61.8661 3.740 0.197
61.8866 4.385 0.214
61.9071 3.688 0.196
61.9275 3.698 0.196
61.9480 3.771 0.198
61.9684 4.250 0.210
61.9889 4.208 0.209
62.0094 3.719 0.197
62.0298 3.938 0.203
62.0503 4.917 0.226
62.0708 4.250 0.210
62.0912 4.563 0.218
62.1117 4.771 0.223
62.1321 4.781 0.223
62.1526 4.635 0.220
62.1731 4.844 0.225
62.1935 4.615 0.219
62.2140 4.500 0.217
62.2345 4.417 0.214
62.2549 4.365 0.213
62.2754 4.385 0.214
62.2958 4.177 0.209
62.3163 4.115 0.207
62.3368 4.208 0.209
62.3572 4.313 0.212
62.3777 4.396 0.214
62.3982 4.250 0.210
62.4186 3.667 0.195
62.4391 3.479 0.190
62.4595 3.792 0.199
62.4800 3.563 0.193
62.5005 3.542 0.192
62.5209 3.531 0.192
62.5414 3.625 0.194
62.5619 3.583 0.193
62.5823 3.740 0.197
62.6028 3.594 0.193
62.6232 3.542 0.192
62.6437 3.469 0.190
62.6642 3.656 0.195
62.6846 3.865 0.201
62.7051 3.844 0.200
62.7256 3.750 0.198
62.7460 3.688 0.196
62.7665 3.646 0.195
62.7870 3.531 0.192
62.8074 3.896 0.201
62.8279 3.792 0.199
62.8483 3.771 0.198
62.8688 3.917 0.202
62.8893 3.510 0.191
62.9097 3.646 0.195
62.9302 3.927 0.202
62.9507 3.990 0.204
62.9711 3.750 0.198
62.9916 3.563 0.193
63.0120 3.646 0.195
63.0325 3.771 0.198
63.0530 3.979 0.204
63.0734 3.552 0.192
63.0939 3.719 0.197
63.1144 3.563 0.193
63.1348 4.115 0.207
63.1553 3.490 0.191
63.1757 4.000 0.204
63.1962 3.552 0.192
63.2167 3.667 0.195
63.2371 3.740 0.197
63.2576 3.771 0.198
63.2781 3.760 0.198
63.2985 3.781 0.198
63.3190 4.250 0.210
63.3394 4.083 0.206
63.3599 3.552 0.192
63.3804 3.958 0.203
63.4008 4.063 0.206
63.4213 4.042 0.205
63.4418 4.406 0.214
63.4622 3.865 0.201
63.4827 4.458 0.216
63.5032 3.792 0.199
63.5236 4.010 0.204
63.5441 3.875 0.201
63.5645 3.948 0.203
63.5850 4.219 0.210
63.6055 4.542 0.218
63.6259 4.271 0.211
63.6464 4.292 0.211
63.6669 4.271 0.211
63.6873 4.365 0.213
63.7078 4.531 0.217
63.7282 4.792 0.223
63.7487 4.635 0.220
63.7692 5.135 0.231
63.7896 4.583 0.219
63.8101 4.625 0.219
63.8306 5.010 0.228
63.8510 4.823 0.224
63.8715 4.823 0.224
63.8919 4.656 0.220
63.9124 5.042 0.229
63.9329 5.031 0.229
63.9533 4.375 0.213
63.9738 4.573 0.218
63.9943 4.865 0.225
64.0147 4.979 0.228
64.0352 5.208 0.233
64.0556 5.042 0.229
64.0761 4.854 0.225
64.0966 4.469 0.216
64.1170 4.615 0.219
64.1375 4.865 0.225
64.1580 4.302 0.212
64.1784 4.490 0.216
64.1989 4.833 0.224
64.2193 4.656 0.220
64.2398 4.906 0.226
64.2603 4.479 0.216
64.2807 5.010 0.228
64.3012 4.479 0.216
64.3217 4.865 0.225
64.3421 4.698 0.221
64.3626 4.438 0.215
64.3831 4.719 0.222
64.4035 5.146 0.232
64.4240 4.729 0.222
64.4444 4.802 0.224
64.4649 5.229 0.233
64.4854 5.385 0.237
64.5058 5.740 0.245
64.5263 6.115 0.252
64.5468 6.344 0.257
64.5672 6.823 0.267
64.5877 7.260 0.275
64.6081 7.667 0.283
64.6286 7.688 0.283
64.6491 8.146 0.291
64.6695 7.771 0.285
64.6900 7.375 0.277
64.7105 6.958 0.269
64.7309 6.542 0.261
64.7514 6.542 0.261
64.7718 6.271 0.256
64.7923 6.333 0.257
64.8128 6.760 0.265
64.8332 6.646 0.263
64.8537 5.990 0.250
64.8742 5.719 0.244
64.8946 5.802 0.246
64.9151 5.333 0.236
64.9355 5.198 0.233
64.9560 4.708 0.221
64.9765 4.417 0.214
64.9969 4.823 0.224
65.0174 4.531 0.217
65.0379 4.625 0.219
65.0583 4.594 0.219
65.0788 4.135 0.208
65.0992 4.344 0.213
65.1197 4.240 0.210
65.1402 4.083 0.206
65.1606 4.219 0.210
65.1811 4.125 0.207
65.2016 4.208 0.209
65.2220 4.365 0.213
65.2425 4.021 0.205
65.2630 4.104 0.207
65.2834 4.281 0.211
65.3039 4.365 0.213
65.3243 4.198 0.209
65.3448 4.448 0.215
65.3653 3.896 0.201
65.3857 4.281 0.211
65.4062 4.375 0.213
65.4267 4.240 0.210
65.4471 4.771 0.223
65.4676 4.635 0.220
65.4880 5.094 0.230
65.5085 4.906 0.226
65.5290 4.792 0.223
65.5494 5.188 0.232
65.5699 4.896 0.226
65.5904 4.948 0.227
65.6108 5.240 0.234
65.6313 5.094 0.230
65.6517 4.396 0.214
65.6722 4.583 0.219
65.6927 4.552 0.218
65.7131 4.708 0.221
65.7336 4.615 0.219
65.7541 4.292 0.211
65.7745 4.198 0.209
65.7950 4.302 0.212
65.8154 4.510 0.217
65.8359 4.229 0.210
65.8564 4.073 0.206
65.8768 3.927 0.202
65.8973 3.771 0.198
65.9178 3.740 0.197
65.9382 4.063 0.206
65.9587 3.740 0.197
65.9791 3.750 0.198
65.9996 3.990 0.204
66.0201 3.823 0.200
66.0405 3.604 0.194
66.0610 3.708 0.197
66.0815 3.604 0.194
66.1019 3.865 0.201
66.1224 4.260 0.211
66.1429 3.979 0.204
66.1633 3.844 0.200
66.1838 3.958 0.203
66.2042 3.750 0.198
66.2247 3.677 0.196
66.2452 3.802 0.199
66.2656 3.948 0.203
66.2861 3.479 0.190
66.3066 3.667 0.195
66.3270 3.719 0.197
66.3475 3.677 0.196
66.3679 3.479 0.190
66.3884 3.688 0.196
66.4089 3.740 0.197
66.4293 3.542 0.192
66.4498 3.573 0.193
66.4703 3.479 0.190
66.4907 3.885 0.201
66.5112 3.719 0.197
66.5316 3.573 0.193
66.5521 3.365 0.187
66.5726 3.677 0.196
66.5930 3.760 0.198
66.6135 4.333 0.212
66.6340 3.844 0.200
66.6544 3.729 0.197
66.6749 4.021 0.205
66.6953 3.813 0.199
66.7158 3.854 0.200
66.7363 3.708 0.197
66.7567 4.000 0.204
66.7772 3.542 0.192
66.7977 3.969 0.203
66.8181 4.271 0.211
66.8386 4.115 0.207
66.8590 3.760 0.198
66.8795 4.365 0.213
66.9000 3.750 0.198
66.9204 4.083 0.206
66.9409 4.542 0.218
66.9614 4.792 0.223
66.9818 4.146 0.208
67.0023 4.438 0.215
67.0228 4.719 0.222
67.0432 5.490 0.239
67.0637 5.552 0.240
67.0841 5.427 0.238
67.1046 5.990 0.250
67.1251 6.354 0.257
67.1455 6.708 0.264
67.1660 7.031 0.271
67.1865 6.573 0.262
67.2069 7.052 0.271
67.2274 6.625 0.263
67.2478 5.948 0.249
67.2683 6.125 0.253
67.2888 5.625 0.242
67.3092 6.073 0.252
67.3297 6.198 0.254
67.3502 6.115 0.252
67.3706 5.781 0.245
67.3911 5.260 0.234
67.4115 5.427 0.238
67.4320 5.104 0.231
67.4525 5.073 0.230
67.4729 4.635 0.220
67.4934 4.594 0.219
67.5139 4.094 0.207
67.5343 4.188 0.209
67.5548 4.635 0.220
67.5752 4.573 0.218
67.5957 4.167 0.208
67.6162 4.135 0.208
67.6366 4.313 0.212
67.6571 4.385 0.214
67.6776 4.573 0.218
67.6980 4.729 0.222
67.7185 4.729 0.222
67.7389 4.281 0.211
67.7594 4.552 0.218
67.7799 4.438 0.215
67.8003 4.167 0.208
67.8208 4.135 0.208
67.8413 4.073 0.206
67.8617 4.260 0.211
67.8822 3.823 0.200
67.9027 4.573 0.218
67.9231 4.313 0.212
67.9436 3.875 0.201
67.9640 4.552 0.218
67.9845 4.063 0.206
68.0050 4.177 0.209
68.0254 4.177 0.209
68.0459 4.229 0.210
68.0664 4.021 0.205
68.0868 4.188 0.209
68.1073 4.240 0.210
68.1277 4.031 0.205
68.1482 4.635 0.220
68.1687 3.844 0.200
68.1891 4.583 0.219
68.2096 4.865 0.225
68.2301 4.250 0.210
68.2505 4.667 0.220
68.2710 4.865 0.225
68.2914 5.063 0.230
68.3119 5.219 0.233
68.3324 5.344 0.236
68.3528 5.135 0.231
68.3733 4.740 0.222
68.3938 4.865 0.225
68.4142 4.458 0.216
68.4347 4.740 0.222
68.4551 4.781 0.223
68.4756 4.219 0.210
68.4961 4.375 0.213
68.5165 4.521 0.217
68.5370 4.552 0.218
68.5575 3.990 0.204
68.5779 4.083 0.206
68.5984 3.740 0.197
68.6189 3.823 0.200
68.6393 3.813 0.199
68.6598 3.833 0.200
68.6802 3.531 0.192
68.7007 3.552 0.192
68.7212 3.208 0.183
68.7416 3.688 0.196
68.7621 3.750 0.198
68.7826 3.760 0.198
68.8030 3.688 0.196
68.8235 3.500 0.191
68.8439 3.646 0.195
68.8644 3.750 0.198
68.8849 3.667 0.195
68.9053 3.833 0.200
68.9258 4.104 0.207
68.9463 3.792 0.199
68.9667 4.260 0.211
68.9872 4.063 0.206
69.0076 4.438 0.215
69.0281 4.698 0.221
69.0486 4.115 0.207
69.0690 4.271 0.211
69.0895 4.240 0.210
69.1100 4.344 0.213
69.1304 4.385 0.214
69.1509 4.083 0.206
69.1713 4.083 0.206
69.1918 4.479 0.216
69.2123 4.865 0.225
69.2327 4.781 0.223
69.2532 4.583 0.219
69.2737 4.156 0.208
69.2941 4.719 0.222
69.3146 4.188 0.209
69.3350 3.958 0.203
69.3555 4.094 0.207
69.3760 3.813 0.199
69.3964 3.927 0.202
69.4169 3.823 0.200
69.4374 3.979 0.204
69.4578 3.938 0.203
69.4783 3.854 0.200
69.4988 3.740 0.197
69.5192 3.563 0.193
69.5397 3.052 0.178
69.5601 3.240 0.184
69.5806 3.229 0.183
69.6011 3.281 0.185
69.6215 3.156 0.181
69.6420 3.052 0.178
69.6625 3.344 0.187
69.6829 3.229 0.183
69.7034 3.188 0.182
69.7238 2.833 0.172
69.7443 3.156 0.181
69.7648 3.313 0.186
69.7852 3.292 0.185
69.8057 3.167 0.182
69.8262 3.115 0.180
69.8466 3.354 0.187
69.8671 3.229 0.183
69.8875 3.188 0.182
69.9080 3.313 0.186
69.9285 2.875 0.173
69.9489 3.156 0.181
69.9694 3.073 0.179
69.9899 3.135 0.181
70.0103 3.219 0.183
70.0308 3.563 0.193
70.0512 3.281 0.185
70.0717 2.927 0.175
70.0922 3.323 0.186
70.1126 3.375 0.188
70.1331 3.344 0.187
70.1536 3.302 0.185
70.1740 3.375 0.188
70.1945 3.000 0.177
70.2149 2.917 0.174
70.2354 2.885 0.173
70.2559 3.302 0.185
70.2763 3.302 0.185
70.2968 3.573 0.193
70.3173 3.167 0.182
70.3377 2.958 0.176
70.3582 3.375 0.188
70.3787 3.135 0.181
70.3991 3.281 0.185
70.4196 3.302 0.185
70.4400 3.281 0.185
70.4605 2.896 0.174
70.4810 3.156 0.181
70.5014 3.052 0.178
70.5219 3.281 0.185
70.5424 3.531 0.192
70.5628 3.271 0.185
70.5833 3.229 0.183
70.6037 3.094 0.180
70.6242 3.250 0.184
70.6447 3.042 0.178
70.6651 2.896 0.174
70.6856 3.542 0.192
70.7061 3.333 0.186
70.7265 3.073 0.179
70.7470 3.177 0.182
70.7674 3.260 0.184
70.7879 3.052 0.178
70.8084 2.990 0.176
70.8288 3.333 0.186
70.8493 3.229 0.183
70.8698 3.135 0.181
70.8902 2.948 0.175
70.9107 2.750 0.169
70.9311 2.792 0.171
70.9516 3.396 0.188
70.9721 3.125 0.180
70.9925 3.010 0.177
71.0130 3.469 0.190
71.0335 3.135 0.181
71.0539 2.906 0.174
71.0744 2.677 0.167
71.0948 3.313 0.186
71.1153 3.302 0.185
71.1358 2.938 0.175
71.1562 3.292 0.185
71.1767 3.229 0.183
71.1972 2.969 0.176
71.2176 2.948 0.175
71.2381 3.010 0.177
71.2586 3.042 0.178
71.2790 2.906 0.174
71.2995 2.938 0.175
71.3199 3.073 0.179
71.3404 3.000 0.177
71.3609 2.813 0.171
71.3813 3.375 0.188
71.4018 3.177 0.182
71.4223 2.750 0.169
71.4427 2.854 0.172
71.4632 2.865 0.173
71.4836 3.073 0.179
71.5041 2.625 0.165
71.5246 2.833 0.172
71.5450 2.865 0.173
71.5655 2.469 0.160
71.5860 2.979 0.176
71.6064 2.760 0.170
71.6269 2.563 0.163
71.6473 2.708 0.168
71.6678 3.500 0.191
71.6883 2.677 0.167
71.7087 2.573 0.164
71.7292 2.688 0.167
71.7497 2.948 0.175
71.7701 2.552 0.163
71.7906 2.833 0.172
71.8110 2.813 0.171
71.8315 2.958 0.176
71.8520 2.813 0.171
71.8724 2.563 0.163
71.8929 2.625 0.165
71.9134 2.698 0.168
71.9338 2.406 0.158
71.9543 2.833 0.172
71.9747 2.729 0.169
71.9952 2.615 0.165
72.0157 2.750 0.169
72.0361 2.938 0.175
72.0566 2.927 0.175
72.0771 2.521 0.162
72.0975 2.896 0.174
72.1180 2.906 0.174
72.1385 2.646 0.166
72.1589 2.688 0.167
72.1794 2.813 0.171
72.1998 2.365 0.157
72.2203 2.542 0.163
72.2408 2.792 0.171
72.2612 2.844 0.172
72.2817 2.823 0.171
72.3022 2.656 0.166
72.3226 3.052 0.178
72.3431 2.521 0.162
72.3635 2.719 0.168
72.3840 2.844 0.172
72.4045 2.875 0.173
72.4249 2.969 0.176
72.4454 2.896 0.174
72.4659 2.844 0.172
72.4863 2.781 0.170
72.5068 2.958 0.176
72.5272 3.073 0.179
72.5477 2.771 0.170
72.5682 2.979 0.176
72.5886 2.750 0.169
72.6091 2.802 0.171
72.6296 2.948 0.175
72.6500 2.750 0.169
72.6705 3.219 0.183
72.6909 2.938 0.175
72.7114 3.031 0.178
72.7319 2.896 0.174
72.7523 3.281 0.185
72.7728 3.042 0.178
72.7933 3.000 0.177
72.8137 3.104 0.180
72.8342 3.313 0.186
72.8547 3.135 0.181
72.8751 3.260 0.184
72.8956 3.052 0.178
72.9160 2.844 0.172
72.9365 3.240 0.184
72.9570 3.156 0.181
72.9774 2.771 0.170
72.9979 2.771 0.170
73.0184 2.896 0.174
73.0388 2.844 0.172
73.0593 3.104 0.180
73.0797 2.573 0.164
73.1002 2.781 0.170
73.1207 2.760 0.170
73.1411 2.260 0.153
73.1616 2.875 0.173
73.1821 2.406 0.158
73.2025 2.469 0.160
73.2230 2.490 0.161
73.2434 2.438 0.159
73.2639 2.417 0.159
73.2844 2.313 0.155
73.3048 2.813 0.171
73.3253 2.490 0.161
73.3458 2.229 0.152
73.3662 2.552 0.163
73.3867 2.510 0.162
73.4071 2.646 0.166
73.4276 2.333 0.156
73.4481 2.531 0.162
73.4685 2.385 0.158
73.4890 2.563 0.163
73.5095 2.646 0.166
73.5299 2.469 0.160
73.5504 2.396 0.158
73.5708 2.688 0.167
73.5913 2.625 0.165
73.6118 3.063 0.179
73.6322 2.281 0.154
73.6527 3.021 0.177
73.6732 2.510 0.162
73.6936 2.615 0.165
73.7141 2.479 0.161
73.7346 2.625 0.165
73.7550 2.688 0.167
73.7755 2.469 0.160
73.7959 2.927 0.175
73.8164 2.740 0.169
73.8369 2.521 0.162
73.8573 2.292 0.155
73.8778 2.281 0.154
73.8983 2.260 0.153
73.9187 2.448 0.160
73.9392 2.729 0.169
73.9596 2.635 0.166
73.9801 2.813 0.171
74.0006 2.656 0.166
74.0210 2.771 0.170
74.0415 2.604 0.165
74.0620 2.781 0.170
74.0824 2.635 0.166
74.1029 2.646 0.166
74.1233 2.729 0.169
74.1438 2.708 0.168
74.1643 2.563 0.163
74.1847 2.510 0.162
74.2052 2.552 0.163
74.2257 2.375 0.157
74.2461 2.635 0.166
74.2666 2.896 0.174
74.2870 2.667 0.167
74.3075 2.688 0.167
74.3280 2.500 0.161
74.3484 2.229 0.152
74.3689 2.667 0.167
74.3894 2.625 0.165
74.4098 2.563 0.163
74.4303 2.781 0.170
74.4507 2.563 0.163
74.4712 2.563 0.163
74.4917 2.250 0.153
74.5121 2.323 0.156
74.5326 2.542 0.163
74.5531 2.917 0.174
74.5735 2.313 0.155
74.5940 2.583 0.164
74.6145 2.448 0.160
74.6349 2.240 0.153
74.6554 2.323 0.156
74.6758 2.552 0.163
74.6963 2.594 0.164
74.7168 2.479 0.161
74.7372 2.458 0.160
74.7577 2.625 0.165
74.7782 2.563 0.163
74.7986 2.479 0.161
74.8191 2.427 0.159
74.8395 2.438 0.159
74.8600 2.635 0.166
74.8805 2.469 0.160
74.9009 2.281 0.154
74.9214 2.813 0.171
74.9419 2.521 0.162
74.9623 2.385 0.158
74.9828 2.396 0.158
75.0032 2.594 0.164
75.0237 2.271 0.154
75.0442 2.667 0.167
75.0646 2.406 0.158
75.0851 2.792 0.171
75.1056 2.417 0.159
75.1260 2.354 0.157
75.1465 2.646 0.166
75.1669 2.323 0.156
75.1874 2.667 0.167
75.2079 2.354 0.157
75.2283 2.333 0.156
75.2488 2.594 0.164
75.2693 2.531 0.162
75.2897 2.604 0.165
75.3102 2.240 0.153
75.3306 2.625 0.165
75.3511 2.594 0.164
75.3716 2.708 0.168
75.3920 2.740 0.169
75.4125 2.656 0.166
75.4330 2.823 0.171
75.4534 2.875 0.173
75.4739 2.708 0.168
75.4944 2.969 0.176
75.5148 2.406 0.158
75.5353 2.740 0.169
75.5557 2.833 0.172
75.5762 2.500 0.161
75.5967 2.740 0.169
75.6171 2.677 0.167
75.6376 3.281 0.185
75.6581 2.688 0.167
75.6785 2.990 0.176
75.6990 3.083 0.179
75.7194 3.208 0.183
75.7399 3.490 0.191
75.7604 3.688 0.196
75.7808 3.688 0.196
75.8013 3.854 0.200
75.8218 3.302 0.185
75.8422 3.948 0.203
75.8627 3.656 0.195
75.8831 3.365 0.187
75.9036 3.490 0.191
75.9241 3.073 0.179
75.9445 3.333 0.186
75.9650 3.500 0.191
75.9855 3.396 0.188
76.0059 3.438 0.189
76.0264 3.802 0.199
76.0468 3.292 0.185
76.0673 2.979 0.176
76.0878 3.292 0.185
76.1082 3.083 0.179
76.1287 3.302 0.185
76.1492 3.115 0.180
76.1696 2.875 0.173
76.1901 2.458 0.160
76.2105 3.198 0.183
76.2310 3.063 0.179
76.2515 3.104 0.180
76.2719 2.615 0.165
76.2924 2.719 0.168
76.3129 2.708 0.168
76.3333 2.958 0.176
76.3538 2.729 0.169
76.3743 2.865 0.173
76.3947 2.479 0.161
76.4152 2.667 0.167
76.4356 2.688 0.167
76.4561 2.615 0.165
76.4766 2.844 0.172
76.4970 2.781 0.170
76.5175 2.250 0.153
76.5380 2.563 0.163
76.5584 2.938 0.175
76.5789 2.750 0.169
76.5993 2.458 0.160
76.6198 2.583 0.164
76.6403 2.417 0.159
76.6607 2.385 0.158
76.6812 2.375 0.157
76.7017 2.260 0.153
76.7221 2.302 0.155
76.7426 2.469 0.160
76.7630 2.583 0.164
76.7835 2.563 0.163
76.8040 2.656 0.166
76.8244 2.625 0.165
76.8449 2.469 0.160
76.8654 2.448 0.160
76.8858 2.521 0.162
76.9063 2.688 0.167
76.9267 2.583 0.164
76.9472 2.375 0.157
76.9677 2.646 0.166
76.9881 2.719 0.168
77.0086 2.490 0.161
77.0291 2.615 0.165
77.0495 2.490 0.161
77.0700 2.604 0.165
77.0905 3.135 0.181
77.1109 2.708 0.168
77.1314 2.802 0.171
77.1518 2.885 0.173
77.1723 2.646 0.166
77.1928 2.656 0.166
77.2132 2.563 0.163
77.2337 2.323 0.156
77.2542 2.573 0.164
77.2746 2.875 0.173
77.2951 2.583 0.164
77.3155 2.635 0.166
77.3360 2.688 0.167
77.3565 2.708 0.168
77.3769 3.073 0.179
77.3974 2.833 0.172
77.4179 3.198 0.183
77.4383 3.042 0.178
77.4588 2.740 0.169
77.4792 2.969 0.176
77.4997 2.906 0.174
77.5202 3.354 0.187
77.5406 3.604 0.194
77.5611 3.354 0.187
77.5816 3.198 0.183
77.6020 3.156 0.181
77.6225 3.073 0.179
77.6429 3.229 0.183
77.6634 3.625 0.194
77.6839 3.104 0.180
77.7043 3.146 0.181
77.7248 3.083 0.179
77.7453 3.240 0.184
77.7657 2.896 0.174
77.7862 3.115 0.180
77.8066 3.479 0.190
77.8271 2.958 0.176
77.8476 2.948 0.175
77.8680 2.979 0.176
77.8885 2.771 0.170
77.9090 2.854 0.172
77.9294 2.948 0.175
77.9499 2.990 0.176
77.9704 3.094 0.180
77.9908 3.198 0.183
78.0113 3.219 0.183
78.0317 2.885 0.173
78.0522 2.813 0.171
78.0727 2.771 0.170
78.0931 2.635 0.166
78.1136 2.906 0.174
78.1341 3.010 0.177
78.1545 3.104 0.180
78.1750 2.917 0.174
78.1954 3.063 0.179
78.2159 2.906 0.174
78.2364 2.719 0.168
78.2568 3.125 0.180
78.2773 2.875 0.173
78.2978 2.740 0.169
78.3182 2.906 0.174
78.3387 2.958 0.176
78.3591 3.063 0.179
78.3796 2.823 0.171
78.4001 2.823 0.171
78.4205 2.938 0.175
78.4410 3.010 0.177
78.4615 2.552 0.163
78.4819 2.990 0.176
78.5024 2.688 0.167
78.5228 3.042 0.178
78.5433 3.063 0.179
78.5638 3.073 0.179
78.5842 3.323 0.186
78.6047 2.990 0.176
78.6252 3.021 0.177
78.6456 2.792 0.171
78.6661 2.792 0.171
78.6865 3.010 0.177
78.7070 3.042 0.178
78.7275 2.729 0.169
78.7479 2.781 0.170
78.7684 2.979 0.176
78.7889 3.229 0.183
78.8093 3.042 0.178
78.8298 3.042 0.178
78.8503 3.063 0.179
78.8707 3.104 0.180
78.8912 3.229 0.183
78.9116 2.854 0.172
78.9321 3.042 0.178
78.9526 2.833 0.172
78.9730 2.677 0.167
78.9935 3.198 0.183
79.0140 3.000 0.177
79.0344 2.927 0.175
79.0549 2.896 0.174
79.0753 3.146 0.181
79.0958 2.906 0.174
79.1163 3.031 0.178
79.1367 2.729 0.169
79.1572 3.125 0.180
79.1777 3.115 0.180
79.1981 3.063 0.179
79.2186 2.885 0.173
79.2390 2.729 0.169
79.2595 2.969 0.176
79.2800 3.177 0.182
79.3004 2.792 0.171
79.3209 2.906 0.174
79.3414 2.885 0.173
79.3618 2.896 0.174
79.3823 2.938 0.175
79.4027 3.021 0.177
79.4232 2.719 0.168
79.4437 3.063 0.179
79.4641 2.844 0.172
79.4846 2.823 0.171
79.5051 3.094 0.180
79.5255 3.073 0.179
79.5460 3.458 0.190
79.5664 3.031 0.178
79.5869 3.031 0.178
79.6074 3.281 0.185
79.6278 2.906 0.174
79.6483 3.344 0.187
79.6688 2.781 0.170
79.6892 2.635 0.166
79.7097 2.906 0.174
79.7302 3.135 0.181
79.7506 3.354 0.187
79.7711 3.083 0.179
79.7915 3.000 0.177
79.8120 2.948 0.175
79.8325 3.427 0.189
79.8529 2.563 0.163
79.8734 2.948 0.175
79.8939 3.104 0.180
79.9143 2.677 0.167
79.9348 2.948 0.175
79.9552 2.906 0.174
79.9757 2.573 0.164
79.9962 3.021 0.177
