'Id: "" Comment: "" Operator: "Lab Manager" Anode: "Cu" Scantype: "Locked Coupled" TimePerStep: "96" X: "0" Y: "0" Z: "0" 
5.0000 27.417 0.534
5.0205 26.990 0.530
5.0409 26.823 0.529
5.0614 25.781 0.518
5.0819 26.906 0.529
5.1023 26.396 0.524
5.1228 26.479 0.525
5.1432 26.167 0.522
5.1637 26.594 0.526
5.1842 26.240 0.523
5.2046 25.771 0.518
5.2251 26.104 0.521
5.2456 26.396 0.524
5.2660 26.125 0.522
5.2865 26.177 0.522
5.3069 25.969 0.520
5.3274 26.333 0.524
5.3479 25.927 0.520
5.3683 26.042 0.521
5.3888 25.844 0.519
5.4093 25.458 0.515
5.4297 25.740 0.518
5.4502 26.375 0.524
5.4706 25.281 0.513
5.4911 25.167 0.512
5.5116 24.906 0.509
5.5320 25.292 0.513
5.5525 25.323 0.514
5.5730 24.594 0.506
5.5934 25.250 0.513
5.6139 25.792 0.518
5.6343 25.583 0.516
5.6548 25.938 0.520
5.6753 24.479 0.505
5.6957 24.510 0.505
5.7162 24.427 0.504
5.7367 23.740 0.497
5.7571 25.438 0.515
5.7776 24.604 0.506
5.7980 23.917 0.499
5.8185 24.979 0.510
5.8390 24.292 0.503
5.8594 25.365 0.514
5.8799 24.302 0.503
5.9004 24.135 0.501
5.9208 23.802 0.498
5.9413 24.333 0.503
5.9618 24.063 0.501
5.9822 23.583 0.496
6.0027 24.896 0.509
6.0231 24.479 0.505
6.0436 24.990 0.510
6.0641 23.719 0.497
6.0845 24.396 0.504
6.1050 23.990 0.500
6.1255 24.083 0.501
6.1459 24.615 0.506
6.1664 24.073 0.501
6.1868 23.677 0.497
6.2073 23.917 0.499
6.2278 24.406 0.504
6.2482 24.198 0.502
6.2687 23.500 0.495
6.2892 24.333 0.503
6.3096 24.271 0.503
6.3301 23.750 0.497
6.3505 24.760 0.508
6.3710 24.646 0.507
6.3915 24.031 0.500
6.4119 23.406 0.494
6.4324 24.875 0.509
6.4529 24.469 0.505
6.4733 24.417 0.504
6.4938 23.510 0.495
6.5142 24.500 0.505
6.5347 23.760 0.497
6.5552 23.198 0.492
6.5756 23.438 0.494
6.5961 24.448 0.505
6.6166 24.875 0.509
6.6370 23.438 0.494
6.6575 23.719 0.497
6.6779 23.635 0.496
6.6984 23.917 0.499
6.7189 23.583 0.496
6.7393 24.073 0.501
6.7598 24.542 0.506
6.7803 24.219 0.502
6.8007 24.073 0.501
6.8212 24.635 0.507
6.8417 25.344 0.514
6.8621 24.635 0.507
6.8826 23.927 0.499
6.9030 23.896 0.499
6.9235 23.656 0.496
6.9440 24.781 0.508
6.9644 23.448 0.494
6.9849 25.156 0.512
7.0054 23.823 0.498
7.0258 23.490 0.495
7.0463 24.146 0.502
7.0667 24.083 0.501
7.0872 24.250 0.503
7.1077 23.740 0.497
7.1281 24.802 0.508
7.1486 24.167 0.502
7.1691 25.021 0.511
7.1895 23.990 0.500
7.2100 24.896 0.509
7.2304 23.646 0.496
7.2509 24.594 0.506
7.2714 24.417 0.504
7.2918 24.365 0.504
7.3123 23.813 0.498
7.3328 24.490 0.505
7.3532 24.375 0.504
7.3737 23.844 0.498
7.3941 24.302 0.503
7.4146 24.417 0.504
7.4351 24.906 0.509
7.4555 23.604 0.496
7.4760 24.583 0.506
7.4965 24.552 0.506
7.5169 24.000 0.500
7.5374 24.688 0.507
7.5579 23.792 0.498
7.5783 24.698 0.507
7.5988 23.833 0.498
7.6192 24.771 0.508
7.6397 25.021 0.511
7.6602 24.542 0.506
7.6806 24.333 0.503
7.7011 25.063 0.511
7.7216 25.094 0.511
7.7420 25.021 0.511
7.7625 24.875 0.509
7.7829 25.635 0.517
7.8034 24.375 0.504
7.8239 24.313 0.503
7.8443 24.198 0.502
7.8648 24.385 0.504
7.8853 24.969 0.510
7.9057 25.563 0.516
7.9262 24.458 0.505
7.9466 25.396 0.514
7.9671 25.365 0.514
7.9876 24.406 0.504
8.0080 25.365 0.514
8.0285 24.729 0.508
8.0490 24.854 0.509
8.0694 25.219 0.513
8.0899 24.510 0.505
8.1103 24.396 0.504
8.1308 24.417 0.504
8.1513 25.208 0.512
8.1717 25.385 0.514
8.1922 26.010 0.521
8.2127 25.646 0.517
8.2331 25.260 0.513
8.2536 25.813 0.519
8.2740 24.865 0.509
8.2945 25.583 0.516
8.3150 26.010 0.521
8.3354 25.594 0.516
8.3559 24.938 0.510
8.3764 24.917 0.509
8.3968 25.063 0.511
8.4173 25.385 0.514
8.4378 25.156 0.512
8.4582 25.406 0.514
8.4787 25.208 0.512
8.4991 24.458 0.505
8.5196 24.823 0.508
8.5401 25.760 0.518
8.5605 25.469 0.515
8.5810 24.604 0.506
8.6015 25.594 0.516
8.6219 25.781 0.518
8.6424 25.750 0.518
8.6628 25.417 0.515
8.6833 26.042 0.521
8.7038 26.510 0.525
8.7242 26.646 0.527
8.7447 27.156 0.532
8.7652 25.896 0.519
8.7856 25.906 0.519
8.8061 26.427 0.525
8.8265 27.760 0.538
8.8470 26.875 0.529
8.8675 29.188 0.551
8.8879 30.448 0.563
8.9084 31.625 0.574
8.9289 29.563 0.555
8.9493 29.958 0.559
8.9698 28.292 0.543
8.9902 27.604 0.536
9.0107 27.479 0.535
9.0312 27.750 0.538
9.0516 28.427 0.544
9.0721 28.885 0.549
9.0926 30.427 0.563
9.1130 30.885 0.567
9.1335 32.438 0.581
9.1539 33.656 0.592
9.1744 34.052 0.596
9.1949 36.365 0.615
9.2153 38.406 0.633
9.2358 40.583 0.650
9.2563 43.969 0.677
9.2767 46.781 0.698
9.2972 51.073 0.729
9.3177 53.292 0.745
9.3381 54.052 0.750
9.3586 54.406 0.753
9.3790 55.063 0.757
9.3995 56.615 0.768
9.4200 57.385 0.773
9.4404 60.042 0.791
9.4609 62.854 0.809
9.4814 66.906 0.835
9.5018 73.667 0.876
9.5223 79.802 0.912
9.5427 91.333 0.975
9.5632 101.990 1.031
9.5837 113.708 1.088
9.6041 126.031 1.146
9.6246 132.708 1.176
9.6451 146.469 1.235
9.6655 158.417 1.285
9.6860 182.875 1.380
9.7064 209.740 1.478
9.7269 256.844 1.636
9.7474 332.208 1.860
9.7678 451.656 2.169
9.7883 665.750 2.633
9.8088 1032.802 3.280
9.8292 1614.021 4.100
9.8497 2454.760 5.057
9.8701 3030.042 5.618
9.8906 2440.969 5.042
9.9111 1408.385 3.830
9.9315 685.542 2.672
9.9520 361.104 1.939
9.9725 237.208 1.572
9.9929 180.760 1.372
10.0134 153.177 1.263
10.0338 134.229 1.182
10.0543 123.365 1.134
10.0748 111.406 1.077
10.0952 101.000 1.026
10.1157 85.958 0.946
10.1362 73.021 0.872
10.1566 62.833 0.809
10.1771 57.740 0.776
10.1976 53.792 0.749
10.2180 50.563 0.726
10.2385 49.010 0.715
10.2589 47.531 0.704
10.2794 44.625 0.682
10.2999 43.510 0.673
10.3203 43.188 0.671
10.3408 42.865 0.668
10.3613 41.417 0.657
10.3817 41.365 0.656
10.4022 40.156 0.647
10.4226 39.771 0.644
10.4431 39.563 0.642
10.4636 37.865 0.628
10.4840 37.708 0.627
10.5045 38.573 0.634
10.5250 36.813 0.619
10.5454 37.542 0.625
10.5659 35.521 0.608
10.5863 36.208 0.614
10.6068 37.104 0.622
10.6273 35.083 0.605
10.6477 35.906 0.612
10.6682 35.260 0.606
10.6887 34.656 0.601
10.7091 34.542 0.600
10.7296 34.115 0.596
10.7500 35.010 0.604
10.7705 33.719 0.593
10.7910 32.531 0.582
10.8114 32.375 0.581
10.8319 31.563 0.573
10.8524 31.750 0.575
10.8728 30.990 0.568
10.8933 31.292 0.571
10.9137 30.135 0.560
10.9342 29.854 0.558
10.9547 30.000 0.559
10.9751 29.979 0.559
10.9956 29.333 0.553
11.0161 30.292 0.562
11.0365 29.906 0.558
11.0570 29.635 0.556
11.0775 28.854 0.548
11.0979 28.625 0.546
11.1184 28.167 0.542
11.1388 28.000 0.540
11.1593 27.583 0.536
11.1798 27.760 0.538
11.2002 27.656 0.537
11.2207 27.396 0.534
11.2412 26.844 0.529
11.2616 26.990 0.530
11.2821 27.625 0.536
11.3025 27.750 0.538
11.3230 26.813 0.528
11.3435 26.417 0.525
11.3639 26.490 0.525
11.3844 25.292 0.513
11.4049 26.323 0.524
11.4253 25.042 0.511
11.4458 25.448 0.515
11.4662 24.573 0.506
11.4867 25.510 0.515
11.5072 24.771 0.508
11.5276 23.948 0.499
11.5481 24.990 0.510
11.5686 25.260 0.513
11.5890 24.500 0.505
11.6095 24.583 0.506
11.6299 23.688 0.497
11.6504 23.594 0.496
11.6709 22.885 0.488
11.6913 23.823 0.498
11.7118 23.708 0.497
11.7323 23.656 0.496
11.7527 22.938 0.489
11.7732 23.094 0.490
11.7937 21.365 0.472
11.8141 21.885 0.477
11.8346 20.813 0.466
11.8550 22.281 0.482
11.8755 20.854 0.466
11.8960 20.906 0.467
11.9164 20.406 0.461
11.9369 20.615 0.463
11.9574 21.073 0.469
11.9778 20.813 0.466
11.9983 20.365 0.461
12.0187 19.844 0.455
12.0392 19.656 0.452
12.0597 20.188 0.459
12.0801 19.750 0.454
12.1006 19.146 0.447
12.1211 18.854 0.443
12.1415 18.979 0.445
12.1620 19.313 0.449
12.1824 18.917 0.444
12.2029 19.073 0.446
12.2234 19.240 0.448
12.2438 19.208 0.447
12.2643 18.135 0.435
12.2848 18.771 0.442
12.3052 18.281 0.436
12.3257 17.510 0.427
12.3461 18.135 0.435
12.3666 18.260 0.436
12.3871 18.438 0.438
12.4075 18.010 0.433
12.4280 18.115 0.434
12.4485 17.750 0.430
12.4689 17.635 0.429
12.4894 17.167 0.423
12.5098 16.781 0.418
12.5303 17.115 0.422
12.5508 16.250 0.411
12.5712 16.927 0.420
12.5917 15.885 0.407
12.6122 16.604 0.416
12.6326 16.604 0.416
12.6531 15.813 0.406
12.6736 15.854 0.406
12.6940 15.458 0.401
12.7145 15.479 0.402
12.7349 15.740 0.405
12.7554 16.031 0.409
12.7759 14.750 0.392
12.7963 15.323 0.400
12.8168 14.917 0.394
12.8373 14.156 0.384
12.8577 15.635 0.404
12.8782 15.167 0.397
12.8986 15.406 0.401
12.9191 15.135 0.397
12.9396 14.688 0.391
12.9600 14.281 0.386
12.9805 14.542 0.389
13.0010 14.167 0.384
13.0214 14.094 0.383
13.0419 14.094 0.383
13.0623 14.542 0.389
13.0828 14.604 0.390
13.1033 13.771 0.379
13.1237 14.115 0.383
13.1442 14.031 0.382
13.1647 14.083 0.383
13.1851 13.771 0.379
13.2056 14.500 0.389
13.2260 13.875 0.380
13.2465 13.438 0.374
13.2670 13.427 0.374
13.2874 13.240 0.371
13.3079 12.906 0.367
13.3284 13.865 0.380
13.3488 13.427 0.374
13.3693 13.635 0.377
13.3897 13.135 0.370
13.4102 13.219 0.371
13.4307 13.375 0.373
13.4511 13.781 0.379
13.4716 13.250 0.372
13.4921 13.344 0.373
13.5125 12.427 0.360
13.5330 12.323 0.358
13.5535 12.823 0.365
13.5739 12.250 0.357
13.5944 12.469 0.360
13.6148 12.708 0.364
13.6353 12.135 0.356
13.6558 12.740 0.364
13.6762 12.583 0.362
13.6967 12.063 0.354
13.7172 12.688 0.364
13.7376 12.250 0.357
13.7581 12.198 0.356
13.7785 12.417 0.360
13.7990 12.385 0.359
13.8195 11.583 0.347
13.8399 12.719 0.364
13.8604 12.656 0.363
13.8809 12.615 0.362
13.9013 12.083 0.355
13.9218 13.292 0.372
13.9422 11.875 0.352
13.9627 12.073 0.355
13.9832 11.646 0.348
14.0036 12.240 0.357
14.0241 12.656 0.363
14.0446 12.313 0.358
14.0650 11.948 0.353
14.0855 12.573 0.362
14.1059 12.083 0.355
14.1264 12.188 0.356
14.1469 12.313 0.358
14.1673 11.813 0.351
14.1878 12.469 0.360
14.2083 11.823 0.351
14.2287 12.146 0.356
14.2492 13.115 0.370
14.2696 13.135 0.370
14.2901 12.531 0.361
14.3106 13.531 0.375
14.3310 12.500 0.361
14.3515 12.948 0.367
14.3720 12.271 0.358
14.3924 13.198 0.371
14.4129 12.365 0.359
14.4334 12.208 0.357
14.4538 12.573 0.362
14.4743 12.646 0.363
14.4947 11.990 0.353
14.5152 12.188 0.356
14.5357 12.021 0.354
14.5561 12.000 0.354
14.5766 11.823 0.351
14.5971 11.896 0.352
14.6175 11.698 0.349
14.6380 11.042 0.339
14.6584 11.948 0.353
14.6789 11.156 0.341
14.6994 12.792 0.365
14.7198 11.469 0.346
14.7403 11.625 0.348
14.7608 10.354 0.328
14.7812 10.583 0.332
14.8017 10.927 0.337
14.8221 11.031 0.339
14.8426 10.813 0.336
14.8631 11.448 0.345
14.8835 10.583 0.332
14.9040 10.583 0.332
14.9245 10.719 0.334
14.9449 9.823 0.320
14.9654 10.417 0.329
14.9858 10.500 0.331
15.0063 10.594 0.332
15.0268 10.479 0.330
15.0472 10.625 0.333
15.0677 10.604 0.332
15.0882 9.760 0.319
15.1086 10.250 0.327
15.1291 10.146 0.325
15.1495 10.333 0.328
15.1700 10.365 0.329
15.1905 10.229 0.326
15.2109 9.917 0.321
15.2314 9.448 0.314
15.2519 9.594 0.316
15.2723 10.000 0.323
15.2928 9.802 0.320
15.3133 9.427 0.313
15.3337 10.000 0.323
15.3542 10.021 0.323
15.3746 9.510 0.315
15.3951 9.646 0.317
15.4156 9.990 0.323
15.4360 9.917 0.321
15.4565 9.781 0.319
15.4770 9.677 0.317
15.4974 9.479 0.314
15.5179 9.896 0.321
15.5383 9.521 0.315
15.5588 9.510 0.315
15.5793 9.646 0.317
15.5997 9.844 0.320
15.6202 10.000 0.323
15.6407 9.260 0.311
15.6611 9.625 0.317
15.6816 9.198 0.310
15.7020 9.813 0.320
15.7225 9.594 0.316
15.7430 9.344 0.312
15.7634 9.354 0.312
15.7839 9.396 0.313
15.8044 8.958 0.305
15.8248 8.896 0.304
15.8453 9.688 0.318
15.8657 9.323 0.312
15.8862 9.781 0.319
15.9067 9.417 0.313
15.9271 9.010 0.306
15.9476 9.302 0.311
15.9681 9.073 0.307
15.9885 9.385 0.313
16.0090 9.479 0.314
16.0295 8.906 0.305
16.0499 8.625 0.300
16.0704 8.990 0.306
16.0908 9.135 0.308
16.1113 9.344 0.312
16.1318 9.333 0.312
16.1522 9.156 0.309
16.1727 9.344 0.312
16.1932 9.052 0.307
16.2136 9.281 0.311
16.2341 9.208 0.310
16.2545 9.000 0.306
16.2750 8.813 0.303
16.2955 9.167 0.309
16.3159 9.167 0.309
16.3364 8.479 0.297
16.3569 9.010 0.306
16.3773 9.385 0.313
16.3978 8.396 0.296
16.4182 9.125 0.308
16.4387 9.385 0.313
16.4592 9.385 0.313
16.4796 8.823 0.303
16.5001 8.802 0.303
16.5206 9.323 0.312
16.5410 9.406 0.313
16.5615 8.698 0.301
16.5819 9.135 0.308
16.6024 9.031 0.307
16.6229 8.969 0.306
16.6433 8.490 0.297
16.6638 8.781 0.302
16.6843 9.344 0.312
16.7047 8.990 0.306
16.7252 8.990 0.306
16.7456 8.719 0.301
16.7661 8.490 0.297
16.7866 9.031 0.307
16.8070 8.469 0.297
16.8275 9.125 0.308
16.8480 8.906 0.305
16.8684 8.271 0.294
16.8889 8.542 0.298
16.9094 8.969 0.306
16.9298 9.292 0.311
16.9503 8.677 0.301
16.9707 8.563 0.299
16.9912 8.740 0.302
17.0117 8.854 0.304
17.0321 8.719 0.301
17.0526 8.583 0.299
17.0731 8.365 0.295
17.0935 8.885 0.304
17.1140 8.823 0.303
17.1344 9.604 0.316
17.1549 8.927 0.305
17.1754 8.938 0.305
17.1958 9.333 0.312
17.2163 9.073 0.307
17.2368 10.281 0.327
17.2572 10.333 0.328
17.2777 11.760 0.350
17.2981 12.542 0.361
17.3186 12.021 0.354
17.3391 11.490 0.346
17.3595 10.563 0.332
17.3800 9.552 0.315
17.4005 9.771 0.319
17.4209 9.469 0.314
17.4414 8.854 0.304
17.4618 8.708 0.301
17.4823 8.646 0.300
17.5028 8.917 0.305
17.5232 8.521 0.298
17.5437 8.750 0.302
17.5642 8.875 0.304
17.5846 8.990 0.306
17.6051 9.250 0.310
17.6255 8.885 0.304
17.6460 9.677 0.317
17.6665 9.719 0.318
17.6869 9.385 0.313
17.7074 9.771 0.319
17.7279 10.000 0.323
17.7483 10.177 0.326
17.7688 10.729 0.334
17.7893 10.219 0.326
17.8097 10.448 0.330
17.8302 11.115 0.340
17.8506 11.844 0.351
17.8711 11.823 0.351
17.8916 12.427 0.360
17.9120 12.427 0.360
17.9325 11.552 0.347
17.9530 12.792 0.365
17.9734 12.865 0.366
17.9939 13.927 0.381
18.0143 16.719 0.417
18.0348 19.635 0.452
18.0553 22.177 0.481
18.0757 21.250 0.470
18.0962 21.458 0.473
18.1167 20.969 0.467
18.1371 22.042 0.479
18.1576 25.771 0.518
18.1780 32.542 0.582
18.1985 42.490 0.665
18.2190 58.885 0.783
18.2394 83.646 0.933
18.2599 116.479 1.102
18.2804 140.083 1.208
18.3008 137.427 1.196
18.3213 114.802 1.094
18.3417 87.594 0.955
18.3622 62.281 0.805
18.3827 41.604 0.658
18.4031 30.927 0.568
18.4236 24.469 0.505
18.4441 21.146 0.469
18.4645 18.844 0.443
18.4850 17.896 0.432
18.5054 16.844 0.419
18.5259 15.406 0.401
18.5464 15.427 0.401
18.5668 16.010 0.408
18.5873 15.583 0.403
18.6078 15.552 0.402
18.6282 15.156 0.397
18.6487 15.823 0.406
18.6692 15.250 0.399
18.6896 15.156 0.397
18.7101 14.823 0.393
18.7305 14.344 0.387
18.7510 14.594 0.390
18.7715 14.188 0.384
18.7919 13.854 0.380
18.8124 14.052 0.383
18.8329 14.771 0.392
18.8533 13.948 0.381
18.8738 14.010 0.382
18.8942 13.760 0.379
18.9147 14.823 0.393
18.9352 13.354 0.373
18.9556 14.563 0.389
18.9761 14.323 0.386
18.9966 13.740 0.378
19.0170 13.990 0.382
19.0375 13.854 0.380
19.0579 13.958 0.381
19.0784 14.344 0.387
19.0989 15.063 0.396
19.1193 16.240 0.411
19.1398 16.875 0.419
19.1603 16.563 0.415
19.1807 16.490 0.414
19.2012 17.104 0.422
19.2216 17.083 0.422
19.2421 17.354 0.425
19.2626 17.240 0.424
19.2830 18.292 0.437
19.3035 19.042 0.445
19.3240 18.427 0.438
19.3444 18.500 0.439
19.3649 19.271 0.448
19.3853 19.510 0.451
19.4058 20.615 0.463
19.4263 21.698 0.475
19.4467 21.719 0.476
19.4672 23.813 0.498
19.4877 25.396 0.514
19.5081 27.427 0.535
19.5286 30.625 0.565
19.5491 33.333 0.589
19.5695 36.875 0.620
19.5900 39.573 0.642
19.6104 44.302 0.679
19.6309 47.073 0.700
19.6514 56.031 0.764
19.6718 64.510 0.820
19.6923 83.323 0.932
19.7128 105.917 1.050
19.7332 156.885 1.278
19.7537 244.823 1.597
19.7741 420.229 2.092
19.7946 689.677 2.680
19.8151 810.385 2.905
19.8355 609.323 2.519
19.8560 501.240 2.285
19.8765 343.177 1.891
19.8969 170.844 1.334
19.9174 99.813 1.020
19.9378 74.021 0.878
19.9583 61.510 0.800
19.9788 51.688 0.734
19.9992 46.021 0.692
20.0197 42.333 0.664
20.0402 36.802 0.619
20.0606 32.510 0.582
20.0811 29.313 0.553
20.1015 26.479 0.525
20.1220 24.292 0.503
20.1425 23.479 0.495
20.1629 24.667 0.507
20.1834 26.781 0.528
20.2039 29.542 0.555
20.2243 35.094 0.605
20.2448 44.167 0.678
20.2653 50.760 0.727
20.2857 53.427 0.746
20.3062 48.875 0.714
20.3266 41.042 0.654
20.3471 34.833 0.602
20.3676 27.688 0.537
20.3880 24.156 0.502
20.4085 21.604 0.474
20.4290 20.917 0.467
20.4494 22.333 0.482
20.4699 24.354 0.504
20.4903 26.542 0.526
20.5108 29.375 0.553
20.5313 29.354 0.553
20.5517 27.625 0.536
20.5722 24.823 0.508
20.5927 20.646 0.464
20.6131 17.698 0.429
20.6336 14.979 0.395
20.6540 13.781 0.379
20.6745 12.521 0.361
20.6950 12.083 0.355
20.7154 12.073 0.355
20.7359 11.688 0.349
20.7564 11.271 0.343
20.7768 11.625 0.348
20.7973 11.208 0.342
20.8177 10.938 0.338
20.8382 10.438 0.330
20.8587 10.250 0.327
20.8791 10.896 0.337
20.8996 10.510 0.331
20.9201 10.365 0.329
20.9405 11.094 0.340
20.9610 10.438 0.330
20.9814 9.948 0.322
21.0019 10.042 0.323
21.0224 10.292 0.327
21.0428 9.844 0.320
21.0633 10.021 0.323
21.0838 10.448 0.330
21.1042 10.156 0.325
21.1247 9.802 0.320
21.1452 9.833 0.320
21.1656 10.333 0.328
21.1861 9.854 0.320
21.2065 9.760 0.319
21.2270 10.302 0.328
21.2475 9.573 0.316
21.2679 9.781 0.319
21.2884 9.708 0.318
21.3089 9.615 0.316
21.3293 9.688 0.318
21.3498 9.573 0.316
21.3702 9.229 0.310
21.3907 9.875 0.321
21.4112 10.031 0.323
21.4316 10.021 0.323
21.4521 9.719 0.318
21.4726 9.583 0.316
21.4930 9.594 0.316
21.5135 10.146 0.325
21.5339 10.292 0.327
21.5544 9.563 0.316
21.5749 10.250 0.327
21.5953 9.781 0.319
21.6158 9.948 0.322
21.6363 9.552 0.315
21.6567 10.052 0.324
21.6772 9.948 0.322
21.6976 10.323 0.328
21.7181 9.990 0.323
21.7386 10.438 0.330
21.7590 10.208 0.326
21.7795 10.198 0.326
21.8000 10.063 0.324
21.8204 10.031 0.323
21.8409 10.135 0.325
21.8613 10.969 0.338
21.8818 10.573 0.332
21.9023 11.021 0.339
21.9227 11.542 0.347
21.9432 12.073 0.355
21.9637 12.219 0.357
21.9841 12.813 0.365
22.0046 14.656 0.391
22.0251 16.052 0.409
22.0455 17.417 0.426
22.0660 21.521 0.473
22.0864 26.719 0.528
22.1069 38.260 0.631
22.1274 54.708 0.755
22.1478 78.073 0.902
22.1683 92.698 0.983
22.1888 80.979 0.918
22.2092 68.885 0.847
22.2297 59.719 0.789
22.2501 42.302 0.664
22.2706 29.396 0.553
22.2911 22.313 0.482
22.3115 18.375 0.438
22.3320 16.635 0.416
22.3525 14.854 0.393
22.3729 14.000 0.382
22.3934 13.604 0.376
22.4138 12.948 0.367
22.4343 11.760 0.350
22.4548 10.990 0.338
22.4752 10.875 0.337
22.4957 10.323 0.328
22.5162 10.365 0.329
22.5366 9.906 0.321
22.5571 10.000 0.323
22.5775 9.583 0.316
22.5980 9.865 0.321
22.6185 9.344 0.312
22.6389 9.781 0.319
22.6594 9.219 0.310
22.6799 9.385 0.313
22.7003 8.990 0.306
22.7208 9.552 0.315
22.7412 9.427 0.313
22.7617 9.427 0.313
22.7822 9.052 0.307
22.8026 9.083 0.308
22.8231 9.000 0.306
22.8436 9.094 0.308
22.8640 9.552 0.315
22.8845 9.406 0.313
22.9050 9.083 0.308
22.9254 8.583 0.299
22.9459 8.615 0.300
22.9663 8.417 0.296
22.9868 9.042 0.307
23.0073 7.760 0.284
23.0277 8.469 0.297
23.0482 8.313 0.294
23.0687 8.198 0.292
23.0891 8.438 0.296
23.1096 8.844 0.304
23.1300 8.542 0.298
23.1505 8.427 0.296
23.1710 8.229 0.293
23.1914 8.677 0.301
23.2119 8.375 0.295
23.2324 8.219 0.293
23.2528 8.354 0.295
23.2733 8.000 0.289
23.2937 8.083 0.290
23.3142 8.302 0.294
23.3347 8.615 0.300
23.3551 8.458 0.297
23.3756 8.427 0.296
23.3961 8.750 0.302
23.4165 8.594 0.299
23.4370 8.469 0.297
23.4574 8.656 0.300
23.4779 8.823 0.303
23.4984 8.167 0.292
23.5188 8.240 0.293
23.5393 8.344 0.295
23.5598 8.604 0.299
23.5802 8.854 0.304
23.6007 8.156 0.291
23.6211 7.990 0.288
23.6416 7.802 0.285
23.6621 8.396 0.296
23.6825 8.188 0.292
23.7030 7.896 0.287
23.7235 8.271 0.294
23.7439 8.573 0.299
23.7644 7.625 0.282
23.7849 7.760 0.284
23.8053 7.479 0.279
23.8258 8.188 0.292
23.8462 7.344 0.277
23.8667 7.677 0.283
23.8872 7.729 0.284
23.9076 7.802 0.285
23.9281 7.500 0.280
23.9486 7.656 0.282
23.9690 7.938 0.288
23.9895 7.885 0.287
24.0099 7.646 0.282
24.0304 7.708 0.283
24.0509 7.896 0.287
24.0713 7.490 0.279
24.0918 8.490 0.297
24.1123 7.938 0.288
24.1327 8.302 0.294
24.1532 7.906 0.287
24.1736 8.521 0.298
24.1941 8.042 0.289
24.2146 8.479 0.297
24.2350 10.094 0.324
24.2555 10.469 0.330
24.2760 13.271 0.372
24.2964 14.604 0.390
24.3169 15.760 0.405
24.3373 14.719 0.392
24.3578 13.177 0.370
24.3783 11.958 0.353
24.3987 10.771 0.335
24.4192 9.458 0.314
24.4397 8.208 0.292
24.4601 8.198 0.292
24.4806 7.542 0.280
24.5011 7.677 0.283
24.5215 7.990 0.288
24.5420 7.250 0.275
24.5624 7.563 0.281
24.5829 7.115 0.272
24.6034 7.135 0.273
24.6238 6.927 0.269
24.6443 7.313 0.276
24.6648 7.115 0.272
24.6852 6.375 0.258
24.7057 7.365 0.277
24.7261 6.854 0.267
24.7466 6.625 0.263
24.7671 6.625 0.263
24.7875 6.688 0.264
24.8080 7.333 0.276
24.8285 6.417 0.259
24.8489 6.635 0.263
24.8694 7.010 0.270
24.8898 6.760 0.265
24.9103 7.396 0.278
24.9308 7.281 0.275
24.9512 6.906 0.268
24.9717 7.396 0.278
24.9922 6.990 0.270
25.0126 6.938 0.269
25.0331 6.729 0.265
25.0535 6.719 0.265
25.0740 6.781 0.266
25.0945 6.219 0.255
25.1149 6.677 0.264
25.1354 6.604 0.262
25.1559 6.583 0.262
25.1763 6.938 0.269
25.1968 6.729 0.265
25.2172 6.510 0.260
25.2377 6.385 0.258
25.2582 6.281 0.256
25.2786 6.344 0.257
25.2991 6.938 0.269
25.3196 6.813 0.266
25.3400 6.740 0.265
25.3605 6.573 0.262
25.3810 6.490 0.260
25.4014 6.313 0.256
25.4219 6.531 0.261
25.4423 6.229 0.255
25.4628 6.385 0.258
25.4833 7.146 0.273
25.5037 6.406 0.258
25.5242 6.260 0.255
25.5447 6.448 0.259
25.5651 6.344 0.257
25.5856 6.740 0.265
25.6060 6.427 0.259
25.6265 6.458 0.259
25.6470 6.760 0.265
25.6674 6.542 0.261
25.6879 6.646 0.263
25.7084 7.010 0.270
25.7288 6.417 0.259
25.7493 6.458 0.259
25.7697 6.729 0.265
25.7902 5.896 0.248
25.8107 6.292 0.256
25.8311 6.417 0.259
25.8516 6.396 0.258
25.8721 6.594 0.262
25.8925 6.490 0.260
25.9130 6.792 0.266
25.9334 6.677 0.264
25.9539 6.385 0.258
25.9744 6.500 0.260
25.9948 6.573 0.262
26.0153 6.740 0.265
26.0358 6.563 0.261
26.0562 6.281 0.256
26.0767 6.604 0.262
26.0971 6.292 0.256
26.1176 6.469 0.260
26.1381 6.990 0.270
26.1585 6.260 0.255
26.1790 6.281 0.256
26.1995 6.656 0.263
26.2199 6.646 0.263
26.2404 6.729 0.265
26.2609 6.427 0.259
26.2813 7.021 0.270
26.3018 6.792 0.266
26.3222 7.302 0.276
26.3427 7.063 0.271
26.3632 7.469 0.279
26.3836 7.802 0.285
26.4041 9.010 0.306
26.4246 8.833 0.303
26.4450 9.573 0.316
26.4655 10.417 0.329
26.4859 11.063 0.339
26.5064 11.365 0.344
26.5269 11.229 0.342
26.5473 11.094 0.340
26.5678 10.438 0.330
26.5883 11.031 0.339
26.6087 9.771 0.319
26.6292 9.479 0.314
26.6496 9.146 0.309
26.6701 8.333 0.295
26.6906 8.406 0.296
26.7110 8.229 0.293
26.7315 8.448 0.297
26.7520 8.958 0.305
26.7724 9.135 0.308
26.7929 9.885 0.321
26.8133 11.135 0.341
26.8338 12.156 0.356
26.8543 13.448 0.374
26.8747 13.573 0.376
26.8952 13.698 0.378
26.9157 13.000 0.368
26.9361 11.844 0.351
26.9566 11.313 0.343
26.9770 9.760 0.319
26.9975 9.313 0.311
27.0180 7.917 0.287
27.0384 7.885 0.287
27.0589 7.729 0.284
27.0794 6.865 0.267
27.0998 6.990 0.270
27.1203 6.865 0.267
27.1408 7.167 0.273
27.1612 6.917 0.268
27.1817 6.635 0.263
27.2021 6.542 0.261
27.2226 6.813 0.266
27.2431 6.146 0.253
27.2635 6.792 0.266
27.2840 6.406 0.258
27.3045 6.604 0.262
27.3249 6.552 0.261
27.3454 6.250 0.255
27.3658 5.990 0.250
27.3863 5.917 0.248
27.4068 6.219 0.255
27.4272 6.479 0.260
27.4477 6.354 0.257
27.4682 6.667 0.264
27.4886 6.448 0.259
27.5091 6.667 0.264
27.5295 6.229 0.255
27.5500 6.635 0.263
27.5705 5.854 0.247
27.5909 6.375 0.258
27.6114 6.000 0.250
27.6319 6.521 0.261
27.6523 6.073 0.252
27.6728 6.052 0.251
27.6932 6.917 0.268
27.7137 6.417 0.259
27.7342 6.625 0.263
27.7546 6.448 0.259
27.7751 7.021 0.270
27.7956 7.073 0.271
27.8160 7.240 0.275
27.8365 7.667 0.283
27.8569 7.771 0.285
27.8774 7.875 0.286
27.8979 8.875 0.304
27.9183 9.333 0.312
27.9388 10.208 0.326
27.9593 10.906 0.337
27.9797 12.031 0.354
28.0002 12.552 0.362
28.0207 11.333 0.344
28.0411 11.490 0.346
28.0616 11.313 0.343
28.0820 10.167 0.325
28.1025 9.823 0.320
28.1230 9.104 0.308
28.1434 8.719 0.301
28.1639 8.135 0.291
28.1844 7.760 0.284
28.2048 7.615 0.282
28.2253 7.479 0.279
28.2457 7.490 0.279
28.2662 6.813 0.266
28.2867 7.240 0.275
28.3071 7.042 0.271
28.3276 7.250 0.275
28.3481 6.729 0.265
28.3685 6.781 0.266
28.3890 6.927 0.269
28.4094 7.552 0.280
28.4299 7.729 0.284
28.4504 7.521 0.280
28.4708 7.500 0.280
28.4913 7.260 0.275
28.5118 7.167 0.273
28.5322 6.635 0.263
28.5527 7.115 0.272
28.5731 7.115 0.272
28.5936 7.135 0.273
28.6141 7.031 0.271
28.6345 7.354 0.277
28.6550 7.604 0.281
28.6755 8.344 0.295
28.6959 8.573 0.299
28.7164 8.281 0.294
28.7368 8.323 0.294
28.7573 8.510 0.298
28.7778 7.875 0.286
28.7982 7.813 0.285
28.8187 7.281 0.275
28.8392 6.896 0.268
28.8596 6.438 0.259
28.8801 6.167 0.253
28.9006 6.260 0.255
28.9210 6.250 0.255
28.9415 6.427 0.259
28.9619 5.615 0.242
28.9824 6.052 0.251
29.0029 6.042 0.251
29.0233 5.771 0.245
29.0438 5.521 0.240
29.0643 6.146 0.253
29.0847 5.833 0.247
29.1052 5.875 0.247
29.1256 5.990 0.250
29.1461 5.760 0.245
29.1666 5.885 0.248
29.1870 5.979 0.250
29.2075 6.167 0.253
29.2280 6.417 0.259
29.2484 6.083 0.252
29.2689 6.594 0.262
29.2893 6.563 0.261
29.3098 6.865 0.267
29.3303 6.010 0.250
29.3507 6.167 0.253
29.3712 6.500 0.260
29.3917 6.271 0.256
29.4121 5.917 0.248
29.4326 6.396 0.258
29.4530 6.010 0.250
29.4735 6.281 0.256
29.4940 5.510 0.240
29.5144 5.990 0.250
29.5349 5.823 0.246
29.5554 6.063 0.251
29.5758 6.167 0.253
29.5963 5.458 0.238
29.6168 5.615 0.242
29.6372 5.969 0.249
29.6577 5.792 0.246
29.6781 5.792 0.246
29.6986 5.708 0.244
29.7191 5.583 0.241
29.7395 5.625 0.242
29.7600 5.573 0.241
29.7805 5.490 0.239
29.8009 5.781 0.245
29.8214 5.229 0.233
29.8418 5.792 0.246
29.8623 6.458 0.259
29.8828 6.573 0.262
29.9032 6.688 0.264
29.9237 6.479 0.260
29.9442 5.792 0.246
29.9646 5.990 0.250
29.9851 6.510 0.260
30.0055 6.188 0.254
30.0260 5.938 0.249
30.0465 5.958 0.249
30.0669 5.615 0.242
30.0874 5.688 0.243
30.1079 5.781 0.245
30.1283 6.240 0.255
30.1488 5.750 0.245
30.1692 5.813 0.246
30.1897 5.542 0.240
30.2102 5.896 0.248
30.2306 5.625 0.242
30.2511 5.625 0.242
30.2716 5.354 0.236
30.2920 5.229 0.233
30.3125 5.646 0.243
30.3329 5.854 0.247
30.3534 5.500 0.239
30.3739 5.375 0.237
30.3943 5.823 0.246
30.4148 5.729 0.244
30.4353 5.896 0.248
30.4557 5.740 0.245
30.4762 5.438 0.238
30.4967 5.708 0.244
30.5171 5.792 0.246
30.5376 5.635 0.242
30.5580 5.563 0.241
30.5785 6.094 0.252
30.5990 5.854 0.247
30.6194 5.417 0.238
30.6399 5.615 0.242
30.6604 5.510 0.240
30.6808 5.896 0.248
30.7013 5.854 0.247
30.7217 5.885 0.248
30.7422 6.833 0.267
30.7627 6.281 0.256
30.7831 6.979 0.270
30.8036 6.896 0.268
30.8241 8.010 0.289
30.8445 7.396 0.278
30.8650 8.167 0.292
30.8854 8.979 0.306
30.9059 11.177 0.341
30.9264 14.083 0.383
30.9468 21.042 0.468
30.9673 33.906 0.594
30.9878 52.063 0.736
31.0082 61.740 0.802
31.0287 48.552 0.711
31.0491 37.719 0.627
31.0696 36.490 0.617
31.0901 35.406 0.607
31.1105 24.896 0.509
31.1310 15.979 0.408
31.1515 11.302 0.343
31.1719 9.271 0.311
31.1924 8.313 0.294
31.2128 7.292 0.276
31.2333 6.979 0.270
31.2538 7.042 0.271
31.2742 6.240 0.255
31.2947 7.031 0.271
31.3152 5.990 0.250
31.3356 6.031 0.251
31.3561 5.990 0.250
31.3766 5.698 0.244
31.3970 5.604 0.242
31.4175 5.740 0.245
31.4379 6.198 0.254
31.4584 5.729 0.244
31.4789 6.281 0.256
31.4993 6.240 0.255
31.5198 5.646 0.243
31.5403 5.688 0.243
31.5607 5.573 0.241
31.5812 5.740 0.245
31.6016 5.365 0.236
31.6221 5.719 0.244
31.6426 5.250 0.234
31.6630 5.438 0.238
31.6835 6.000 0.250
31.7040 6.406 0.258
31.7244 5.958 0.249
31.7449 5.854 0.247
31.7653 6.292 0.256
31.7858 5.958 0.249
31.8063 6.781 0.266
31.8267 7.052 0.271
31.8472 7.094 0.272
31.8677 7.750 0.284
31.8881 7.729 0.284
31.9086 8.250 0.293
31.9290 8.292 0.294
31.9495 7.604 0.281
31.9700 7.302 0.276
31.9904 7.948 0.288
32.0109 7.792 0.285
32.0314 8.271 0.294
32.0518 9.260 0.311
32.0723 10.813 0.336
32.0927 11.656 0.348
32.1132 10.500 0.331
32.1337 10.052 0.324
32.1541 9.281 0.311
32.1746 9.219 0.310
32.1951 8.323 0.294
32.2155 7.104 0.272
32.2360 6.854 0.267
32.2565 6.594 0.262
32.2769 6.594 0.262
32.2974 6.177 0.254
32.3178 6.573 0.262
32.3383 6.344 0.257
32.3588 5.906 0.248
32.3792 6.646 0.263
32.3997 6.990 0.270
32.4202 7.542 0.280
32.4406 7.708 0.283
32.4611 7.958 0.288
32.4815 9.167 0.309
32.5020 9.604 0.316
32.5225 11.385 0.344
32.5429 13.896 0.380
32.5634 18.281 0.436
32.5839 24.302 0.503
32.6043 29.719 0.556
32.6248 27.573 0.536
32.6452 21.396 0.472
32.6657 17.896 0.432
32.6862 19.542 0.451
32.7066 17.552 0.428
32.7271 12.323 0.358
32.7476 9.219 0.310
32.7680 8.177 0.292
32.7885 6.771 0.266
32.8089 6.635 0.263
32.8294 6.552 0.261
32.8499 6.073 0.252
32.8703 6.479 0.260
32.8908 6.198 0.254
32.9113 6.115 0.252
32.9317 5.438 0.238
32.9522 6.073 0.252
32.9726 5.813 0.246
32.9931 5.552 0.240
33.0136 5.583 0.241
33.0340 5.271 0.234
33.0545 5.563 0.241
33.0750 5.604 0.242
33.0954 5.938 0.249
33.1159 5.792 0.246
33.1364 5.656 0.243
33.1568 6.063 0.251
33.1773 5.083 0.230
33.1977 5.469 0.239
33.2182 5.729 0.244
33.2387 5.146 0.232
33.2591 5.365 0.236
33.2796 5.427 0.238
33.3001 5.771 0.245
33.3205 5.510 0.240
33.3410 5.385 0.237
33.3614 5.719 0.244
33.3819 5.375 0.237
33.4024 5.625 0.242
33.4228 5.417 0.238
33.4433 5.125 0.231
33.4638 5.208 0.233
33.4842 5.458 0.238
33.5047 5.125 0.231
33.5251 5.208 0.233
33.5456 4.948 0.227
33.5661 5.250 0.234
33.5865 5.448 0.238
33.6070 5.333 0.236
33.6275 5.156 0.232
33.6479 5.198 0.233
33.6684 5.344 0.236
33.6888 5.083 0.230
33.7093 5.583 0.241
33.7298 5.063 0.230
33.7502 6.073 0.252
33.7707 5.552 0.240
33.7912 5.844 0.247
33.8116 5.646 0.243
33.8321 5.719 0.244
33.8526 5.969 0.249
33.8730 5.094 0.230
33.8935 5.406 0.237
33.9139 5.458 0.238
33.9344 5.073 0.230
33.9549 4.979 0.228
33.9753 5.031 0.229
33.9958 5.260 0.234
34.0163 5.438 0.238
34.0367 5.521 0.240
34.0572 5.542 0.240
34.0776 5.396 0.237
34.0981 5.198 0.233
34.1186 5.375 0.237
34.1390 5.417 0.238
34.1595 5.333 0.236
34.1800 5.156 0.232
34.2004 5.365 0.236
34.2209 5.385 0.237
34.2413 5.146 0.232
34.2618 5.531 0.240
34.2823 5.573 0.241
34.3027 4.604 0.219
34.3232 5.021 0.229
34.3437 4.938 0.227
34.3641 4.906 0.226
34.3846 5.156 0.232
34.4050 5.406 0.237
34.4255 4.854 0.225
34.4460 5.000 0.228
34.4664 4.885 0.226
34.4869 5.448 0.238
34.5074 5.198 0.233
34.5278 5.250 0.234
34.5483 4.677 0.221
34.5687 5.208 0.233
34.5892 4.688 0.221
34.6097 4.792 0.223
34.6301 5.292 0.235
34.6506 4.771 0.223
34.6711 5.052 0.229
34.6915 4.688 0.221
34.7120 5.229 0.233
34.7325 4.896 0.226
34.7529 5.063 0.230
34.7734 5.156 0.232
34.7938 5.010 0.228
34.8143 5.198 0.233
34.8348 5.167 0.232
34.8552 5.260 0.234
34.8757 5.042 0.229
34.8962 4.854 0.225
34.9166 5.042 0.229
34.9371 5.500 0.239
34.9575 4.885 0.226
34.9780 5.271 0.234
34.9985 5.698 0.244
35.0189 5.115 0.231
35.0394 5.271 0.234
35.0599 5.260 0.234
35.0803 5.188 0.232
35.1008 5.333 0.236
35.1212 5.208 0.233
35.1417 5.448 0.238
35.1622 5.344 0.236
35.1826 4.979 0.228
35.2031 5.115 0.231
35.2236 5.313 0.235
35.2440 5.844 0.247
35.2645 5.344 0.236
35.2849 5.135 0.231
35.3054 5.385 0.237
35.3259 5.531 0.240
35.3463 5.458 0.238
35.3668 5.313 0.235
35.3873 4.885 0.226
35.4077 5.573 0.241
35.4282 5.396 0.237
35.4486 5.688 0.243
35.4691 5.344 0.236
35.4896 5.292 0.235
35.5100 5.125 0.231
35.5305 4.958 0.227
35.5510 5.313 0.235
35.5714 4.823 0.224
35.5919 4.615 0.219
35.6124 5.260 0.234
35.6328 5.323 0.235
35.6533 5.500 0.239
35.6737 5.250 0.234
35.6942 5.594 0.241
35.7147 5.479 0.239
35.7351 5.896 0.248
35.7556 5.583 0.241
35.7761 5.979 0.250
35.7965 5.927 0.248
35.8170 5.781 0.245
35.8374 6.104 0.252
35.8579 6.135 0.253
35.8784 5.583 0.241
35.8988 6.281 0.256
35.9193 5.948 0.249
35.9398 5.875 0.247
35.9602 6.292 0.256
35.9807 6.417 0.259
36.0011 6.698 0.264
36.0216 6.729 0.265
36.0421 7.219 0.274
36.0625 7.844 0.286
36.0830 8.281 0.294
36.1035 9.146 0.309
36.1239 9.854 0.320
36.1444 9.635 0.317
36.1648 8.948 0.305
36.1853 9.125 0.308
36.2058 9.458 0.314
36.2262 9.219 0.310
36.2467 9.000 0.306
36.2672 9.510 0.315
36.2876 10.427 0.330
36.3081 11.229 0.342
36.3285 12.240 0.357
36.3490 12.667 0.363
36.3695 13.781 0.379
36.3899 14.813 0.393
36.4104 15.396 0.400
36.4309 14.990 0.395
36.4513 16.792 0.418
36.4718 17.229 0.424
36.4923 19.625 0.452
36.5127 21.375 0.472
36.5332 26.208 0.522
36.5536 33.552 0.591
36.5741 43.573 0.674
36.5946 45.354 0.687
36.6150 38.271 0.631
36.6355 32.625 0.583
36.6560 29.073 0.550
36.6764 29.771 0.557
36.6969 27.708 0.537
36.7173 21.031 0.468
36.7378 16.781 0.418
36.7583 14.052 0.383
36.7787 12.854 0.366
36.7992 12.542 0.361
36.8197 12.188 0.356
36.8401 12.333 0.358
36.8606 13.229 0.371
36.8810 12.646 0.363
36.9015 13.490 0.375
36.9220 14.750 0.392
36.9424 15.375 0.400
36.9629 18.563 0.440
36.9834 23.844 0.498
37.0038 30.979 0.568
37.0243 43.208 0.671
37.0447 56.313 0.766
37.0652 64.156 0.817
37.0857 54.240 0.752
37.1061 40.885 0.653
37.1266 38.292 0.632
37.1471 37.708 0.627
37.1675 36.531 0.617
37.1880 27.708 0.537
37.2084 19.021 0.445
37.2289 14.635 0.390
37.2494 11.833 0.351
37.2698 10.396 0.329
37.2903 9.479 0.314
37.3108 8.927 0.305
37.3312 8.813 0.303
37.3517 8.365 0.295
37.3722 8.052 0.290
37.3926 8.240 0.293
37.4131 7.698 0.283
37.4335 7.573 0.281
37.4540 8.677 0.301
37.4745 8.427 0.296
37.4949 9.052 0.307
37.5154 9.292 0.311
37.5359 9.698 0.318
37.5563 11.656 0.348
37.5768 12.823 0.365
37.5972 13.583 0.376
37.6177 16.458 0.414
37.6382 17.729 0.430
37.6586 19.854 0.455
37.6791 19.740 0.453
37.6996 17.615 0.428
37.7200 17.854 0.431
37.7405 16.417 0.414
37.7609 15.510 0.402
37.7814 14.625 0.390
37.8019 13.719 0.378
37.8223 12.573 0.362
37.8428 11.760 0.350
37.8633 11.510 0.346
37.8837 11.042 0.339
37.9042 12.531 0.361
37.9246 14.177 0.384
37.9451 17.625 0.428
37.9656 21.719 0.476
37.9860 29.625 0.556
38.0065 33.719 0.593
38.0270 27.500 0.535
38.0474 22.292 0.482
38.0679 21.719 0.476
38.0884 22.667 0.486
38.1088 21.792 0.476
38.1293 17.813 0.431
38.1497 14.646 0.391
38.1702 12.021 0.354
38.1907 11.250 0.342
38.2111 10.219 0.326
38.2316 10.688 0.334
38.2521 9.854 0.320
38.2725 9.781 0.319
38.2930 10.208 0.326
38.3134 9.813 0.320
38.3339 9.813 0.320
38.3544 10.250 0.327
38.3748 11.448 0.345
38.3953 13.469 0.375
38.4158 16.323 0.412
38.4362 18.313 0.437
38.4567 18.396 0.438
38.4771 15.646 0.404
38.4976 13.240 0.371
38.5181 13.708 0.378
38.5385 13.281 0.372
38.5590 13.385 0.373
38.5795 10.396 0.329
38.5999 9.292 0.311
38.6204 8.948 0.305
38.6408 7.792 0.285
38.6613 8.344 0.295
38.6818 7.917 0.287
38.7022 7.292 0.276
38.7227 7.260 0.275
38.7432 7.052 0.271
38.7636 6.615 0.262
38.7841 6.865 0.267
38.8045 6.292 0.256
38.8250 6.927 0.269
38.8455 7.021 0.270
38.8659 6.563 0.261
38.8864 6.896 0.268
38.9069 6.646 0.263
38.9273 6.927 0.269
38.9478 6.583 0.262
38.9683 6.354 0.257
38.9887 6.885 0.268
39.0092 6.604 0.262
39.0296 6.656 0.263
39.0501 6.615 0.262
39.0706 6.438 0.259
39.0910 6.760 0.265
39.1115 6.760 0.265
39.1320 7.125 0.272
39.1524 7.188 0.274
39.1729 7.833 0.286
39.1933 8.302 0.294
39.2138 8.375 0.295
39.2343 8.781 0.302
39.2547 9.469 0.314
39.2752 10.104 0.324
39.2957 10.333 0.328
39.3161 10.156 0.325
39.3366 10.396 0.329
39.3570 10.469 0.330
39.3775 9.552 0.315
39.3980 9.510 0.315
39.4184 8.656 0.300
39.4389 8.396 0.296
39.4594 8.406 0.296
39.4798 7.510 0.280
39.5003 7.656 0.282
39.5207 6.531 0.261
39.5412 6.875 0.268
39.5617 6.792 0.266
39.5821 6.385 0.258
39.6026 6.844 0.267
39.6231 6.740 0.265
39.6435 6.406 0.258
39.6640 6.938 0.269
39.6844 7.688 0.283
39.7049 7.635 0.282
39.7254 8.896 0.304
39.7458 10.740 0.334
39.7663 12.469 0.360
39.7868 13.781 0.379
39.8072 12.854 0.366
39.8277 11.365 0.344
39.8482 10.469 0.330
39.8686 10.438 0.330
39.8891 11.240 0.342
39.9095 10.427 0.330
39.9300 9.396 0.313
39.9505 8.823 0.303
39.9709 8.688 0.301
39.9914 8.990 0.306
40.0119 9.385 0.313
40.0323 9.542 0.315
40.0528 10.510 0.331
40.0732 11.635 0.348
40.0937 12.417 0.360
40.1142 12.573 0.362
40.1346 12.760 0.365
40.1551 13.333 0.373
40.1756 14.656 0.391
40.1960 16.260 0.412
40.2165 21.844 0.477
40.2369 30.271 0.562
40.2574 34.479 0.599
40.2779 23.771 0.498
40.2983 17.333 0.425
40.3188 15.958 0.408
40.3393 18.760 0.442
40.3597 20.531 0.462
40.3802 15.927 0.407
40.4006 11.792 0.350
40.4211 9.365 0.312
40.4416 7.875 0.286
40.4620 7.521 0.280
40.4825 7.667 0.283
40.5030 6.979 0.270
40.5234 6.917 0.268
40.5439 6.073 0.252
40.5643 6.740 0.265
40.5848 6.344 0.257
40.6053 6.219 0.255
40.6257 6.104 0.252
40.6462 6.292 0.256
40.6667 6.375 0.258
40.6871 6.104 0.252
40.7076 6.594 0.262
40.7281 6.875 0.268
40.7485 5.927 0.248
40.7690 6.677 0.264
40.7894 6.813 0.266
40.8099 6.646 0.263
40.8304 7.000 0.270
40.8508 6.813 0.266
40.8713 7.229 0.274
40.8918 7.146 0.273
40.9122 7.563 0.281
40.9327 7.656 0.282
40.9531 8.531 0.298
40.9736 9.719 0.318
40.9941 9.823 0.320
41.0145 12.010 0.354
41.0350 13.719 0.378
41.0555 16.635 0.416
41.0759 22.406 0.483
41.0964 28.917 0.549
41.1168 30.510 0.564
41.1373 26.281 0.523
41.1578 20.198 0.459
41.1782 18.833 0.443
41.1987 20.875 0.466
41.2192 20.406 0.461
41.2396 17.375 0.425
41.2601 12.854 0.366
41.2805 10.781 0.335
41.3010 10.042 0.323
41.3215 8.500 0.298
41.3419 7.927 0.287
41.3624 7.208 0.274
41.3829 7.167 0.273
41.4033 7.229 0.274
41.4238 7.823 0.285
41.4442 6.969 0.269
41.4647 6.865 0.267
41.4852 7.083 0.272
41.5056 7.344 0.277
41.5261 7.490 0.279
41.5466 7.479 0.279
41.5670 8.042 0.289
41.5875 8.417 0.296
41.6080 9.188 0.309
41.6284 9.667 0.317
41.6489 10.083 0.324
41.6693 10.979 0.338
41.6898 10.885 0.337
41.7103 9.875 0.321
41.7307 9.906 0.321
41.7512 9.604 0.316
41.7717 9.344 0.312
41.7921 9.177 0.309
41.8126 8.375 0.295
41.8330 8.531 0.298
41.8535 8.271 0.294
41.8740 7.375 0.277
41.8944 7.458 0.279
41.9149 7.010 0.270
41.9354 7.094 0.272
41.9558 6.146 0.253
41.9763 6.188 0.254
41.9967 6.146 0.253
42.0172 6.354 0.257
42.0377 6.052 0.251
42.0581 5.854 0.247
42.0786 5.427 0.238
42.0991 5.854 0.247
42.1195 5.302 0.235
42.1400 5.740 0.245
42.1604 5.625 0.242
42.1809 5.875 0.247
42.2014 5.583 0.241
42.2218 5.469 0.239
42.2423 5.688 0.243
42.2628 5.958 0.249
42.2832 5.594 0.241
42.3037 5.510 0.240
42.3242 5.479 0.239
42.3446 6.135 0.253
42.3651 6.229 0.255
42.3855 5.938 0.249
42.4060 6.021 0.250
42.4265 6.115 0.252
42.4469 5.927 0.248
42.4674 5.990 0.250
42.4879 6.198 0.254
42.5083 6.542 0.261
42.5288 5.896 0.248
42.5492 6.125 0.253
42.5697 6.063 0.251
42.5902 5.729 0.244
42.6106 5.948 0.249
42.6311 6.073 0.252
42.6516 6.510 0.260
42.6720 5.854 0.247
42.6925 6.438 0.259
42.7129 6.052 0.251
42.7334 6.365 0.257
42.7539 6.625 0.263
42.7743 6.333 0.257
42.7948 6.052 0.251
42.8153 5.698 0.244
42.8357 6.760 0.265
42.8562 5.990 0.250
42.8766 5.906 0.248
42.8971 5.781 0.245
42.9176 5.938 0.249
42.9380 5.583 0.241
42.9585 5.948 0.249
42.9790 6.479 0.260
42.9994 6.094 0.252
43.0199 6.646 0.263
43.0403 6.302 0.256
43.0608 6.250 0.255
43.0813 6.625 0.263
43.1017 6.844 0.267
43.1222 7.052 0.271
43.1427 8.135 0.291
43.1631 8.292 0.294
43.1836 9.406 0.313
43.2041 9.677 0.317
43.2245 9.813 0.320
43.2450 9.198 0.310
43.2654 9.063 0.307
43.2859 8.802 0.303
43.3064 9.177 0.309
43.3268 9.906 0.321
43.3473 9.250 0.310
43.3678 9.302 0.311
43.3882 8.531 0.298
43.4087 9.458 0.314
43.4291 9.969 0.322
43.4496 10.177 0.326
43.4701 11.115 0.340
43.4905 11.865 0.352
43.5110 14.490 0.389
43.5315 15.885 0.407
43.5519 20.594 0.463
43.5724 25.885 0.519
43.5928 34.740 0.602
43.6133 38.792 0.636
43.6338 37.510 0.625
43.6542 28.563 0.545
43.6747 23.229 0.492
43.6952 23.250 0.492
43.7156 24.385 0.504
43.7361 24.677 0.507
43.7565 19.688 0.453
43.7770 15.115 0.397
43.7975 12.104 0.355
43.8179 10.698 0.334
43.8384 9.958 0.322
43.8589 8.677 0.301
43.8793 8.917 0.305
43.8998 8.740 0.302
43.9202 8.021 0.289
43.9407 8.240 0.293
43.9612 8.875 0.304
43.9816 8.563 0.299
44.0021 8.854 0.304
44.0226 9.083 0.308
44.0430 9.750 0.319
44.0635 10.229 0.326
44.0840 10.688 0.334
44.1044 12.292 0.358
44.1249 13.521 0.375
44.1453 13.604 0.376
44.1658 13.229 0.371
44.1863 12.760 0.365
44.2067 12.615 0.362
44.2272 12.438 0.360
44.2477 11.656 0.348
44.2681 11.073 0.340
44.2886 10.177 0.326
44.3090 9.510 0.315
44.3295 9.010 0.306
44.3500 8.365 0.295
44.3704 7.615 0.282
44.3909 7.833 0.286
44.4114 7.625 0.282
44.4318 7.583 0.281
44.4523 7.333 0.276
44.4727 7.604 0.281
44.4932 7.667 0.283
44.5137 7.813 0.285
44.5341 7.854 0.286
44.5546 7.750 0.284
44.5751 7.115 0.272
44.5955 7.031 0.271
44.6160 7.198 0.274
44.6364 6.698 0.264
44.6569 6.135 0.253
44.6774 5.990 0.250
44.6978 6.323 0.257
44.7183 6.177 0.254
44.7388 6.375 0.258
44.7592 6.240 0.255
44.7797 5.969 0.249
44.8001 5.740 0.245
44.8206 6.135 0.253
44.8411 6.135 0.253
44.8615 5.760 0.245
44.8820 5.729 0.244
44.9025 4.969 0.228
44.9229 5.552 0.240
44.9434 5.521 0.240
44.9639 5.406 0.237
44.9843 6.000 0.250
45.0048 5.896 0.248
45.0252 6.146 0.253
45.0457 6.510 0.260
45.0662 5.844 0.247
45.0866 6.708 0.264
45.1071 6.865 0.267
45.1276 7.792 0.285
45.1480 8.094 0.290
45.1685 9.188 0.309
45.1889 11.750 0.350
45.2094 13.479 0.375
45.2299 15.698 0.404
45.2503 13.969 0.381
45.2708 12.323 0.358
45.2913 11.594 0.348
45.3117 11.927 0.352
45.3322 13.198 0.371
45.3526 13.750 0.378
45.3731 13.594 0.376
45.3936 12.427 0.360
45.4140 12.156 0.356
45.4345 12.021 0.354
45.4550 11.792 0.350
45.4754 10.542 0.331
45.4959 10.281 0.327
45.5163 9.333 0.312
45.5368 9.635 0.317
45.5573 9.302 0.311
45.5777 8.354 0.295
45.5982 7.875 0.286
45.6187 7.375 0.277
45.6391 6.927 0.269
45.6596 6.958 0.269
45.6800 6.188 0.254
45.7005 6.177 0.254
45.7210 5.635 0.242
45.7414 5.740 0.245
45.7619 5.771 0.245
45.7824 5.438 0.238
45.8028 5.479 0.239
45.8233 5.417 0.238
45.8438 5.427 0.238
45.8642 5.344 0.236
45.8847 5.313 0.235
45.9051 5.365 0.236
45.9256 5.063 0.230
45.9461 4.958 0.227
45.9665 5.427 0.238
45.9870 5.010 0.228
46.0075 5.250 0.234
46.0279 5.448 0.238
46.0484 5.115 0.231
46.0688 5.469 0.239
46.0893 5.354 0.236
46.1098 5.417 0.238
46.1302 5.510 0.240
46.1507 5.823 0.246
46.1712 6.229 0.255
46.1916 5.906 0.248
46.2121 5.469 0.239
46.2325 5.802 0.246
46.2530 5.750 0.245
46.2735 5.396 0.237
46.2939 5.292 0.235
46.3144 5.115 0.231
46.3349 4.896 0.226
46.3553 4.917 0.226
46.3758 4.760 0.223
46.3962 5.438 0.238
46.4167 4.635 0.220
46.4372 4.604 0.219
46.4576 4.823 0.224
46.4781 4.823 0.224
46.4986 4.708 0.221
46.5190 4.781 0.223
46.5395 4.844 0.225
46.5600 4.469 0.216
46.5804 4.719 0.222
46.6009 4.604 0.219
46.6213 4.792 0.223
46.6418 4.760 0.223
46.6623 4.531 0.217
46.6827 4.354 0.213
46.7032 4.750 0.222
46.7237 4.750 0.222
46.7441 5.094 0.230
46.7646 5.031 0.229
46.7850 4.375 0.213
46.8055 4.375 0.213
46.8260 4.417 0.214
46.8464 4.625 0.219
46.8669 4.573 0.218
46.8874 4.625 0.219
46.9078 4.281 0.211
46.9283 4.740 0.222
46.9487 4.688 0.221
46.9692 4.583 0.219
46.9897 4.708 0.221
47.0101 4.802 0.224
47.0306 4.500 0.217
47.0511 4.698 0.221
47.0715 5.125 0.231
47.0920 5.135 0.231
47.1124 5.229 0.233
47.1329 5.094 0.230
47.1534 5.208 0.233
47.1738 6.146 0.253
47.1943 5.896 0.248
47.2148 6.146 0.253
47.2352 6.208 0.254
47.2557 6.531 0.261
47.2761 7.052 0.271
47.2966 7.240 0.275
47.3171 8.823 0.303
47.3375 8.771 0.302
47.3580 9.896 0.321
47.3785 9.031 0.307
47.3989 9.979 0.322
47.4194 10.458 0.330
47.4399 10.583 0.332
47.4603 10.281 0.327
47.4808 10.625 0.333
47.5012 12.250 0.357
47.5217 13.896 0.380
47.5422 16.969 0.420
47.5626 21.000 0.468
47.5831 24.229 0.502
47.6036 22.917 0.489
47.6240 17.552 0.428
47.6445 14.510 0.389
47.6649 13.479 0.375
47.6854 13.479 0.375
47.7059 15.792 0.406
47.7263 15.250 0.399
47.7468 11.885 0.352
47.7673 9.719 0.318
47.7877 8.344 0.295
47.8082 7.490 0.279
47.8286 6.927 0.269
47.8491 6.625 0.263
47.8696 6.177 0.254
47.8900 6.438 0.259
47.9105 5.677 0.243
47.9310 6.250 0.255
47.9514 5.875 0.247
47.9719 5.521 0.240
47.9923 5.719 0.244
48.0128 5.521 0.240
48.0333 5.198 0.233
48.0537 5.604 0.242
48.0742 5.208 0.233
48.0947 5.385 0.237
48.1151 5.135 0.231
48.1356 5.375 0.237
48.1560 5.115 0.231
48.1765 4.833 0.224
48.1970 5.302 0.235
48.2174 5.042 0.229
48.2379 5.271 0.234
48.2584 5.781 0.245
48.2788 6.021 0.250
48.2993 6.073 0.252
48.3198 6.802 0.266
48.3402 6.646 0.263
48.3607 6.385 0.258
48.3811 5.813 0.246
48.4016 5.563 0.241
48.4221 6.135 0.253
48.4425 5.802 0.246
48.4630 5.750 0.245
48.4835 5.854 0.247
48.5039 5.438 0.238
48.5244 5.427 0.238
48.5448 5.250 0.234
48.5653 4.792 0.223
48.5858 5.365 0.236
48.6062 4.844 0.225
48.6267 5.677 0.243
48.6472 5.844 0.247
48.6676 6.417 0.259
48.6881 7.083 0.272
48.7085 7.573 0.281
48.7290 7.073 0.271
48.7495 6.073 0.252
48.7699 6.313 0.256
48.7904 5.990 0.250
48.8109 6.208 0.254
48.8313 6.063 0.251
48.8518 5.604 0.242
48.8722 5.833 0.247
48.8927 5.615 0.242
48.9132 4.677 0.221
48.9336 4.781 0.223
48.9541 5.115 0.231
48.9746 4.813 0.224
48.9950 4.646 0.220
49.0155 4.740 0.222
49.0359 4.823 0.224
49.0564 4.573 0.218
49.0769 4.750 0.222
49.0973 4.615 0.219
49.1178 4.875 0.225
49.1383 5.031 0.229
49.1587 4.865 0.225
49.1792 4.958 0.227
49.1997 4.885 0.226
49.2201 4.802 0.224
49.2406 4.625 0.219
49.2610 4.469 0.216
49.2815 4.969 0.228
49.3020 4.781 0.223
49.3224 4.885 0.226
49.3429 5.125 0.231
49.3634 5.094 0.230
49.3838 5.302 0.235
49.4043 5.156 0.232
49.4247 4.781 0.223
49.4452 5.344 0.236
49.4657 4.885 0.226
49.4861 4.896 0.226
49.5066 5.302 0.235
49.5271 5.260 0.234
49.5475 5.500 0.239
49.5680 5.615 0.242
49.5884 5.594 0.241
49.6089 6.094 0.252
49.6294 5.979 0.250
49.6498 6.875 0.268
49.6703 7.010 0.270
49.6908 7.896 0.287
49.7112 8.271 0.294
49.7317 10.198 0.326
49.7521 12.052 0.354
49.7726 15.260 0.399
49.7931 20.198 0.459
49.8135 24.677 0.507
49.8340 28.417 0.544
49.8545 24.042 0.500
49.8749 18.948 0.444
49.8954 16.438 0.414
49.9158 16.063 0.409
49.9363 16.771 0.418
49.9568 17.948 0.432
49.9772 17.250 0.424
49.9977 13.677 0.377
50.0182 11.885 0.352
50.0386 9.667 0.317
50.0591 8.156 0.291
50.0796 8.010 0.289
50.1000 7.823 0.285
50.1205 7.781 0.285
50.1409 9.146 0.309
50.1614 10.000 0.323
50.1819 10.771 0.335
50.2023 9.854 0.320
50.2228 9.479 0.314
50.2433 8.552 0.298
50.2637 7.906 0.287
50.2842 8.521 0.298
50.3046 9.427 0.313
50.3251 8.927 0.305
50.3456 8.896 0.304
50.3660 8.844 0.304
50.3865 8.448 0.297
50.4070 8.948 0.305
50.4274 8.760 0.302
50.4479 10.438 0.330
50.4683 10.313 0.328
50.4888 10.229 0.326
50.5093 11.510 0.346
50.5297 11.198 0.342
50.5502 10.417 0.329
50.5707 10.615 0.333
50.5911 9.958 0.322
50.6116 10.031 0.323
50.6320 10.198 0.326
50.6525 9.344 0.312
50.6730 9.052 0.307
50.6934 8.313 0.294
50.7139 7.833 0.286
50.7344 7.656 0.282
50.7548 7.594 0.281
50.7753 6.729 0.265
50.7958 6.802 0.266
50.8162 6.708 0.264
50.8367 7.010 0.270
50.8571 7.240 0.275
50.8776 7.438 0.278
50.8981 8.948 0.305
50.9185 10.094 0.324
50.9390 13.344 0.373
50.9595 13.792 0.379
50.9799 10.865 0.336
51.0004 8.885 0.304
51.0208 7.344 0.277
51.0413 7.698 0.283
51.0618 8.531 0.298
51.0822 8.885 0.304
51.1027 9.042 0.307
51.1232 7.083 0.272
51.1436 5.510 0.240
51.1641 5.760 0.245
51.1845 5.510 0.240
51.2050 5.771 0.245
51.2255 5.604 0.242
51.2459 5.917 0.248
51.2664 6.135 0.253
51.2869 6.146 0.253
51.3073 6.208 0.254
51.3278 6.021 0.250
51.3482 5.167 0.232
51.3687 5.542 0.240
51.3892 5.750 0.245
51.4096 5.917 0.248
51.4301 5.417 0.238
51.4506 5.458 0.238
51.4710 5.125 0.231
51.4915 5.229 0.233
51.5119 4.813 0.224
51.5324 5.469 0.239
51.5529 5.156 0.232
51.5733 5.875 0.247
51.5938 6.604 0.262
51.6143 7.167 0.273
51.6347 8.271 0.294
51.6552 9.406 0.313
51.6757 8.802 0.303
51.6961 7.615 0.282
51.7166 6.792 0.266
51.7370 6.833 0.267
51.7575 6.833 0.267
51.7780 6.708 0.264
51.7984 6.948 0.269
51.8189 6.958 0.269
51.8394 5.885 0.248
51.8598 5.479 0.239
51.8803 5.385 0.237
51.9007 5.563 0.241
51.9212 5.302 0.235
51.9417 5.010 0.228
51.9621 5.469 0.239
51.9826 5.927 0.248
52.0031 5.833 0.247
52.0235 6.156 0.253
52.0440 6.802 0.266
52.0644 6.615 0.262
52.0849 7.656 0.282
52.1054 7.969 0.288
52.1258 8.865 0.304
52.1463 9.354 0.312
52.1668 9.156 0.309
52.1872 9.385 0.313
52.2077 9.031 0.307
52.2281 8.719 0.301
52.2486 8.656 0.300
52.2691 8.344 0.295
52.2895 8.635 0.300
52.3100 8.198 0.292
52.3305 7.833 0.286
52.3509 7.854 0.286
52.3714 7.906 0.287
52.3918 6.917 0.268
52.4123 6.292 0.256
52.4328 6.458 0.259
52.4532 6.240 0.255
52.4737 5.927 0.248
52.4942 5.854 0.247
52.5146 5.688 0.243
52.5351 5.823 0.246
52.5556 5.917 0.248
52.5760 5.094 0.230
52.5965 5.063 0.230
52.6169 5.219 0.233
52.6374 5.063 0.230
52.6579 5.281 0.235
52.6783 5.146 0.232
52.6988 4.563 0.218
52.7193 4.979 0.228
52.7397 4.635 0.220
52.7602 4.563 0.218
52.7806 4.948 0.227
52.8011 4.563 0.218
52.8216 4.573 0.218
52.8420 4.333 0.212
52.8625 4.260 0.211
52.8830 3.969 0.203
52.9034 3.979 0.204
52.9239 3.688 0.196
52.9443 4.021 0.205
52.9648 3.760 0.198
52.9853 3.990 0.204
53.0057 3.969 0.203
53.0262 3.500 0.191
53.0467 3.781 0.198
53.0671 3.917 0.202
53.0876 3.833 0.200
53.1080 3.813 0.199
53.1285 3.563 0.193
53.1490 3.698 0.196
53.1694 3.667 0.195
53.1899 3.521 0.192
53.2104 3.510 0.191
53.2308 3.979 0.204
53.2513 3.594 0.193
53.2717 4.073 0.206
53.2922 3.531 0.192
53.3127 3.646 0.195
53.3331 3.740 0.197
53.3536 3.604 0.194
53.3741 3.740 0.197
53.3945 3.771 0.198
53.4150 3.708 0.197
53.4355 3.469 0.190
53.4559 3.406 0.188
53.4764 3.781 0.198
53.4968 4.021 0.205
53.5173 3.854 0.200
53.5378 3.875 0.201
53.5582 3.781 0.198
53.5787 3.875 0.201
53.5992 4.031 0.205
53.6196 4.146 0.208
53.6401 3.552 0.192
53.6605 3.979 0.204
53.6810 3.875 0.201
53.7015 3.875 0.201
53.7219 3.979 0.204
53.7424 4.010 0.204
53.7629 3.719 0.197
53.7833 4.344 0.213
53.8038 4.313 0.212
53.8242 4.146 0.208
53.8447 4.240 0.210
53.8652 4.385 0.214
53.8856 4.063 0.206
53.9061 4.573 0.218
53.9266 4.042 0.205
53.9470 4.188 0.209
53.9675 4.438 0.215
53.9879 4.156 0.208
54.0084 4.708 0.221
54.0289 4.844 0.225
54.0493 4.667 0.220
54.0698 4.875 0.225
54.0903 5.281 0.235
54.1107 5.760 0.245
54.1312 6.125 0.253
54.1516 6.094 0.252
54.1721 5.938 0.249
54.1926 5.792 0.246
54.2130 5.500 0.239
54.2335 5.542 0.240
54.2540 6.073 0.252
54.2744 6.490 0.260
54.2949 6.677 0.264
54.3154 6.802 0.266
54.3358 7.417 0.278
54.3563 7.229 0.274
54.3767 7.708 0.283
54.3972 8.510 0.298
54.4177 8.729 0.302
54.4381 8.833 0.303
54.4586 8.385 0.296
54.4791 7.896 0.287
54.4995 8.198 0.292
54.5200 8.208 0.292
54.5404 7.635 0.282
54.5609 7.729 0.284
54.5814 7.521 0.280
54.6018 7.021 0.270
54.6223 6.792 0.266
54.6428 6.875 0.268
54.6632 5.792 0.246
54.6837 5.760 0.245
54.7041 6.021 0.250
54.7246 5.521 0.240
54.7451 5.479 0.239
54.7655 5.604 0.242
54.7860 5.323 0.235
54.8065 5.708 0.244
54.8269 5.146 0.232
54.8474 4.865 0.225
54.8678 4.813 0.224
54.8883 4.531 0.217
54.9088 5.094 0.230
54.9292 4.875 0.225
54.9497 5.115 0.231
54.9702 4.948 0.227
54.9906 4.656 0.220
55.0111 5.396 0.237
55.0316 5.406 0.237
55.0520 6.000 0.250
55.0725 6.781 0.266
55.0929 8.458 0.297
55.1134 11.438 0.345
55.1339 16.042 0.409
55.1543 19.021 0.445
55.1748 19.927 0.456
55.1953 15.865 0.407
55.2157 12.271 0.358
55.2362 9.802 0.320
55.2566 10.656 0.333
55.2771 11.500 0.346
55.2976 13.281 0.372
55.3180 13.344 0.373
55.3385 11.385 0.344
55.3590 8.979 0.306
55.3794 7.646 0.282
55.3999 6.979 0.270
55.4203 6.219 0.255
55.4408 5.521 0.240
55.4613 5.385 0.237
55.4817 5.458 0.238
55.5022 5.646 0.243
55.5227 4.781 0.223
55.5431 4.792 0.223
55.5636 4.958 0.227
55.5840 4.531 0.217
55.6045 4.635 0.220
55.6250 3.917 0.202
55.6454 4.854 0.225
55.6659 4.438 0.215
55.6864 4.052 0.205
55.7068 4.240 0.210
55.7273 4.396 0.214
55.7477 4.625 0.219
55.7682 4.813 0.224
55.7887 5.313 0.235
55.8091 5.969 0.249
55.8296 6.906 0.268
55.8501 6.031 0.251
55.8705 6.042 0.251
55.8910 6.063 0.251
55.9115 5.958 0.249
55.9319 5.667 0.243
55.9524 5.458 0.238
55.9728 5.729 0.244
55.9933 5.573 0.241
56.0138 5.917 0.248
56.0342 6.375 0.258
56.0547 6.344 0.257
56.0752 6.615 0.262
56.0956 7.469 0.279
56.1161 8.646 0.300
56.1365 10.208 0.326
56.1570 12.396 0.359
56.1775 14.365 0.387
56.1979 15.510 0.402
56.2184 11.333 0.344
56.2389 9.406 0.313
56.2593 8.375 0.295
56.2798 8.104 0.291
56.3002 8.302 0.294
56.3207 8.771 0.302
56.3412 9.083 0.308
56.3616 8.354 0.295
56.3821 6.479 0.260
56.4026 5.844 0.247
56.4230 4.750 0.222
56.4435 4.708 0.221
56.4639 3.760 0.198
56.4844 4.063 0.206
56.5049 3.938 0.203
56.5253 4.042 0.205
56.5458 4.083 0.206
56.5663 3.729 0.197
56.5867 3.750 0.198
56.6072 3.583 0.193
56.6276 3.885 0.201
56.6481 3.573 0.193
56.6686 3.177 0.182
56.6890 3.479 0.190
56.7095 3.406 0.188
56.7300 3.323 0.186
56.7504 3.146 0.181
56.7709 3.427 0.189
56.7914 3.052 0.178
56.8118 3.198 0.183
56.8323 3.271 0.185
56.8527 3.729 0.197
56.8732 3.344 0.187
56.8937 3.688 0.196
56.9141 3.156 0.181
56.9346 3.281 0.185
56.9551 3.250 0.184
56.9755 3.219 0.183
56.9960 3.250 0.184
57.0164 3.365 0.187
57.0369 3.302 0.185
57.0574 3.323 0.186
57.0778 3.313 0.186
57.0983 3.208 0.183
57.1188 3.510 0.191
57.1392 3.333 0.186
57.1597 3.573 0.193
57.1801 3.198 0.183
57.2006 3.406 0.188
57.2211 3.406 0.188
57.2415 3.563 0.193
57.2620 3.500 0.191
57.2825 3.281 0.185
57.3029 3.375 0.188
57.3234 3.469 0.190
57.3438 3.688 0.196
57.3643 3.688 0.196
57.3848 3.542 0.192
57.4052 3.583 0.193
57.4257 3.417 0.189
57.4462 3.563 0.193
57.4666 3.156 0.181
57.4871 3.688 0.196
57.5075 3.865 0.201
57.5280 4.000 0.204
57.5485 3.385 0.188
57.5689 3.594 0.193
57.5894 3.813 0.199
57.6099 4.292 0.211
57.6303 4.406 0.214
57.6508 4.792 0.223
57.6713 4.958 0.227
57.6917 5.292 0.235
57.7122 5.406 0.237
57.7326 5.438 0.238
57.7531 5.823 0.246
57.7736 6.177 0.254
57.7940 7.292 0.276
57.8145 9.167 0.309
57.8350 10.135 0.325
57.8554 13.271 0.372
57.8759 15.875 0.407
57.8963 17.208 0.423
57.9168 16.521 0.415
57.9373 13.583 0.376
57.9577 11.042 0.339
57.9782 10.604 0.332
57.9987 9.906 0.321
58.0191 11.010 0.339
58.0396 11.917 0.352
58.0600 11.990 0.353
58.0805 10.083 0.324
58.1010 8.615 0.300
58.1214 7.281 0.275
58.1419 6.594 0.262
58.1624 5.615 0.242
58.1828 5.542 0.240
58.2033 4.771 0.223
58.2237 4.938 0.227
58.2442 4.844 0.225
58.2647 4.010 0.204
58.2851 4.490 0.216
58.3056 4.427 0.215
58.3261 4.365 0.213
58.3465 4.240 0.210
58.3670 3.896 0.201
58.3874 3.927 0.202
58.4079 3.990 0.204
58.4284 3.885 0.201
58.4488 4.385 0.214
58.4693 4.115 0.207
58.4898 4.208 0.209
58.5102 4.167 0.208
58.5307 4.281 0.211
58.5512 4.521 0.217
58.5716 4.760 0.223
58.5921 4.813 0.224
58.6125 4.615 0.219
58.6330 4.490 0.216
58.6535 4.208 0.209
58.6739 4.698 0.221
58.6944 4.010 0.204
58.7149 4.219 0.210
58.7353 4.000 0.204
58.7558 3.906 0.202
58.7762 4.073 0.206
58.7967 4.146 0.208
58.8172 3.792 0.199
58.8376 3.594 0.193
58.8581 3.927 0.202
58.8786 3.813 0.199
58.8990 4.396 0.214
58.9195 4.198 0.209
58.9399 4.229 0.210
58.9604 4.302 0.212
58.9809 4.646 0.220
59.0013 4.750 0.222
59.0218 4.125 0.207
59.0423 4.740 0.222
59.0627 4.563 0.218
59.0832 4.500 0.217
59.1036 5.396 0.237
59.1241 5.490 0.239
59.1446 6.896 0.268
59.1650 7.344 0.277
59.1855 8.729 0.302
59.2060 8.792 0.303
59.2264 7.813 0.285
59.2469 6.573 0.262
59.2674 6.104 0.252
59.2878 5.594 0.241
59.3083 5.604 0.242
59.3287 6.250 0.255
59.3492 6.281 0.256
59.3697 6.490 0.260
59.3901 5.760 0.245
59.4106 5.167 0.232
59.4311 4.479 0.216
59.4515 4.990 0.228
59.4720 3.927 0.202
59.4924 4.135 0.208
59.5129 4.094 0.207
59.5334 4.146 0.208
59.5538 3.969 0.203
59.5743 3.646 0.195
59.5948 3.396 0.188
59.6152 3.823 0.200
59.6357 3.719 0.197
59.6561 3.781 0.198
59.6766 3.958 0.203
59.6971 3.958 0.203
59.7175 3.969 0.203
59.7380 4.406 0.214
59.7585 4.688 0.221
59.7789 5.042 0.229
59.7994 5.604 0.242
59.8198 6.552 0.261
59.8403 8.073 0.290
59.8608 9.156 0.309
59.8812 8.823 0.303
59.9017 7.188 0.274
59.9222 6.333 0.257
59.9426 5.948 0.249
59.9631 5.719 0.244
59.9835 6.260 0.255
60.0040 6.250 0.255
60.0245 6.229 0.255
60.0449 6.042 0.251
60.0654 5.729 0.244
60.0859 4.969 0.228
60.1063 4.479 0.216
60.1268 4.188 0.209
60.1473 4.375 0.213
60.1677 4.010 0.204
60.1882 4.083 0.206
60.2086 3.906 0.202
60.2291 3.531 0.192
60.2496 3.938 0.203
60.2700 3.438 0.189
60.2905 3.885 0.201
60.3110 4.188 0.209
60.3314 3.958 0.203
60.3519 3.719 0.197
60.3723 3.729 0.197
60.3928 3.792 0.199
60.4133 3.656 0.195
60.4337 3.604 0.194
60.4542 3.656 0.195
60.4747 3.229 0.183
60.4951 3.833 0.200
60.5156 3.667 0.195
60.5360 3.521 0.192
60.5565 3.385 0.188
60.5770 3.458 0.190
60.5974 3.625 0.194
60.6179 3.781 0.198
60.6384 3.615 0.194
60.6588 3.729 0.197
60.6793 3.260 0.184
60.6997 3.146 0.181
60.7202 3.229 0.183
60.7407 3.604 0.194
60.7611 3.271 0.185
60.7816 3.510 0.191
60.8021 3.802 0.199
60.8225 3.792 0.199
60.8430 3.802 0.199
60.8634 4.083 0.206
60.8839 3.458 0.190
60.9044 3.521 0.192
60.9248 3.365 0.187
60.9453 3.229 0.183
60.9658 3.542 0.192
60.9862 3.563 0.193
61.0067 3.792 0.199
61.0272 3.438 0.189
61.0476 3.521 0.192
61.0681 3.531 0.192
61.0885 3.583 0.193
61.1090 3.281 0.185
61.1295 3.417 0.189
61.1499 3.635 0.195
61.1704 3.625 0.194
61.1909 3.427 0.189
61.2113 2.979 0.176
61.2318 3.583 0.193
61.2522 3.573 0.193
61.2727 3.781 0.198
61.2932 3.500 0.191
61.3136 3.906 0.202
61.3341 3.615 0.194
61.3546 3.281 0.185
61.3750 3.365 0.187
61.3955 3.396 0.188
61.4159 3.438 0.189
61.4364 3.813 0.199
61.4569 3.510 0.191
61.4773 3.708 0.197
61.4978 4.156 0.208
61.5183 4.125 0.207
61.5387 3.875 0.201
61.5592 3.458 0.190
61.5796 3.583 0.193
61.6001 3.250 0.184
61.6206 3.656 0.195
61.6410 3.656 0.195
61.6615 3.656 0.195
61.6820 3.479 0.190
61.7024 3.552 0.192
61.7229 3.375 0.188
61.7433 3.427 0.189
61.7638 3.510 0.191
61.7843 3.354 0.187
61.8047 3.604 0.194
61.8252 3.302 0.185
61.8457 3.688 0.196
61.8661 3.281 0.185
61.8866 3.438 0.189
61.9071 3.396 0.188
61.9275 3.667 0.195
61.9480 3.417 0.189
61.9684 3.594 0.193
61.9889 3.625 0.194
62.0094 4.146 0.208
62.0298 4.135 0.208
62.0503 4.510 0.217
62.0708 4.792 0.223
62.0912 5.573 0.241
62.1117 6.573 0.262
62.1321 6.594 0.262
62.1526 5.917 0.248
62.1731 5.271 0.234
62.1935 4.708 0.221
62.2140 4.406 0.214
62.2345 4.323 0.212
62.2549 4.385 0.214
62.2754 4.844 0.225
62.2958 4.906 0.226
62.3163 5.292 0.235
62.3368 4.469 0.216
62.3572 4.260 0.211
62.3777 3.667 0.195
62.3982 3.531 0.192
62.4186 3.271 0.185
62.4391 3.740 0.197
62.4595 3.490 0.191
62.4800 3.521 0.192
62.5005 3.896 0.201
62.5209 3.323 0.186
62.5414 3.448 0.190
62.5619 3.542 0.192
62.5823 3.500 0.191
62.6028 3.417 0.189
62.6232 3.813 0.199
62.6437 3.385 0.188
62.6642 3.365 0.187
62.6846 3.448 0.190
62.7051 2.740 0.169
62.7256 3.521 0.192
62.7460 2.927 0.175
62.7665 3.479 0.190
62.7870 3.063 0.179
62.8074 3.000 0.177
62.8279 3.073 0.179
62.8483 2.906 0.174
62.8688 2.823 0.171
62.8893 2.750 0.169
62.9097 3.094 0.180
62.9302 3.260 0.184
62.9507 3.104 0.180
62.9711 3.552 0.192
62.9916 3.104 0.180
63.0120 2.896 0.174
63.0325 2.688 0.167
63.0530 2.917 0.174
63.0734 2.719 0.168
63.0939 3.031 0.178
63.1144 3.094 0.180
63.1348 2.875 0.173
63.1553 2.948 0.175
63.1757 2.729 0.169
63.1962 3.010 0.177
63.2167 3.135 0.181
63.2371 2.875 0.173
63.2576 2.719 0.168
63.2781 3.302 0.185
63.2985 2.990 0.176
63.3190 2.854 0.172
63.3394 3.115 0.180
63.3599 3.021 0.177
63.3804 3.104 0.180
63.4008 3.323 0.186
63.4213 3.177 0.182
63.4418 2.760 0.170
63.4622 2.948 0.175
63.4827 3.469 0.190
63.5032 3.344 0.187
63.5236 3.177 0.182
63.5441 3.375 0.188
63.5645 3.656 0.195
63.5850 3.594 0.193
63.6055 3.906 0.202
63.6259 4.010 0.204
63.6464 3.885 0.201
63.6669 4.583 0.219
63.6873 5.438 0.238
63.7078 6.667 0.264
63.7282 6.885 0.268
63.7487 7.688 0.283
63.7692 7.760 0.284
63.7896 8.354 0.295
63.8101 6.948 0.269
63.8306 6.750 0.265
63.8510 5.885 0.248
63.8715 5.813 0.246
63.8919 5.698 0.244
63.9124 6.167 0.253
63.9329 6.615 0.262
63.9533 6.344 0.257
63.9738 5.896 0.248
63.9943 5.906 0.248
64.0147 5.938 0.249
64.0352 5.146 0.232
64.0556 4.406 0.214
64.0761 4.427 0.215
64.0966 3.615 0.194
64.1170 4.052 0.205
64.1375 3.823 0.200
64.1580 3.448 0.190
64.1784 3.885 0.201
64.1989 3.479 0.190
64.2193 3.750 0.198
64.2398 3.365 0.187
64.2603 3.313 0.186
64.2807 3.292 0.185
64.3012 3.448 0.190
64.3217 3.594 0.193
64.3421 3.906 0.202
64.3626 3.146 0.181
64.3831 3.854 0.200
64.4035 3.844 0.200
64.4240 3.583 0.193
64.4444 4.063 0.206
64.4649 4.083 0.206
64.4854 3.906 0.202
64.5058 3.917 0.202
64.5263 4.958 0.227
64.5468 4.990 0.228
64.5672 6.271 0.256
64.5877 7.583 0.281
64.6081 8.427 0.296
64.6286 10.344 0.328
64.6491 10.719 0.334
64.6695 8.990 0.306
64.6900 8.010 0.289
64.7105 6.490 0.260
64.7309 6.156 0.253
64.7514 5.729 0.244
64.7718 6.198 0.254
64.7923 6.823 0.267
64.8128 6.979 0.270
64.8332 7.115 0.272
64.8537 6.406 0.258
64.8742 5.365 0.236
64.8946 4.865 0.225
64.9151 4.313 0.212
64.9355 4.365 0.213
64.9560 3.521 0.192
64.9765 3.542 0.192
64.9969 3.458 0.190
65.0174 3.146 0.181
65.0379 3.271 0.185
65.0583 3.104 0.180
65.0788 3.292 0.185
65.0992 3.146 0.181
65.1197 3.167 0.182
65.1402 3.167 0.182
65.1606 3.396 0.188
65.1811 2.823 0.171
65.2016 2.646 0.166
65.2220 3.073 0.179
65.2425 3.063 0.179
65.2630 2.719 0.168
65.2834 2.875 0.173
65.3039 3.021 0.177
65.3243 3.042 0.178
65.3448 3.479 0.190
65.3653 2.792 0.171
65.3857 3.188 0.182
65.4062 3.250 0.184
65.4267 2.677 0.167
65.4471 3.354 0.187
65.4676 3.573 0.193
65.4880 3.646 0.195
65.5085 3.563 0.193
65.5290 4.240 0.210
65.5494 4.927 0.227
65.5699 5.229 0.233
65.5904 5.104 0.231
65.6108 4.479 0.216
65.6313 3.917 0.202
65.6517 3.969 0.203
65.6722 3.948 0.203
65.6927 3.927 0.202
65.7131 3.740 0.197
65.7336 4.188 0.209
65.7541 4.104 0.207
65.7745 4.458 0.216
65.7950 3.927 0.202
65.8154 3.313 0.186
65.8359 3.531 0.192
65.8564 3.188 0.182
65.8768 3.333 0.186
65.8973 3.458 0.190
65.9178 3.302 0.185
65.9382 3.792 0.199
65.9587 3.990 0.204
65.9791 4.229 0.210
65.9996 4.365 0.213
66.0201 4.781 0.223
66.0405 4.719 0.222
66.0610 5.156 0.232
66.0815 5.417 0.238
66.1019 5.240 0.234
66.1224 5.365 0.236
66.1429 5.177 0.232
66.1633 5.135 0.231
66.1838 4.917 0.226
66.2042 5.292 0.235
66.2247 4.740 0.222
66.2452 4.604 0.219
66.2656 4.865 0.225
66.2861 5.000 0.228
66.3066 4.802 0.224
66.3270 4.990 0.228
66.3475 4.552 0.218
66.3679 4.250 0.210
66.3884 4.021 0.205
66.4089 4.438 0.215
66.4293 4.073 0.206
66.4498 4.333 0.212
66.4703 3.688 0.196
66.4907 4.156 0.208
66.5112 4.302 0.212
66.5316 4.375 0.213
66.5521 4.438 0.215
66.5726 5.083 0.230
66.5930 4.906 0.226
66.6135 4.833 0.224
66.6340 5.125 0.231
66.6544 5.406 0.237
66.6749 4.708 0.221
66.6953 4.948 0.227
66.7158 4.729 0.222
66.7363 4.948 0.227
66.7567 4.656 0.220
66.7772 4.938 0.227
66.7977 4.438 0.215
66.8181 4.375 0.213
66.8386 4.677 0.221
66.8590 4.292 0.211
66.8795 4.667 0.220
66.9000 4.260 0.211
66.9204 4.531 0.217
66.9409 4.563 0.218
66.9614 4.219 0.210
66.9818 4.635 0.220
67.0023 5.385 0.237
67.0228 5.354 0.236
67.0432 6.229 0.255
67.0637 7.125 0.272
67.0841 9.333 0.312
67.1046 11.010 0.339
67.1251 13.260 0.372
67.1455 13.438 0.374
67.1660 11.990 0.353
67.1865 10.219 0.326
67.2069 8.302 0.294
67.2274 7.635 0.282
67.2478 7.396 0.278
67.2683 6.750 0.265
67.2888 7.750 0.284
67.3092 8.740 0.302
67.3297 9.125 0.308
67.3502 7.760 0.284
67.3706 6.917 0.268
67.3911 5.802 0.246
67.4115 5.313 0.235
67.4320 4.969 0.228
67.4525 4.354 0.213
67.4729 4.156 0.208
67.4934 3.906 0.202
67.5139 3.823 0.200
67.5343 3.708 0.197
67.5548 3.927 0.202
67.5752 3.677 0.196
67.5957 3.708 0.197
67.6162 3.771 0.198
67.6366 3.865 0.201
67.6571 3.792 0.199
67.6776 4.104 0.207
67.6980 4.240 0.210
67.7185 4.229 0.210
67.7389 4.500 0.217
67.7594 4.260 0.211
67.7799 3.896 0.201
67.8003 3.823 0.200
67.8208 4.000 0.204
67.8413 3.531 0.192
67.8617 3.698 0.196
67.8822 4.094 0.207
67.9027 3.615 0.194
67.9231 3.844 0.200
67.9436 3.854 0.200
67.9640 3.938 0.203
67.9845 3.906 0.202
68.0050 3.906 0.202
68.0254 4.073 0.206
68.0459 4.396 0.214
68.0664 4.344 0.213
68.0868 4.063 0.206
68.1073 3.417 0.189
68.1277 3.531 0.192
68.1482 3.427 0.189
68.1687 3.396 0.188
68.1891 3.563 0.193
68.2096 4.333 0.212
68.2301 4.229 0.210
68.2505 4.323 0.212
68.2710 4.469 0.216
68.2914 4.875 0.225
68.3119 5.177 0.232
68.3324 6.177 0.254
68.3528 5.781 0.245
68.3733 4.979 0.228
68.3938 4.510 0.217
68.4142 4.125 0.207
68.4347 4.271 0.211
68.4551 3.760 0.198
68.4756 3.865 0.201
68.4961 4.521 0.217
68.5165 4.521 0.217
68.5370 4.563 0.218
68.5575 4.615 0.219
68.5779 3.948 0.203
68.5984 4.021 0.205
68.6189 3.271 0.185
68.6393 3.542 0.192
68.6598 3.844 0.200
68.6802 3.677 0.196
68.7007 3.667 0.195
68.7212 3.927 0.202
68.7416 3.844 0.200
68.7621 4.042 0.205
68.7826 4.365 0.213
68.8030 4.667 0.220
68.8235 4.521 0.217
68.8439 4.958 0.227
68.8644 5.063 0.230
68.8849 5.417 0.238
68.9053 5.875 0.247
68.9258 6.188 0.254
68.9463 7.313 0.276
68.9667 7.802 0.285
68.9872 8.510 0.298
69.0076 7.396 0.278
69.0281 7.396 0.278
69.0486 5.813 0.246
69.0690 5.083 0.230
69.0895 5.521 0.240
69.1100 5.198 0.233
69.1304 5.240 0.234
69.1509 5.521 0.240
69.1713 6.063 0.251
69.1918 6.740 0.265
69.2123 5.979 0.250
69.2327 5.708 0.244
69.2532 5.688 0.243
69.2737 5.417 0.238
69.2941 4.521 0.217
69.3146 3.865 0.201
69.3350 3.875 0.201
69.3555 3.729 0.197
69.3760 3.542 0.192
69.3964 4.115 0.207
69.4169 3.635 0.195
69.4374 3.969 0.203
69.4578 3.781 0.198
69.4783 3.469 0.190
69.4988 3.375 0.188
69.5192 3.219 0.183
69.5397 3.094 0.180
69.5601 2.958 0.176
69.5806 2.958 0.176
69.6011 3.104 0.180
69.6215 3.417 0.189
69.6420 3.167 0.182
69.6625 2.927 0.175
69.6829 2.938 0.175
69.7034 2.875 0.173
69.7238 2.594 0.164
69.7443 3.094 0.180
69.7648 3.177 0.182
69.7852 2.979 0.176
69.8057 3.063 0.179
69.8262 2.552 0.163
69.8466 2.583 0.164
69.8671 2.740 0.169
69.8875 2.792 0.171
69.9080 3.156 0.181
69.9285 2.510 0.162
69.9489 2.563 0.163
69.9694 3.167 0.182
69.9899 2.823 0.171
70.0103 3.094 0.180
70.0308 2.760 0.170
70.0512 2.490 0.161
70.0717 2.750 0.169
70.0922 2.719 0.168
70.1126 2.740 0.169
70.1331 2.958 0.176
70.1536 2.698 0.168
70.1740 2.813 0.171
70.1945 2.521 0.162
70.2149 2.281 0.154
70.2354 2.979 0.176
70.2559 2.708 0.168
70.2763 2.646 0.166
70.2968 2.719 0.168
70.3173 2.677 0.167
70.3377 2.490 0.161
70.3582 2.813 0.171
70.3787 2.635 0.166
70.3991 3.042 0.178
70.4196 2.771 0.170
70.4400 2.844 0.172
70.4605 2.958 0.176
70.4810 3.104 0.180
70.5014 3.063 0.179
70.5219 3.135 0.181
70.5424 2.750 0.169
70.5628 2.833 0.172
70.5833 2.969 0.176
70.6037 3.396 0.188
70.6242 3.250 0.184
70.6447 3.583 0.193
70.6651 3.354 0.187
70.6856 3.531 0.192
70.7061 3.615 0.194
70.7265 3.115 0.180
70.7470 2.969 0.176
70.7674 3.135 0.181
70.7879 2.802 0.171
70.8084 3.188 0.182
70.8288 3.302 0.185
70.8493 3.250 0.184
70.8698 3.292 0.185
70.8902 2.979 0.176
70.9107 3.313 0.186
70.9311 3.208 0.183
70.9516 2.927 0.175
70.9721 3.250 0.184
70.9925 3.302 0.185
71.0130 3.646 0.195
71.0335 3.896 0.201
71.0539 3.708 0.197
71.0744 3.969 0.203
71.0948 3.990 0.204
71.1153 3.698 0.196
71.1358 3.990 0.204
71.1562 3.479 0.190
71.1767 3.219 0.183
71.1972 3.063 0.179
71.2176 3.469 0.190
71.2381 3.448 0.190
71.2586 3.146 0.181
71.2790 3.750 0.198
71.2995 3.750 0.198
71.3199 3.500 0.191
71.3404 3.344 0.187
71.3609 3.115 0.180
71.3813 2.854 0.172
71.4018 2.917 0.174
71.4223 2.948 0.175
71.4427 2.885 0.173
71.4632 3.167 0.182
71.4836 3.281 0.185
71.5041 3.000 0.177
71.5246 2.969 0.176
71.5450 3.115 0.180
71.5655 3.292 0.185
71.5860 3.490 0.191
71.6064 3.479 0.190
71.6269 3.792 0.199
71.6473 3.250 0.184
71.6678 3.125 0.180
71.6883 2.781 0.170
71.7087 3.260 0.184
71.7292 2.719 0.168
71.7497 3.365 0.187
71.7701 2.802 0.171
71.7906 3.198 0.183
71.8110 3.104 0.180
71.8315 3.104 0.180
71.8520 3.188 0.182
71.8724 3.010 0.177
71.8929 2.813 0.171
71.9134 3.063 0.179
71.9338 2.823 0.171
71.9543 2.677 0.167
71.9747 2.635 0.166
71.9952 2.573 0.164
72.0157 2.969 0.176
72.0361 2.438 0.159
72.0566 2.563 0.163
72.0771 2.771 0.170
72.0975 2.646 0.166
72.1180 2.802 0.171
72.1385 2.708 0.168
72.1589 2.417 0.159
72.1794 2.781 0.170
72.1998 2.521 0.162
72.2203 2.771 0.170
72.2408 2.917 0.174
72.2612 2.552 0.163
72.2817 2.188 0.151
72.3022 2.563 0.163
72.3226 2.615 0.165
72.3431 2.583 0.164
72.3635 2.198 0.151
72.3840 2.844 0.172
72.4045 2.698 0.168
72.4249 2.531 0.162
72.4454 2.688 0.167
72.4659 2.719 0.168
72.4863 2.625 0.165
72.5068 2.667 0.167
72.5272 2.615 0.165
72.5477 2.698 0.168
72.5682 2.646 0.166
72.5886 2.792 0.171
72.6091 2.625 0.165
72.6296 2.615 0.165
72.6500 2.573 0.164
72.6705 2.792 0.171
72.6909 2.698 0.168
72.7114 3.052 0.178
72.7319 2.938 0.175
72.7523 2.865 0.173
72.7728 3.031 0.178
72.7933 3.385 0.188
72.8137 3.490 0.191
72.8342 3.625 0.194
72.8547 3.625 0.194
72.8751 3.375 0.188
72.8956 3.021 0.177
72.9160 3.115 0.180
72.9365 3.063 0.179
72.9570 2.906 0.174
72.9774 2.469 0.160
72.9979 2.990 0.176
73.0184 2.896 0.174
73.0388 2.458 0.160
73.0593 3.250 0.184
73.0797 2.698 0.168
73.1002 2.760 0.170
73.1207 2.594 0.164
73.1411 2.552 0.163
73.1616 2.573 0.164
73.1821 2.542 0.163
73.2025 2.250 0.153
73.2230 2.344 0.156
73.2434 2.594 0.164
73.2639 2.219 0.152
73.2844 2.208 0.152
73.3048 2.542 0.163
73.3253 2.146 0.150
73.3458 2.292 0.155
73.3662 2.125 0.149
73.3867 2.104 0.148
73.4071 2.198 0.151
73.4276 2.365 0.157
73.4481 2.302 0.155
73.4685 2.302 0.155
73.4890 2.219 0.152
73.5095 2.594 0.164
73.5299 2.323 0.156
73.5504 2.438 0.159
73.5708 2.646 0.166
73.5913 2.479 0.161
73.6118 2.021 0.145
73.6322 1.896 0.141
73.6527 2.604 0.165
73.6732 2.271 0.154
73.6936 2.323 0.156
73.7141 2.198 0.151
73.7346 2.198 0.151
73.7550 2.177 0.151
73.7755 2.385 0.158
73.7959 2.125 0.149
73.8164 2.427 0.159
73.8369 2.240 0.153
73.8573 2.146 0.150
73.8778 2.219 0.152
73.8983 2.479 0.161
73.9187 2.052 0.146
73.9392 2.333 0.156
73.9596 2.563 0.163
73.9801 2.635 0.166
74.0006 2.448 0.160
74.0210 2.677 0.167
74.0415 3.021 0.177
74.0620 2.979 0.176
74.0824 3.010 0.177
74.1029 2.885 0.173
74.1233 2.458 0.160
74.1438 2.438 0.159
74.1643 2.927 0.175
74.1847 2.479 0.161
74.2052 2.375 0.157
74.2257 2.344 0.156
74.2461 2.469 0.160
74.2666 2.406 0.158
74.2870 2.542 0.163
74.3075 2.771 0.170
74.3280 2.813 0.171
74.3484 2.688 0.167
74.3689 2.510 0.162
74.3894 2.427 0.159
74.4098 2.302 0.155
74.4303 1.813 0.137
74.4507 2.208 0.152
74.4712 2.198 0.151
74.4917 2.302 0.155
74.5121 2.271 0.154
74.5326 2.604 0.165
74.5531 2.323 0.156
74.5735 2.021 0.145
74.5940 2.313 0.155
74.6145 2.563 0.163
74.6349 2.313 0.155
74.6554 2.406 0.158
74.6758 2.417 0.159
74.6963 2.333 0.156
74.7168 2.531 0.162
74.7372 2.323 0.156
74.7577 2.563 0.163
74.7782 2.615 0.165
74.7986 2.719 0.168
74.8191 2.448 0.160
74.8395 2.635 0.166
74.8600 2.458 0.160
74.8805 2.521 0.162
74.9009 2.344 0.156
74.9214 2.156 0.150
74.9419 2.500 0.161
74.9623 2.354 0.157
74.9828 2.458 0.160
75.0032 2.688 0.167
75.0237 2.365 0.157
75.0442 2.240 0.153
75.0646 2.260 0.153
75.0851 2.167 0.150
75.1056 2.448 0.160
75.1260 2.542 0.163
75.1465 2.427 0.159
75.1669 2.448 0.160
75.1874 2.250 0.153
75.2079 2.188 0.151
75.2283 2.031 0.145
75.2488 2.240 0.153
75.2693 2.281 0.154
75.2897 2.135 0.149
75.3102 2.240 0.153
75.3306 2.281 0.154
75.3511 2.104 0.148
75.3716 2.094 0.148
75.3920 2.313 0.155
75.4125 2.406 0.158
75.4330 2.292 0.155
75.4534 2.542 0.163
75.4739 2.365 0.157
75.4944 2.635 0.166
75.5148 2.729 0.169
75.5353 2.500 0.161
75.5557 2.427 0.159
75.5762 2.771 0.170
75.5967 2.677 0.167
75.6171 2.760 0.170
75.6376 3.083 0.179
75.6581 3.073 0.179
75.6785 3.417 0.189
75.6990 3.646 0.195
75.7194 4.302 0.212
75.7399 5.177 0.232
75.7604 5.531 0.240
75.7808 6.302 0.256
75.8013 6.385 0.258
75.8218 5.302 0.235
75.8422 5.469 0.239
75.8627 4.427 0.215
75.8831 4.125 0.207
75.9036 3.865 0.201
75.9241 3.948 0.203
75.9445 3.896 0.201
75.9650 4.167 0.208
75.9855 4.490 0.216
76.0059 4.813 0.224
76.0264 4.563 0.218
76.0468 4.240 0.210
76.0673 4.063 0.206
76.0878 3.552 0.192
76.1082 3.417 0.189
76.1287 3.177 0.182
76.1492 3.302 0.185
76.1696 2.833 0.172
76.1901 2.927 0.175
76.2105 3.125 0.180
76.2310 2.896 0.174
76.2515 2.969 0.176
76.2719 2.990 0.176
76.2924 2.875 0.173
76.3129 3.021 0.177
76.3333 2.604 0.165
76.3538 2.771 0.170
76.3743 2.708 0.168
76.3947 2.604 0.165
76.4152 2.646 0.166
76.4356 2.708 0.168
76.4561 2.417 0.159
76.4766 2.552 0.163
76.4970 2.302 0.155
76.5175 2.323 0.156
76.5380 2.500 0.161
76.5584 2.719 0.168
76.5789 2.406 0.158
76.5993 2.760 0.170
76.6198 2.438 0.159
76.6403 2.531 0.162
76.6607 2.490 0.161
76.6812 2.281 0.154
76.7017 2.458 0.160
76.7221 2.229 0.152
76.7426 1.969 0.143
76.7630 2.052 0.146
76.7835 2.219 0.152
76.8040 2.490 0.161
76.8244 2.302 0.155
76.8449 2.542 0.163
76.8654 2.302 0.155
76.8858 2.458 0.160
76.9063 2.250 0.153
76.9267 2.365 0.157
76.9472 2.573 0.164
76.9677 2.531 0.162
76.9881 2.656 0.166
77.0086 2.208 0.152
77.0291 2.156 0.150
77.0495 2.229 0.152
77.0700 2.302 0.155
77.0905 2.615 0.165
77.1109 2.260 0.153
77.1314 2.385 0.158
77.1518 2.260 0.153
77.1723 2.469 0.160
77.1928 2.448 0.160
77.2132 2.594 0.164
77.2337 2.375 0.157
77.2542 2.813 0.171
77.2746 2.458 0.160
77.2951 2.615 0.165
77.3155 2.656 0.166
77.3360 2.667 0.167
77.3565 2.604 0.165
77.3769 2.802 0.171
77.3974 3.281 0.185
77.4179 3.135 0.181
77.4383 3.365 0.187
77.4588 3.656 0.195
77.4792 3.792 0.199
77.4997 4.010 0.204
77.5202 4.031 0.205
77.5406 3.667 0.195
77.5611 3.594 0.193
77.5816 3.542 0.192
77.6020 3.510 0.191
77.6225 3.240 0.184
77.6429 3.052 0.178
77.6634 3.177 0.182
77.6839 3.063 0.179
77.7043 3.052 0.178
77.7248 3.448 0.190
77.7453 3.375 0.188
77.7657 3.792 0.199
77.7862 3.604 0.194
77.8066 3.385 0.188
77.8271 3.656 0.195
77.8476 3.240 0.184
77.8680 2.719 0.168
77.8885 2.573 0.164
77.9090 2.688 0.167
77.9294 2.885 0.173
77.9499 2.573 0.164
77.9704 2.771 0.170
77.9908 2.458 0.160
78.0113 2.688 0.167
78.0317 2.698 0.168
78.0522 2.938 0.175
78.0727 2.594 0.164
78.0931 2.469 0.160
78.1136 2.719 0.168
78.1341 2.656 0.166
78.1545 2.729 0.169
78.1750 2.688 0.167
78.1954 2.510 0.162
78.2159 2.500 0.161
78.2364 2.156 0.150
78.2568 2.260 0.153
78.2773 2.656 0.166
78.2978 2.563 0.163
78.3182 2.781 0.170
78.3387 2.677 0.167
78.3591 2.760 0.170
78.3796 2.771 0.170
78.4001 3.031 0.178
78.4205 3.417 0.189
78.4410 3.042 0.178
78.4615 3.156 0.181
78.4819 3.052 0.178
78.5024 3.021 0.177
78.5228 3.104 0.180
78.5433 2.885 0.173
78.5638 3.365 0.187
78.5842 3.188 0.182
78.6047 2.938 0.175
78.6252 3.146 0.181
78.6456 3.156 0.181
78.6661 3.250 0.184
78.6865 3.417 0.189
78.7070 3.281 0.185
78.7275 3.177 0.182
78.7479 3.156 0.181
78.7684 2.969 0.176
78.7889 2.948 0.175
78.8093 2.979 0.176
78.8298 3.031 0.178
78.8503 3.021 0.177
78.8707 3.313 0.186
78.8912 3.510 0.191
78.9116 3.208 0.183
78.9321 3.604 0.194
78.9526 3.813 0.199
78.9730 3.677 0.196
78.9935 3.583 0.193
79.0140 3.427 0.189
79.0344 3.052 0.178
79.0549 2.948 0.175
79.0753 3.344 0.187
79.0958 2.740 0.169
79.1163 2.990 0.176
79.1367 3.177 0.182
79.1572 2.990 0.176
79.1777 3.208 0.183
79.1981 3.021 0.177
79.2186 3.094 0.180
79.2390 2.729 0.169
79.2595 2.969 0.176
79.2800 3.010 0.177
79.3004 2.865 0.173
79.3209 2.688 0.167
79.3414 3.052 0.178
79.3618 2.677 0.167
79.3823 2.719 0.168
79.4027 2.458 0.160
79.4232 2.646 0.166
79.4437 2.906 0.174
79.4641 3.208 0.183
79.4846 3.073 0.179
79.5051 3.208 0.183
79.5255 3.385 0.188
79.5460 3.594 0.193
79.5664 3.313 0.186
79.5869 3.229 0.183
79.6074 2.885 0.173
79.6278 2.906 0.174
79.6483 2.802 0.171
79.6688 2.729 0.169
79.6892 2.708 0.168
79.7097 2.740 0.169
79.7302 2.844 0.172
79.7506 2.729 0.169
79.7711 3.083 0.179
79.7915 3.021 0.177
79.8120 2.927 0.175
79.8325 3.083 0.179
79.8529 2.802 0.171
79.8734 2.740 0.169
79.8939 2.667 0.167
79.9143 2.781 0.170
79.9348 2.990 0.176
79.9552 2.427 0.159
79.9757 2.656 0.166
79.9962 2.385 0.158
