'Id: "" Comment: "" Operator: "Lab Manager" Anode: "Cu" Scantype: "Locked Coupled" TimePerStep: "96" X: "0" Y: "0" Z: "0" 
5.0000 23.625 0.496
5.0205 24.260 0.503
5.0409 23.594 0.496
5.0614 24.083 0.501
5.0819 23.469 0.494
5.1023 21.865 0.477
5.1228 23.167 0.491
5.1432 23.323 0.493
5.1637 23.271 0.492
5.1842 23.125 0.491
5.2046 22.844 0.488
5.2251 23.563 0.495
5.2456 23.198 0.492
5.2660 22.688 0.486
5.2865 23.302 0.493
5.3069 23.281 0.492
5.3274 23.917 0.499
5.3479 23.240 0.492
5.3683 22.698 0.486
5.3888 22.948 0.489
5.4093 24.135 0.501
5.4297 22.229 0.481
5.4502 23.271 0.492
5.4706 22.708 0.486
5.4911 23.156 0.491
5.5116 22.427 0.483
5.5320 23.177 0.491
5.5525 22.177 0.481
5.5730 22.135 0.480
5.5934 22.781 0.487
5.6139 21.615 0.475
5.6343 22.302 0.482
5.6548 22.740 0.487
5.6753 21.469 0.473
5.6957 21.479 0.473
5.7162 20.750 0.465
5.7367 21.969 0.478
5.7571 22.260 0.482
5.7776 21.833 0.477
5.7980 22.406 0.483
5.8185 22.333 0.482
5.8390 22.365 0.483
5.8594 22.229 0.481
5.8799 22.979 0.489
5.9004 21.906 0.478
5.9208 22.094 0.480
5.9413 21.583 0.474
5.9618 21.563 0.474
5.9822 22.135 0.480
6.0027 22.500 0.484
6.0231 20.219 0.459
6.0436 21.594 0.474
6.0641 21.344 0.472
6.0845 21.854 0.477
6.1050 21.302 0.471
6.1255 20.958 0.467
6.1459 20.510 0.462
6.1664 21.646 0.475
6.1868 19.865 0.455
6.2073 21.458 0.473
6.2278 21.406 0.472
6.2482 20.896 0.467
6.2687 21.167 0.470
6.2892 20.854 0.466
6.3096 21.771 0.476
6.3301 21.563 0.474
6.3505 21.469 0.473
6.3710 20.281 0.460
6.3915 21.240 0.470
6.4119 21.219 0.470
6.4324 20.719 0.465
6.4529 21.115 0.469
6.4733 20.719 0.465
6.4938 20.875 0.466
6.5142 20.938 0.467
6.5347 20.875 0.466
6.5552 20.510 0.462
6.5756 20.208 0.459
6.5961 21.083 0.469
6.6166 20.146 0.458
6.6370 20.740 0.465
6.6575 20.625 0.464
6.6779 21.292 0.471
6.6984 21.927 0.478
6.7189 22.240 0.481
6.7393 20.052 0.457
6.7598 21.635 0.475
6.7803 20.594 0.463
6.8007 20.760 0.465
6.8212 20.917 0.467
6.8417 21.760 0.476
6.8621 21.396 0.472
6.8826 21.125 0.469
6.9030 20.677 0.464
6.9235 21.063 0.468
6.9440 21.292 0.471
6.9644 20.969 0.467
6.9849 20.833 0.466
7.0054 20.906 0.467
7.0258 21.771 0.476
7.0463 22.073 0.480
7.0667 21.250 0.470
7.0872 21.563 0.474
7.1077 20.219 0.459
7.1281 20.073 0.457
7.1486 21.104 0.469
7.1691 20.365 0.461
7.1895 20.802 0.465
7.2100 21.281 0.471
7.2304 20.927 0.467
7.2509 20.750 0.465
7.2714 21.000 0.468
7.2918 20.917 0.467
7.3123 20.729 0.465
7.3328 20.521 0.462
7.3532 21.448 0.473
7.3737 20.490 0.462
7.3941 21.135 0.469
7.4146 20.521 0.462
7.4351 19.927 0.456
7.4555 20.927 0.467
7.4760 21.073 0.469
7.4965 20.802 0.465
7.5169 20.469 0.462
7.5374 21.188 0.470
7.5579 20.354 0.460
7.5783 21.000 0.468
7.5988 20.146 0.458
7.6192 21.031 0.468
7.6397 20.813 0.466
7.6602 21.490 0.473
7.6806 21.396 0.472
7.7011 21.365 0.472
7.7216 21.417 0.472
7.7420 20.979 0.467
7.7625 21.573 0.474
7.7829 21.302 0.471
7.8034 21.229 0.470
7.8239 21.542 0.474
7.8443 22.063 0.479
7.8648 22.552 0.485
7.8853 21.719 0.476
7.9057 21.198 0.470
7.9262 21.802 0.477
7.9466 21.490 0.473
7.9671 22.479 0.484
7.9876 22.229 0.481
8.0080 22.146 0.480
8.0285 22.115 0.480
8.0490 21.646 0.475
8.0694 22.156 0.480
8.0899 22.000 0.479
8.1103 21.656 0.475
8.1308 21.396 0.472
8.1513 21.583 0.474
8.1717 21.625 0.475
8.1922 22.021 0.479
8.2127 22.115 0.480
8.2331 21.750 0.476
8.2536 21.740 0.476
8.2740 21.656 0.475
8.2945 21.990 0.479
8.3150 22.083 0.480
8.3354 22.510 0.484
8.3559 22.354 0.483
8.3764 22.198 0.481
8.3968 21.833 0.477
8.4173 22.260 0.482
8.4378 21.229 0.470
8.4582 22.021 0.479
8.4787 22.865 0.488
8.4991 21.438 0.473
8.5196 22.865 0.488
8.5401 22.167 0.481
8.5605 22.063 0.479
8.5810 22.906 0.488
8.6015 22.542 0.485
8.6219 22.302 0.482
8.6424 22.750 0.487
8.6628 22.344 0.482
8.6833 22.635 0.486
8.7038 22.948 0.489
8.7242 23.271 0.492
8.7447 22.708 0.486
8.7652 24.333 0.503
8.7856 23.781 0.498
8.8061 24.719 0.507
8.8265 24.875 0.509
8.8470 25.771 0.518
8.8675 26.323 0.524
8.8879 26.979 0.530
8.9084 28.865 0.548
8.9289 30.063 0.560
8.9493 28.354 0.543
8.9698 29.542 0.555
8.9902 30.177 0.561
9.0107 33.156 0.588
9.0312 36.344 0.615
9.0516 39.844 0.644
9.0721 45.646 0.690
9.0926 49.542 0.718
9.1130 49.219 0.716
9.1335 47.052 0.700
9.1539 44.396 0.680
9.1744 43.844 0.676
9.1949 48.906 0.714
9.2153 57.823 0.776
9.2358 65.479 0.826
9.2563 75.635 0.888
9.2767 81.885 0.924
9.2972 83.823 0.934
9.3177 82.260 0.926
9.3381 79.323 0.909
9.3586 78.042 0.902
9.3790 79.594 0.911
9.3995 78.250 0.903
9.4200 80.063 0.913
9.4404 80.813 0.917
9.4609 83.823 0.934
9.4814 85.823 0.946
9.5018 91.865 0.978
9.5223 98.281 1.012
9.5427 105.198 1.047
9.5632 114.104 1.090
9.5837 123.063 1.132
9.6041 131.677 1.171
9.6246 142.146 1.217
9.6451 152.104 1.259
9.6655 165.115 1.311
9.6860 183.156 1.381
9.7064 203.604 1.456
9.7269 235.260 1.565
9.7474 284.125 1.720
9.7678 355.260 1.924
9.7883 467.646 2.207
9.8088 649.990 2.602
9.8292 935.688 3.122
9.8497 1333.656 3.727
9.8701 1734.000 4.250
9.8906 1542.750 4.009
9.9111 936.771 3.124
9.9315 443.615 2.150
9.9520 225.823 1.534
9.9725 149.594 1.248
9.9929 119.510 1.116
10.0134 102.177 1.032
10.0338 93.083 0.985
10.0543 83.865 0.935
10.0748 75.760 0.888
10.0952 68.833 0.847
10.1157 61.896 0.803
10.1362 53.792 0.749
10.1566 47.542 0.704
10.1771 43.833 0.676
10.1976 41.000 0.654
10.2180 38.115 0.630
10.2385 37.896 0.628
10.2589 36.510 0.617
10.2794 36.344 0.615
10.2999 34.177 0.597
10.3203 32.802 0.585
10.3408 31.656 0.574
10.3613 31.323 0.571
10.3817 31.833 0.576
10.4022 30.167 0.561
10.4226 30.760 0.566
10.4431 30.333 0.562
10.4636 28.385 0.544
10.4840 28.344 0.543
10.5045 28.448 0.544
10.5250 27.167 0.532
10.5454 27.708 0.537
10.5659 28.135 0.541
10.5863 27.021 0.531
10.6068 27.344 0.534
10.6273 26.250 0.523
10.6477 26.552 0.526
10.6682 26.583 0.526
10.6887 26.375 0.524
10.7091 26.188 0.522
10.7296 24.750 0.508
10.7500 25.042 0.511
10.7705 25.313 0.513
10.7910 24.542 0.506
10.8114 24.021 0.500
10.8319 24.677 0.507
10.8524 23.969 0.500
10.8728 22.802 0.487
10.8933 24.177 0.502
10.9137 25.073 0.511
10.9342 26.635 0.527
10.9547 26.469 0.525
10.9751 25.167 0.512
10.9956 22.521 0.484
11.0161 21.927 0.478
11.0365 22.615 0.485
11.0570 21.188 0.470
11.0775 21.927 0.478
11.0979 21.260 0.471
11.1184 21.375 0.472
11.1388 21.375 0.472
11.1593 21.521 0.473
11.1798 20.896 0.467
11.2002 20.938 0.467
11.2207 20.865 0.466
11.2412 20.281 0.460
11.2616 20.510 0.462
11.2821 20.594 0.463
11.3025 19.823 0.454
11.3230 20.865 0.466
11.3435 20.063 0.457
11.3639 19.854 0.455
11.3844 19.531 0.451
11.4049 19.177 0.447
11.4253 18.740 0.442
11.4458 19.302 0.448
11.4662 18.979 0.445
11.4867 18.854 0.443
11.5072 19.396 0.449
11.5276 19.167 0.447
11.5481 19.365 0.449
11.5686 18.750 0.442
11.5890 18.260 0.436
11.6095 18.417 0.438
11.6299 19.479 0.450
11.6504 19.365 0.449
11.6709 20.354 0.460
11.6913 21.198 0.470
11.7118 20.521 0.462
11.7323 19.646 0.452
11.7527 17.948 0.432
11.7732 17.948 0.432
11.7937 17.260 0.424
11.8141 16.760 0.418
11.8346 17.000 0.421
11.8550 16.875 0.419
11.8755 16.958 0.420
11.8960 16.813 0.418
11.9164 16.281 0.412
11.9369 16.979 0.421
11.9574 16.573 0.415
11.9778 16.219 0.411
11.9983 16.188 0.411
12.0187 16.406 0.413
12.0392 16.750 0.418
12.0597 16.948 0.420
12.0801 17.010 0.421
12.1006 16.135 0.410
12.1211 16.458 0.414
12.1415 16.010 0.408
12.1620 15.563 0.403
12.1824 15.406 0.401
12.2029 15.552 0.402
12.2234 15.010 0.395
12.2438 15.979 0.408
12.2643 15.573 0.403
12.2848 14.302 0.386
12.3052 15.771 0.405
12.3257 15.760 0.405
12.3461 15.031 0.396
12.3666 15.802 0.406
12.3871 14.823 0.393
12.4075 14.885 0.394
12.4280 15.188 0.398
12.4485 14.448 0.388
12.4689 14.656 0.391
12.4894 14.094 0.383
12.5098 14.354 0.387
12.5303 14.417 0.388
12.5508 14.729 0.392
12.5712 13.979 0.382
12.5917 13.563 0.376
12.6122 13.865 0.380
12.6326 13.583 0.376
12.6531 14.250 0.385
12.6736 13.844 0.380
12.6940 13.677 0.377
12.7145 13.594 0.376
12.7349 14.521 0.389
12.7554 13.417 0.374
12.7759 13.229 0.371
12.7963 13.333 0.373
12.8168 13.917 0.381
12.8373 14.042 0.382
12.8577 13.938 0.381
12.8782 13.302 0.372
12.8986 13.406 0.374
12.9191 12.740 0.364
12.9396 12.417 0.360
12.9600 13.417 0.374
12.9805 13.333 0.373
13.0010 13.344 0.373
13.0214 12.563 0.362
13.0419 12.948 0.367
13.0623 12.073 0.355
13.0828 12.271 0.358
13.1033 12.458 0.360
13.1237 12.438 0.360
13.1442 13.052 0.369
13.1647 12.958 0.367
13.1851 12.677 0.363
13.2056 13.115 0.370
13.2260 13.240 0.371
13.2465 12.396 0.359
13.2670 12.625 0.363
13.2874 11.750 0.350
13.3079 13.260 0.372
13.3284 12.135 0.356
13.3488 13.479 0.375
13.3693 12.792 0.365
13.3897 12.760 0.365
13.4102 12.156 0.356
13.4307 11.875 0.352
13.4511 12.125 0.355
13.4716 11.990 0.353
13.4921 12.656 0.363
13.5125 12.177 0.356
13.5330 11.750 0.350
13.5535 11.302 0.343
13.5739 11.802 0.351
13.5944 12.219 0.357
13.6148 11.354 0.344
13.6353 11.260 0.342
13.6558 11.552 0.347
13.6762 11.958 0.353
13.6967 11.542 0.347
13.7172 11.646 0.348
13.7376 11.375 0.344
13.7581 11.448 0.345
13.7785 12.146 0.356
13.7990 11.729 0.350
13.8195 11.083 0.340
13.8399 11.469 0.346
13.8604 11.000 0.339
13.8809 11.313 0.343
13.9013 11.042 0.339
13.9218 11.281 0.343
13.9422 10.656 0.333
13.9627 11.948 0.353
13.9832 11.396 0.345
14.0036 10.875 0.337
14.0241 10.698 0.334
14.0446 11.531 0.347
14.0650 11.406 0.345
14.0855 10.823 0.336
14.1059 10.635 0.333
14.1264 10.594 0.332
14.1469 11.219 0.342
14.1673 10.521 0.331
14.1878 11.354 0.344
14.2083 10.688 0.334
14.2287 10.271 0.327
14.2492 10.927 0.337
14.2696 10.875 0.337
14.2901 10.365 0.329
14.3106 11.271 0.343
14.3310 11.042 0.339
14.3515 10.750 0.335
14.3720 10.427 0.330
14.3924 10.479 0.330
14.4129 10.354 0.328
14.4334 10.344 0.328
14.4538 10.771 0.335
14.4743 10.729 0.334
14.4947 10.948 0.338
14.5152 10.500 0.331
14.5357 10.927 0.337
14.5561 10.406 0.329
14.5766 11.063 0.339
14.5971 10.854 0.336
14.6175 10.927 0.337
14.6380 10.979 0.338
14.6584 10.531 0.331
14.6789 10.969 0.338
14.6994 10.208 0.326
14.7198 10.510 0.331
14.7403 10.646 0.333
14.7608 10.448 0.330
14.7812 9.531 0.315
14.8017 10.479 0.330
14.8221 10.698 0.334
14.8426 9.813 0.320
14.8631 9.563 0.316
14.8835 10.271 0.327
14.9040 9.792 0.319
14.9245 10.219 0.326
14.9449 10.104 0.324
14.9654 10.417 0.329
14.9858 10.469 0.330
15.0063 10.563 0.332
15.0268 10.271 0.327
15.0472 10.333 0.328
15.0677 10.052 0.324
15.0882 10.177 0.326
15.1086 9.771 0.319
15.1291 9.740 0.319
15.1495 10.042 0.323
15.1700 10.260 0.327
15.1905 9.740 0.319
15.2109 10.656 0.333
15.2314 9.615 0.316
15.2519 8.917 0.305
15.2723 9.656 0.317
15.2928 10.135 0.325
15.3133 9.833 0.320
15.3337 9.688 0.318
15.3542 10.115 0.325
15.3746 9.927 0.322
15.3951 10.333 0.328
15.4156 9.844 0.320
15.4360 9.479 0.314
15.4565 10.354 0.328
15.4770 9.646 0.317
15.4974 9.729 0.318
15.5179 9.625 0.317
15.5383 10.354 0.328
15.5588 9.958 0.322
15.5793 9.781 0.319
15.5997 10.031 0.323
15.6202 9.375 0.313
15.6407 9.625 0.317
15.6611 10.771 0.335
15.6816 10.385 0.329
15.7020 11.927 0.352
15.7225 12.344 0.359
15.7430 13.979 0.382
15.7634 15.865 0.407
15.7839 17.250 0.424
15.8044 15.719 0.405
15.8248 13.865 0.380
15.8453 11.875 0.352
15.8657 10.688 0.334
15.8862 10.323 0.328
15.9067 9.854 0.320
15.9271 10.344 0.328
15.9476 9.729 0.318
15.9681 10.010 0.323
15.9885 9.760 0.319
16.0090 9.990 0.323
16.0295 9.500 0.315
16.0499 9.802 0.320
16.0704 9.125 0.308
16.0908 9.385 0.313
16.1113 9.458 0.314
16.1318 9.823 0.320
16.1522 9.323 0.312
16.1727 8.844 0.304
16.1932 9.333 0.312
16.2136 9.385 0.313
16.2341 9.990 0.323
16.2545 9.594 0.316
16.2750 9.073 0.307
16.2955 10.031 0.323
16.3159 9.521 0.315
16.3364 9.500 0.315
16.3569 9.729 0.318
16.3773 9.208 0.310
16.3978 9.344 0.312
16.4182 9.000 0.306
16.4387 8.896 0.304
16.4592 8.875 0.304
16.4796 8.719 0.301
16.5001 9.458 0.314
16.5206 8.698 0.301
16.5410 9.188 0.309
16.5615 9.406 0.313
16.5819 9.115 0.308
16.6024 9.281 0.311
16.6229 9.177 0.309
16.6433 10.021 0.323
16.6638 9.010 0.306
16.6843 9.844 0.320
16.7047 9.750 0.319
16.7252 9.500 0.315
16.7456 9.135 0.308
16.7661 9.479 0.314
16.7866 9.479 0.314
16.8070 9.281 0.311
16.8275 9.063 0.307
16.8480 9.375 0.313
16.8684 9.396 0.313
16.8889 9.031 0.307
16.9094 9.448 0.314
16.9298 8.906 0.305
16.9503 9.229 0.310
16.9707 9.135 0.308
16.9912 9.271 0.311
17.0117 9.354 0.312
17.0321 9.760 0.319
17.0526 8.771 0.302
17.0731 8.698 0.301
17.0935 9.667 0.317
17.1140 9.719 0.318
17.1344 9.417 0.313
17.1549 9.073 0.307
17.1754 9.635 0.317
17.1958 9.646 0.317
17.2163 9.271 0.311
17.2368 8.948 0.305
17.2572 9.250 0.310
17.2777 9.563 0.316
17.2981 9.833 0.320
17.3186 9.667 0.317
17.3391 9.750 0.319
17.3595 10.490 0.331
17.3800 10.490 0.331
17.4005 10.490 0.331
17.4209 11.177 0.341
17.4414 11.281 0.343
17.4618 10.906 0.337
17.4823 10.104 0.324
17.5028 11.198 0.342
17.5232 11.417 0.345
17.5437 10.854 0.336
17.5642 10.406 0.329
17.5846 10.260 0.327
17.6051 10.281 0.327
17.6255 10.719 0.334
17.6460 10.625 0.333
17.6665 11.073 0.340
17.6869 10.260 0.327
17.7074 11.167 0.341
17.7279 11.594 0.348
17.7483 12.208 0.357
17.7688 11.948 0.353
17.7893 13.042 0.369
17.8097 14.177 0.384
17.8302 14.448 0.388
17.8506 13.948 0.381
17.8711 14.406 0.387
17.8916 15.250 0.399
17.9120 13.938 0.381
17.9325 13.927 0.381
17.9530 14.927 0.394
17.9734 15.500 0.402
17.9939 15.677 0.404
18.0143 16.958 0.420
18.0348 18.865 0.443
18.0553 19.677 0.453
18.0757 21.167 0.470
18.0962 22.250 0.481
18.1167 20.740 0.465
18.1371 22.125 0.480
18.1576 22.823 0.488
18.1780 24.115 0.501
18.1985 25.510 0.515
18.2190 28.510 0.545
18.2394 32.271 0.580
18.2599 36.521 0.617
18.2804 37.292 0.623
18.3008 38.438 0.633
18.3213 38.073 0.630
18.3417 38.531 0.634
18.3622 34.990 0.604
18.3827 34.354 0.598
18.4031 34.115 0.596
18.4236 32.479 0.582
18.4441 32.229 0.579
18.4645 32.833 0.585
18.4850 32.906 0.585
18.5054 31.896 0.576
18.5259 33.375 0.590
18.5464 35.458 0.608
18.5668 37.010 0.621
18.5873 38.573 0.634
18.6078 40.083 0.646
18.6282 39.146 0.639
18.6487 38.135 0.630
18.6692 35.990 0.612
18.6896 34.708 0.601
18.7101 32.292 0.580
18.7305 32.813 0.585
18.7510 32.438 0.581
18.7715 32.740 0.584
18.7919 30.563 0.564
18.8124 31.083 0.569
18.8329 28.667 0.546
18.8533 26.875 0.529
18.8738 27.115 0.531
18.8942 26.979 0.530
18.9147 25.563 0.516
18.9352 24.427 0.504
18.9556 22.990 0.489
18.9761 22.438 0.483
18.9966 21.833 0.477
19.0170 21.906 0.478
19.0375 19.896 0.455
19.0579 20.406 0.461
19.0784 20.021 0.457
19.0989 20.125 0.458
19.1193 20.948 0.467
19.1398 20.750 0.465
19.1603 21.469 0.473
19.1807 21.969 0.478
19.2012 21.656 0.475
19.2216 21.021 0.468
19.2421 22.427 0.483
19.2626 21.760 0.476
19.2830 22.094 0.480
19.3035 22.542 0.485
19.3240 22.719 0.486
19.3444 22.469 0.484
19.3649 23.594 0.496
19.3853 24.313 0.503
19.4058 24.438 0.505
19.4263 25.719 0.518
19.4467 25.438 0.515
19.4672 27.490 0.535
19.4877 28.208 0.542
19.5081 30.542 0.564
19.5286 32.479 0.582
19.5491 34.375 0.598
19.5695 36.990 0.621
19.5900 39.240 0.639
19.6104 41.000 0.654
19.6309 44.896 0.684
19.6514 49.729 0.720
19.6718 57.073 0.771
19.6923 63.896 0.816
19.7128 77.667 0.899
19.7332 100.354 1.022
19.7537 134.115 1.182
19.7741 197.260 1.433
19.7946 298.479 1.763
19.8151 410.594 2.068
19.8355 347.427 1.902
19.8560 256.375 1.634
19.8765 209.042 1.476
19.8969 113.333 1.087
19.9174 61.813 0.802
19.9378 45.833 0.691
19.9583 37.250 0.623
19.9788 32.177 0.579
19.9992 30.823 0.567
20.0197 27.771 0.538
20.0402 25.417 0.515
20.0606 24.552 0.506
20.0811 21.969 0.478
20.1015 21.000 0.468
20.1220 20.854 0.466
20.1425 20.875 0.466
20.1629 21.000 0.468
20.1834 21.781 0.476
20.2039 22.563 0.485
20.2243 24.094 0.501
20.2448 24.781 0.508
20.2653 26.292 0.523
20.2857 27.458 0.535
20.3062 26.406 0.524
20.3266 25.938 0.520
20.3471 24.844 0.509
20.3676 25.115 0.511
20.3880 23.635 0.496
20.4085 23.667 0.497
20.4290 22.990 0.489
20.4494 23.646 0.496
20.4699 22.698 0.486
20.4903 22.667 0.486
20.5108 21.771 0.476
20.5313 21.302 0.471
20.5517 20.219 0.459
20.5722 18.906 0.444
20.5927 18.219 0.436
20.6131 17.906 0.432
20.6336 16.396 0.413
20.6540 16.021 0.409
20.6745 15.031 0.396
20.6950 14.313 0.386
20.7154 14.375 0.387
20.7359 14.250 0.385
20.7564 13.667 0.377
20.7768 13.396 0.374
20.7973 13.406 0.374
20.8177 12.490 0.361
20.8382 12.604 0.362
20.8587 12.802 0.365
20.8791 12.563 0.362
20.8996 12.271 0.358
20.9201 12.573 0.362
20.9405 11.385 0.344
20.9610 11.646 0.348
20.9814 11.500 0.346
21.0019 12.490 0.361
21.0224 11.094 0.340
21.0428 10.635 0.333
21.0633 12.042 0.354
21.0838 11.125 0.340
21.1042 11.542 0.347
21.1247 11.885 0.352
21.1452 11.490 0.346
21.1656 11.219 0.342
21.1861 11.240 0.342
21.2065 11.115 0.340
21.2270 11.010 0.339
21.2475 11.625 0.348
21.2679 11.781 0.350
21.2884 11.510 0.346
21.3089 11.573 0.347
21.3293 11.042 0.339
21.3498 10.813 0.336
21.3702 11.167 0.341
21.3907 11.313 0.343
21.4112 10.667 0.333
21.4316 11.594 0.348
21.4521 10.771 0.335
21.4726 10.990 0.338
21.4930 10.958 0.338
21.5135 11.052 0.339
21.5339 10.667 0.333
21.5544 10.698 0.334
21.5749 10.510 0.331
21.5953 11.250 0.342
21.6158 10.646 0.333
21.6363 11.521 0.346
21.6567 11.396 0.345
21.6772 11.677 0.349
21.6976 12.302 0.358
21.7181 12.000 0.354
21.7386 11.417 0.345
21.7590 11.594 0.348
21.7795 11.156 0.341
21.8000 10.417 0.329
21.8204 11.031 0.339
21.8409 11.438 0.345
21.8613 11.667 0.349
21.8818 11.646 0.348
21.9023 11.885 0.352
21.9227 11.792 0.350
21.9432 12.375 0.359
21.9637 12.417 0.360
21.9841 12.698 0.364
22.0046 12.771 0.365
22.0251 13.448 0.374
22.0455 14.688 0.391
22.0660 15.604 0.403
22.0864 17.250 0.424
22.1069 20.000 0.456
22.1274 24.667 0.507
22.1478 35.115 0.605
22.1683 41.792 0.660
22.1888 42.854 0.668
22.2092 39.521 0.642
22.2297 34.385 0.598
22.2501 30.188 0.561
22.2706 24.635 0.507
22.2911 20.698 0.464
22.3115 17.510 0.427
22.3320 17.115 0.422
22.3525 15.167 0.397
22.3729 15.656 0.404
22.3934 14.656 0.391
22.4138 14.583 0.390
22.4343 13.125 0.370
22.4548 12.917 0.367
22.4752 13.115 0.370
22.4957 12.417 0.360
22.5162 12.250 0.357
22.5366 11.708 0.349
22.5571 12.021 0.354
22.5775 11.885 0.352
22.5980 11.729 0.350
22.6185 11.885 0.352
22.6389 10.844 0.336
22.6594 11.344 0.344
22.6799 11.021 0.339
22.7003 11.313 0.343
22.7208 10.719 0.334
22.7412 11.844 0.351
22.7617 11.229 0.342
22.7822 11.719 0.349
22.8026 11.438 0.345
22.8231 11.208 0.342
22.8436 11.552 0.347
22.8640 12.813 0.365
22.8845 12.938 0.367
22.9050 13.198 0.371
22.9254 13.833 0.380
22.9459 13.875 0.380
22.9663 13.438 0.374
22.9868 13.083 0.369
23.0073 12.302 0.358
23.0277 11.542 0.347
23.0482 11.698 0.349
23.0687 10.875 0.337
23.0891 9.948 0.322
23.1096 10.615 0.333
23.1300 10.344 0.328
23.1505 9.875 0.321
23.1710 9.823 0.320
23.1914 10.583 0.332
23.2119 10.156 0.325
23.2324 9.583 0.316
23.2528 9.750 0.319
23.2733 10.021 0.323
23.2937 10.177 0.326
23.3142 10.010 0.323
23.3347 10.281 0.327
23.3551 10.156 0.325
23.3756 9.833 0.320
23.3961 10.052 0.324
23.4165 10.583 0.332
23.4370 10.542 0.331
23.4574 10.479 0.330
23.4779 10.979 0.338
23.4984 11.302 0.343
23.5188 11.021 0.339
23.5393 11.333 0.344
23.5598 11.646 0.348
23.5802 12.729 0.364
23.6007 11.906 0.352
23.6211 12.271 0.358
23.6416 12.521 0.361
23.6621 12.354 0.359
23.6825 11.344 0.344
23.7030 11.198 0.342
23.7235 11.156 0.341
23.7439 10.073 0.324
23.7644 9.594 0.316
23.7849 9.240 0.310
23.8053 9.271 0.311
23.8258 9.115 0.308
23.8462 8.698 0.301
23.8667 9.104 0.308
23.8872 8.365 0.295
23.9076 8.729 0.302
23.9281 8.594 0.299
23.9486 8.604 0.299
23.9690 8.458 0.297
23.9895 8.042 0.289
24.0099 8.198 0.292
24.0304 8.188 0.292
24.0509 8.625 0.300
24.0713 8.594 0.299
24.0918 7.990 0.288
24.1123 8.083 0.290
24.1327 8.354 0.295
24.1532 8.563 0.299
24.1736 8.563 0.299
24.1941 8.542 0.298
24.2146 9.271 0.311
24.2350 9.240 0.310
24.2555 9.188 0.309
24.2760 9.885 0.321
24.2964 11.000 0.339
24.3169 10.938 0.338
24.3373 10.792 0.335
24.3578 10.344 0.328
24.3783 9.906 0.321
24.3987 9.563 0.316
24.4192 9.313 0.311
24.4397 7.958 0.288
24.4601 8.594 0.299
24.4806 8.458 0.297
24.5011 8.021 0.289
24.5215 8.063 0.290
24.5420 8.281 0.294
24.5624 7.542 0.280
24.5829 8.125 0.291
24.6034 8.990 0.306
24.6238 7.802 0.285
24.6443 8.375 0.295
24.6648 8.188 0.292
24.6852 8.021 0.289
24.7057 8.708 0.301
24.7261 8.885 0.304
24.7466 8.563 0.299
24.7671 8.281 0.294
24.7875 8.073 0.290
24.8080 7.698 0.283
24.8285 8.625 0.300
24.8489 7.927 0.287
24.8694 7.552 0.280
24.8898 8.333 0.295
24.9103 7.740 0.284
24.9308 8.031 0.289
24.9512 7.740 0.284
24.9717 7.781 0.285
24.9922 7.688 0.283
25.0126 7.479 0.279
25.0331 7.542 0.280
25.0535 6.792 0.266
25.0740 7.167 0.273
25.0945 7.635 0.282
25.1149 7.542 0.280
25.1354 7.458 0.279
25.1559 7.406 0.278
25.1763 7.604 0.281
25.1968 7.417 0.278
25.2172 8.094 0.290
25.2377 7.573 0.281
25.2582 7.365 0.277
25.2786 7.469 0.279
25.2991 7.583 0.281
25.3196 7.781 0.285
25.3400 7.615 0.282
25.3605 7.948 0.288
25.3810 7.469 0.279
25.4014 7.000 0.270
25.4219 7.531 0.280
25.4423 7.885 0.287
25.4628 7.531 0.280
25.4833 7.458 0.279
25.5037 7.438 0.278
25.5242 8.063 0.290
25.5447 8.552 0.298
25.5651 8.792 0.303
25.5856 8.771 0.302
25.6060 9.042 0.307
25.6265 9.094 0.308
25.6470 9.365 0.312
25.6674 9.438 0.314
25.6879 8.729 0.302
25.7084 8.531 0.298
25.7288 8.167 0.292
25.7493 7.969 0.288
25.7697 8.156 0.291
25.7902 7.375 0.277
25.8107 7.490 0.279
25.8311 7.906 0.287
25.8516 7.063 0.271
25.8721 7.313 0.276
25.8925 7.490 0.279
25.9130 7.104 0.272
25.9334 7.500 0.280
25.9539 7.583 0.281
25.9744 7.375 0.277
25.9948 7.333 0.276
26.0153 8.104 0.291
26.0358 7.552 0.280
26.0562 7.865 0.286
26.0767 7.313 0.276
26.0971 8.063 0.290
26.1176 8.115 0.291
26.1381 7.708 0.283
26.1585 7.854 0.286
26.1790 7.875 0.286
26.1995 7.719 0.284
26.2199 8.125 0.291
26.2404 7.375 0.277
26.2609 7.771 0.285
26.2813 7.990 0.288
26.3018 8.719 0.301
26.3222 7.656 0.282
26.3427 7.990 0.288
26.3632 7.646 0.282
26.3836 7.313 0.276
26.4041 7.906 0.287
26.4246 7.865 0.286
26.4450 7.667 0.283
26.4655 7.885 0.287
26.4859 7.698 0.283
26.5064 8.438 0.296
26.5269 8.250 0.293
26.5473 8.010 0.289
26.5678 7.500 0.280
26.5883 8.271 0.294
26.6087 8.146 0.291
26.6292 8.094 0.290
26.6496 8.885 0.304
26.6701 8.385 0.296
26.6906 7.635 0.282
26.7110 8.177 0.292
26.7315 8.604 0.299
26.7520 8.448 0.297
26.7724 8.490 0.297
26.7929 8.479 0.297
26.8133 8.896 0.304
26.8338 8.792 0.303
26.8543 8.229 0.293
26.8747 8.781 0.302
26.8952 8.542 0.298
26.9157 8.667 0.300
26.9361 7.990 0.288
26.9566 8.490 0.297
26.9770 8.844 0.304
26.9975 7.958 0.288
27.0180 8.271 0.294
27.0384 8.552 0.298
27.0589 7.583 0.281
27.0794 7.688 0.283
27.0998 8.083 0.290
27.1203 7.927 0.287
27.1408 7.573 0.281
27.1612 7.458 0.279
27.1817 7.854 0.286
27.2021 7.719 0.284
27.2226 7.948 0.288
27.2431 7.896 0.287
27.2635 8.010 0.289
27.2840 7.688 0.283
27.3045 7.427 0.278
27.3249 7.875 0.286
27.3454 7.469 0.279
27.3658 7.885 0.287
27.3863 7.292 0.276
27.4068 7.448 0.279
27.4272 8.125 0.291
27.4477 8.083 0.290
27.4682 8.229 0.293
27.4886 8.385 0.296
27.5091 8.635 0.300
27.5295 8.156 0.291
27.5500 8.240 0.293
27.5705 9.021 0.307
27.5909 8.625 0.300
27.6114 7.760 0.284
27.6319 7.979 0.288
27.6523 8.271 0.294
27.6728 7.875 0.286
27.6932 8.063 0.290
27.7137 8.115 0.291
27.7342 8.385 0.296
27.7546 8.417 0.296
27.7751 8.438 0.296
27.7956 8.719 0.301
27.8160 8.083 0.290
27.8365 8.125 0.291
27.8569 8.563 0.299
27.8774 8.417 0.296
27.8979 8.417 0.296
27.9183 9.000 0.306
27.9388 7.896 0.287
27.9593 8.479 0.297
27.9797 8.375 0.295
28.0002 8.260 0.293
28.0207 8.177 0.292
28.0411 7.854 0.286
28.0616 8.646 0.300
28.0820 7.729 0.284
28.1025 8.031 0.289
28.1230 8.042 0.289
28.1434 7.844 0.286
28.1639 7.469 0.279
28.1844 7.344 0.277
28.2048 7.198 0.274
28.2253 7.281 0.275
28.2457 7.260 0.275
28.2662 7.135 0.273
28.2867 7.104 0.272
28.3071 7.292 0.276
28.3276 7.281 0.275
28.3481 7.385 0.277
28.3685 7.438 0.278
28.3890 6.583 0.262
28.4094 7.396 0.278
28.4299 6.771 0.266
28.4504 6.740 0.265
28.4708 7.365 0.277
28.4913 7.188 0.274
28.5118 6.979 0.270
28.5322 7.292 0.276
28.5527 7.115 0.272
28.5731 7.229 0.274
28.5936 7.667 0.283
28.6141 7.156 0.273
28.6345 7.865 0.286
28.6550 7.750 0.284
28.6755 7.719 0.284
28.6959 7.240 0.275
28.7164 8.396 0.296
28.7368 8.302 0.294
28.7573 7.115 0.272
28.7778 7.333 0.276
28.7982 7.083 0.272
28.8187 7.354 0.277
28.8392 7.229 0.274
28.8596 7.313 0.276
28.8801 6.698 0.264
28.9006 6.896 0.268
28.9210 7.229 0.274
28.9415 7.031 0.271
28.9619 6.521 0.261
28.9824 6.885 0.268
29.0029 6.385 0.258
29.0233 6.542 0.261
29.0438 6.885 0.268
29.0643 7.000 0.270
29.0847 6.365 0.257
29.1052 6.750 0.265
29.1256 6.094 0.252
29.1461 6.719 0.265
29.1666 6.813 0.266
29.1870 6.823 0.267
29.2075 6.979 0.270
29.2280 7.385 0.277
29.2484 7.292 0.276
29.2689 7.385 0.277
29.2893 8.635 0.300
29.3098 8.292 0.294
29.3303 8.854 0.304
29.3507 8.573 0.299
29.3712 8.521 0.298
29.3917 8.260 0.293
29.4121 7.656 0.282
29.4326 7.458 0.279
29.4530 7.250 0.275
29.4735 6.740 0.265
29.4940 6.740 0.265
29.5144 7.010 0.270
29.5349 6.990 0.270
29.5554 6.323 0.257
29.5758 7.104 0.272
29.5963 6.771 0.266
29.6168 7.146 0.273
29.6372 7.365 0.277
29.6577 7.000 0.270
29.6781 6.302 0.256
29.6986 6.365 0.257
29.7191 6.375 0.258
29.7395 6.906 0.268
29.7600 6.500 0.260
29.7805 6.427 0.259
29.8009 6.052 0.251
29.8214 6.208 0.254
29.8418 6.323 0.257
29.8623 6.396 0.258
29.8828 6.938 0.269
29.9032 6.781 0.266
29.9237 6.927 0.269
29.9442 6.542 0.261
29.9646 6.688 0.264
29.9851 7.125 0.272
30.0055 6.417 0.259
30.0260 6.542 0.261
30.0465 6.479 0.260
30.0669 6.583 0.262
30.0874 6.552 0.261
30.1079 6.792 0.266
30.1283 6.677 0.264
30.1488 6.490 0.260
30.1692 6.042 0.251
30.1897 6.406 0.258
30.2102 6.042 0.251
30.2306 6.510 0.260
30.2511 6.188 0.254
30.2716 6.354 0.257
30.2920 6.521 0.261
30.3125 6.594 0.262
30.3329 6.448 0.259
30.3534 6.396 0.258
30.3739 5.906 0.248
30.3943 6.271 0.256
30.4148 6.375 0.258
30.4353 5.990 0.250
30.4557 5.990 0.250
30.4762 5.656 0.243
30.4967 6.479 0.260
30.5171 6.552 0.261
30.5376 6.448 0.259
30.5580 6.771 0.266
30.5785 6.656 0.263
30.5990 6.469 0.260
30.6194 5.958 0.249
30.6399 6.510 0.260
30.6604 6.125 0.253
30.6808 7.260 0.275
30.7013 7.292 0.276
30.7217 6.688 0.264
30.7422 6.917 0.268
30.7627 7.135 0.273
30.7831 7.542 0.280
30.8036 7.531 0.280
30.8241 7.302 0.276
30.8445 8.375 0.295
30.8650 8.719 0.301
30.8854 9.573 0.316
30.9059 10.344 0.328
30.9264 12.438 0.360
30.9468 15.677 0.404
30.9673 22.448 0.484
30.9878 36.323 0.615
31.0082 48.573 0.711
31.0287 55.375 0.759
31.0491 49.271 0.716
31.0696 43.865 0.676
31.0901 39.656 0.643
31.1105 33.844 0.594
31.1310 27.406 0.534
31.1515 20.500 0.462
31.1719 13.615 0.377
31.1924 10.417 0.329
31.2128 9.125 0.308
31.2333 8.667 0.300
31.2538 7.875 0.286
31.2742 7.635 0.282
31.2947 7.656 0.282
31.3152 7.240 0.275
31.3356 7.500 0.280
31.3561 6.365 0.257
31.3766 6.583 0.262
31.3970 6.833 0.267
31.4175 7.125 0.272
31.4379 6.781 0.266
31.4584 6.344 0.257
31.4789 6.281 0.256
31.4993 6.208 0.254
31.5198 6.542 0.261
31.5403 6.042 0.251
31.5607 6.344 0.257
31.5812 6.458 0.259
31.6016 6.260 0.255
31.6221 6.396 0.258
31.6426 6.646 0.263
31.6630 6.198 0.254
31.6835 6.250 0.255
31.7040 6.781 0.266
31.7244 6.458 0.259
31.7449 6.365 0.257
31.7653 6.333 0.257
31.7858 6.521 0.261
31.8063 6.365 0.257
31.8267 6.469 0.260
31.8472 6.917 0.268
31.8677 7.448 0.279
31.8881 7.219 0.274
31.9086 6.875 0.268
31.9290 6.927 0.269
31.9495 7.010 0.270
31.9700 6.771 0.266
31.9904 6.990 0.270
32.0109 7.438 0.278
32.0314 7.510 0.280
32.0518 8.677 0.301
32.0723 9.292 0.311
32.0927 9.208 0.310
32.1132 9.063 0.307
32.1337 9.458 0.314
32.1541 9.281 0.311
32.1746 9.260 0.311
32.1951 9.667 0.317
32.2155 10.260 0.327
32.2360 10.229 0.326
32.2565 9.865 0.321
32.2769 9.771 0.319
32.2974 9.469 0.314
32.3178 9.125 0.308
32.3383 8.854 0.304
32.3588 9.365 0.312
32.3792 9.438 0.314
32.3997 9.563 0.316
32.4202 10.333 0.328
32.4406 10.292 0.327
32.4611 12.104 0.355
32.4815 13.021 0.368
32.5020 13.781 0.379
32.5225 15.250 0.399
32.5429 16.208 0.411
32.5634 17.948 0.432
32.5839 20.135 0.458
32.6043 22.479 0.484
32.6248 21.438 0.473
32.6452 19.500 0.451
32.6657 16.760 0.418
32.6862 14.688 0.391
32.7066 13.938 0.381
32.7271 12.042 0.354
32.7476 9.719 0.318
32.7680 8.333 0.295
32.7885 7.844 0.286
32.8089 6.854 0.267
32.8294 7.792 0.285
32.8499 6.479 0.260
32.8703 6.677 0.264
32.8908 7.198 0.274
32.9113 6.719 0.265
32.9317 7.052 0.271
32.9522 6.531 0.261
32.9726 6.188 0.254
32.9931 6.490 0.260
33.0136 6.646 0.263
33.0340 6.417 0.259
33.0545 6.427 0.259
33.0750 6.521 0.261
33.0954 6.906 0.268
33.1159 7.031 0.271
33.1364 6.521 0.261
33.1568 6.802 0.266
33.1773 6.729 0.265
33.1977 6.958 0.269
33.2182 6.802 0.266
33.2387 6.521 0.261
33.2591 6.427 0.259
33.2796 6.771 0.266
33.3001 6.365 0.257
33.3205 6.323 0.257
33.3410 6.354 0.257
33.3614 6.396 0.258
33.3819 6.198 0.254
33.4024 6.792 0.266
33.4228 6.031 0.251
33.4433 6.333 0.257
33.4638 6.417 0.259
33.4842 6.250 0.255
33.5047 6.688 0.264
33.5251 6.365 0.257
33.5456 6.448 0.259
33.5661 6.500 0.260
33.5865 6.385 0.258
33.6070 5.896 0.248
33.6275 5.990 0.250
33.6479 5.948 0.249
33.6684 6.313 0.256
33.6888 6.167 0.253
33.7093 6.031 0.251
33.7298 6.052 0.251
33.7502 5.813 0.246
33.7707 6.479 0.260
33.7912 5.854 0.247
33.8116 5.802 0.246
33.8321 6.260 0.255
33.8526 6.333 0.257
33.8730 6.073 0.252
33.8935 6.104 0.252
33.9139 5.854 0.247
33.9344 6.188 0.254
33.9549 6.198 0.254
33.9753 5.750 0.245
33.9958 5.917 0.248
34.0163 5.844 0.247
34.0367 6.104 0.252
34.0572 5.500 0.239
34.0776 5.698 0.244
34.0981 6.156 0.253
34.1186 5.438 0.238
34.1390 5.979 0.250
34.1595 5.750 0.245
34.1800 6.198 0.254
34.2004 6.208 0.254
34.2209 6.583 0.262
34.2413 7.229 0.274
34.2618 6.792 0.266
34.2823 6.563 0.261
34.3027 6.563 0.261
34.3232 6.625 0.263
34.3437 6.896 0.268
34.3641 6.594 0.262
34.3846 6.104 0.252
34.4050 6.240 0.255
34.4255 6.219 0.255
34.4460 5.667 0.243
34.4664 5.740 0.245
34.4869 5.677 0.243
34.5074 6.219 0.255
34.5278 5.854 0.247
34.5483 6.042 0.251
34.5687 5.771 0.245
34.5892 5.833 0.247
34.6097 5.813 0.246
34.6301 6.031 0.251
34.6506 6.021 0.250
34.6711 6.188 0.254
34.6915 5.646 0.243
34.7120 6.156 0.253
34.7325 6.042 0.251
34.7529 5.667 0.243
34.7734 5.979 0.250
34.7938 5.594 0.241
34.8143 5.896 0.248
34.8348 5.875 0.247
34.8552 6.104 0.252
34.8757 6.094 0.252
34.8962 6.104 0.252
34.9166 6.573 0.262
34.9371 7.031 0.271
34.9575 7.365 0.277
34.9780 7.479 0.279
34.9985 8.042 0.289
35.0189 8.146 0.291
35.0394 7.365 0.277
35.0599 7.750 0.284
35.0803 8.271 0.294
35.1008 7.365 0.277
35.1212 7.146 0.273
35.1417 7.083 0.272
35.1622 6.771 0.266
35.1826 6.552 0.261
35.2031 6.208 0.254
35.2236 6.031 0.251
35.2440 6.000 0.250
35.2645 5.979 0.250
35.2849 6.573 0.262
35.3054 6.260 0.255
35.3259 6.240 0.255
35.3463 6.406 0.258
35.3668 6.229 0.255
35.3873 6.438 0.259
35.4077 5.938 0.249
35.4282 6.250 0.255
35.4486 6.125 0.253
35.4691 6.156 0.253
35.4896 6.604 0.262
35.5100 6.125 0.253
35.5305 6.510 0.260
35.5510 6.958 0.269
35.5714 7.021 0.270
35.5919 6.625 0.263
35.6124 6.979 0.270
35.6328 6.740 0.265
35.6533 6.135 0.253
35.6737 6.479 0.260
35.6942 6.490 0.260
35.7147 7.333 0.276
35.7351 6.219 0.255
35.7556 7.156 0.273
35.7761 7.281 0.275
35.7965 7.219 0.274
35.8170 7.323 0.276
35.8374 7.990 0.288
35.8579 7.813 0.285
35.8784 7.542 0.280
35.8988 7.677 0.283
35.9193 7.885 0.287
35.9398 8.385 0.296
35.9602 9.302 0.311
35.9807 8.865 0.304
36.0011 9.188 0.309
36.0216 9.750 0.319
36.0421 10.021 0.323
36.0625 11.865 0.352
36.0830 12.625 0.363
36.1035 13.688 0.378
36.1239 14.625 0.390
36.1444 16.063 0.409
36.1648 16.708 0.417
36.1853 16.063 0.409
36.2058 15.333 0.400
36.2262 15.208 0.398
36.2467 15.729 0.405
36.2672 15.510 0.402
36.2876 14.771 0.392
36.3081 14.594 0.390
36.3285 15.010 0.395
36.3490 15.073 0.396
36.3695 15.625 0.403
36.3899 16.792 0.418
36.4104 17.646 0.429
36.4309 18.135 0.435
36.4513 19.260 0.448
36.4718 20.115 0.458
36.4923 20.521 0.462
36.5127 21.990 0.479
36.5332 23.271 0.492
36.5536 26.021 0.521
36.5741 28.302 0.543
36.5946 29.417 0.554
36.6150 27.531 0.536
36.6355 23.938 0.499
36.6560 23.573 0.496
36.6764 23.406 0.494
36.6969 23.010 0.490
36.7173 20.365 0.461
36.7378 18.896 0.444
36.7583 16.531 0.415
36.7787 16.010 0.408
36.7992 16.000 0.408
36.8197 16.792 0.418
36.8401 16.573 0.415
36.8606 16.552 0.415
36.8810 16.635 0.416
36.9015 16.729 0.417
36.9220 17.406 0.426
36.9424 19.313 0.449
36.9629 20.177 0.458
36.9834 20.896 0.467
37.0038 23.094 0.490
37.0243 26.052 0.521
37.0447 32.510 0.582
37.0652 34.802 0.602
37.0857 31.990 0.577
37.1061 27.156 0.532
37.1266 24.688 0.507
37.1471 23.313 0.493
37.1675 21.719 0.476
37.1880 19.417 0.450
37.2084 16.167 0.410
37.2289 13.927 0.381
37.2494 12.208 0.357
37.2698 11.750 0.350
37.2903 11.563 0.347
37.3108 11.021 0.339
37.3312 11.448 0.345
37.3517 10.667 0.333
37.3722 10.219 0.326
37.3926 10.781 0.335
37.4131 10.083 0.324
37.4335 9.844 0.320
37.4540 10.469 0.330
37.4745 10.594 0.332
37.4949 10.313 0.328
37.5154 10.677 0.333
37.5359 10.063 0.324
37.5563 10.792 0.335
37.5768 10.094 0.324
37.5972 11.010 0.339
37.6177 10.698 0.334
37.6382 10.583 0.332
37.6586 11.594 0.348
37.6791 11.438 0.345
37.6996 11.667 0.349
37.7200 10.865 0.336
37.7405 10.969 0.338
37.7609 11.042 0.339
37.7814 11.323 0.343
37.8019 10.052 0.324
37.8223 10.510 0.331
37.8428 10.271 0.327
37.8633 10.302 0.328
37.8837 10.885 0.337
37.9042 10.781 0.335
37.9246 11.469 0.346
37.9451 12.135 0.356
37.9656 14.302 0.386
37.9860 16.781 0.418
38.0065 19.208 0.447
38.0270 18.979 0.445
38.0474 17.479 0.427
38.0679 15.729 0.405
38.0884 16.240 0.411
38.1088 16.833 0.419
38.1293 16.427 0.414
38.1497 13.979 0.382
38.1702 13.042 0.369
38.1907 13.198 0.371
38.2111 12.635 0.363
38.2316 12.667 0.363
38.2521 12.885 0.366
38.2725 11.958 0.353
38.2930 12.135 0.356
38.3134 11.875 0.352
38.3339 12.354 0.359
38.3544 11.313 0.343
38.3748 12.198 0.356
38.3953 11.833 0.351
38.4158 12.781 0.365
38.4362 13.740 0.378
38.4567 14.948 0.395
38.4771 14.385 0.387
38.4976 13.073 0.369
38.5181 12.948 0.367
38.5385 12.625 0.363
38.5590 13.417 0.374
38.5795 11.156 0.341
38.5999 10.646 0.333
38.6204 10.469 0.330
38.6408 10.000 0.323
38.6613 10.104 0.324
38.6818 9.938 0.322
38.7022 9.635 0.317
38.7227 9.250 0.310
38.7432 9.354 0.312
38.7636 9.323 0.312
38.7841 9.281 0.311
38.8045 9.073 0.307
38.8250 9.198 0.310
38.8455 8.948 0.305
38.8659 8.938 0.305
38.8864 8.865 0.304
38.9069 9.656 0.317
38.9273 8.969 0.306
38.9478 9.260 0.311
38.9683 9.135 0.308
38.9887 9.281 0.311
39.0092 9.146 0.309
39.0296 9.625 0.317
39.0501 9.031 0.307
39.0706 8.802 0.303
39.0910 9.281 0.311
39.1115 9.354 0.312
39.1320 9.333 0.312
39.1524 8.833 0.303
39.1729 8.979 0.306
39.1933 8.729 0.302
39.2138 9.333 0.312
39.2343 8.875 0.304
39.2547 9.938 0.322
39.2752 9.594 0.316
39.2957 8.667 0.300
39.3161 9.458 0.314
39.3366 9.573 0.316
39.3570 9.875 0.321
39.3775 9.927 0.322
39.3980 10.104 0.324
39.4184 10.031 0.323
39.4389 10.146 0.325
39.4594 10.042 0.323
39.4798 9.688 0.318
39.5003 9.885 0.321
39.5207 9.438 0.314
39.5412 10.073 0.324
39.5617 9.885 0.321
39.5821 9.510 0.315
39.6026 10.031 0.323
39.6231 9.740 0.319
39.6435 10.219 0.326
39.6640 9.969 0.322
39.6844 10.188 0.326
39.7049 10.115 0.325
39.7254 10.875 0.337
39.7458 11.240 0.342
39.7663 11.542 0.347
39.7868 12.292 0.358
39.8072 12.083 0.355
39.8277 11.604 0.348
39.8482 11.458 0.345
39.8686 10.979 0.338
39.8891 10.208 0.326
39.9095 10.427 0.330
39.9300 10.708 0.334
39.9505 9.688 0.318
39.9709 9.906 0.321
39.9914 9.896 0.321
40.0119 8.979 0.306
40.0323 9.729 0.318
40.0528 9.573 0.316
40.0732 10.281 0.327
40.0937 10.167 0.325
40.1142 10.167 0.325
40.1346 10.719 0.334
40.1551 10.542 0.331
40.1756 11.750 0.350
40.1960 12.063 0.354
40.2165 15.063 0.396
40.2369 17.719 0.430
40.2574 21.344 0.472
40.2779 19.542 0.451
40.2983 15.573 0.403
40.3188 13.479 0.375
40.3393 14.719 0.392
40.3597 15.917 0.407
40.3802 14.490 0.389
40.4006 12.688 0.364
40.4211 11.688 0.349
40.4416 10.854 0.336
40.4620 10.438 0.330
40.4825 10.771 0.335
40.5030 10.646 0.333
40.5234 10.406 0.329
40.5439 11.135 0.341
40.5643 10.438 0.330
40.5848 10.104 0.324
40.6053 9.760 0.319
40.6257 10.969 0.338
40.6462 10.031 0.323
40.6667 10.021 0.323
40.6871 9.875 0.321
40.7076 9.604 0.316
40.7281 9.594 0.316
40.7485 9.469 0.314
40.7690 9.552 0.315
40.7894 9.167 0.309
40.8099 9.573 0.316
40.8304 9.698 0.318
40.8508 9.688 0.318
40.8713 9.906 0.321
40.8918 10.000 0.323
40.9122 9.646 0.317
40.9327 9.719 0.318
40.9531 9.323 0.312
40.9736 9.656 0.317
40.9941 10.000 0.323
41.0145 10.177 0.326
41.0350 9.906 0.321
41.0555 11.729 0.350
41.0759 12.365 0.359
41.0964 13.677 0.377
41.1168 15.917 0.407
41.1373 14.719 0.392
41.1578 12.646 0.363
41.1782 12.500 0.361
41.1987 12.135 0.356
41.2192 12.719 0.364
41.2396 11.938 0.353
41.2601 10.938 0.338
41.2805 9.438 0.314
41.3010 9.479 0.314
41.3215 8.948 0.305
41.3419 9.021 0.307
41.3624 7.969 0.288
41.3829 8.583 0.299
41.4033 7.656 0.282
41.4238 7.792 0.285
41.4442 7.646 0.282
41.4647 8.104 0.291
41.4852 7.385 0.277
41.5056 7.583 0.281
41.5261 7.365 0.277
41.5466 7.010 0.270
41.5670 7.302 0.276
41.5875 6.823 0.267
41.6080 7.354 0.277
41.6284 7.469 0.279
41.6489 7.115 0.272
41.6693 6.667 0.264
41.6898 7.167 0.273
41.7103 7.688 0.283
41.7307 7.073 0.271
41.7512 6.906 0.268
41.7717 7.125 0.272
41.7921 7.604 0.281
41.8126 7.083 0.272
41.8330 7.667 0.283
41.8535 7.281 0.275
41.8740 7.042 0.271
41.8944 7.313 0.276
41.9149 7.917 0.287
41.9354 7.323 0.276
41.9558 7.792 0.285
41.9763 7.271 0.275
41.9967 7.760 0.284
42.0172 7.552 0.280
42.0377 7.396 0.278
42.0581 7.333 0.276
42.0786 7.281 0.275
42.0991 6.938 0.269
42.1195 7.385 0.277
42.1400 7.083 0.272
42.1604 7.646 0.282
42.1809 7.396 0.278
42.2014 7.469 0.279
42.2218 8.021 0.289
42.2423 8.031 0.289
42.2628 8.375 0.295
42.2832 8.021 0.289
42.3037 9.208 0.310
42.3242 9.458 0.314
42.3446 9.375 0.313
42.3651 9.865 0.321
42.3855 9.333 0.312
42.4060 9.417 0.313
42.4265 9.958 0.322
42.4469 9.427 0.313
42.4674 9.896 0.321
42.4879 9.396 0.313
42.5083 9.365 0.312
42.5288 9.229 0.310
42.5492 8.740 0.302
42.5697 8.552 0.298
42.5902 8.625 0.300
42.6106 8.688 0.301
42.6311 8.323 0.294
42.6516 8.969 0.306
42.6720 9.146 0.309
42.6925 8.583 0.299
42.7129 8.125 0.291
42.7334 8.458 0.297
42.7539 8.083 0.290
42.7743 8.167 0.292
42.7948 7.698 0.283
42.8153 8.083 0.290
42.8357 7.917 0.287
42.8562 8.063 0.290
42.8766 8.063 0.290
42.8971 7.990 0.288
42.9176 7.563 0.281
42.9380 8.000 0.289
42.9585 8.219 0.293
42.9790 7.698 0.283
42.9994 7.635 0.282
43.0199 8.281 0.294
43.0403 7.885 0.287
43.0608 7.729 0.284
43.0813 8.042 0.289
43.1017 7.750 0.284
43.1222 8.333 0.295
43.1427 8.240 0.293
43.1631 8.802 0.303
43.1836 9.656 0.317
43.2041 9.938 0.322
43.2245 9.719 0.318
43.2450 9.708 0.318
43.2654 9.740 0.319
43.2859 9.833 0.320
43.3064 9.760 0.319
43.3268 10.167 0.325
43.3473 10.531 0.331
43.3678 10.146 0.325
43.3882 10.063 0.324
43.4087 10.198 0.326
43.4291 11.198 0.342
43.4496 10.885 0.337
43.4701 11.354 0.344
43.4905 11.781 0.350
43.5110 13.042 0.369
43.5315 13.656 0.377
43.5519 15.917 0.407
43.5724 16.958 0.420
43.5928 19.438 0.450
43.6133 21.073 0.469
43.6338 20.344 0.460
43.6542 18.500 0.439
43.6747 15.938 0.407
43.6952 15.000 0.395
43.7156 15.760 0.405
43.7361 15.135 0.397
43.7565 14.167 0.384
43.7770 11.698 0.349
43.7975 10.646 0.333
43.8179 9.573 0.316
43.8384 8.521 0.298
43.8589 8.438 0.296
43.8793 8.521 0.298
43.8998 8.615 0.300
43.9202 8.042 0.289
43.9407 8.031 0.289
43.9612 7.646 0.282
43.9816 7.969 0.288
44.0021 7.740 0.284
44.0226 8.000 0.289
44.0430 7.677 0.283
44.0635 7.490 0.279
44.0840 7.417 0.278
44.1044 7.802 0.285
44.1249 7.854 0.286
44.1453 7.521 0.280
44.1658 8.667 0.300
44.1863 8.260 0.293
44.2067 7.885 0.287
44.2272 8.552 0.298
44.2477 7.719 0.284
44.2681 7.792 0.285
44.2886 7.542 0.280
44.3090 7.740 0.284
44.3295 7.896 0.287
44.3500 6.885 0.268
44.3704 7.354 0.277
44.3909 7.333 0.276
44.4114 7.521 0.280
44.4318 7.490 0.279
44.4523 7.500 0.280
44.4727 7.552 0.280
44.4932 7.292 0.276
44.5137 7.302 0.276
44.5341 6.896 0.268
44.5546 7.156 0.273
44.5751 7.031 0.271
44.5955 6.896 0.268
44.6160 6.948 0.269
44.6364 7.375 0.277
44.6569 7.844 0.286
44.6774 7.000 0.270
44.6978 7.219 0.274
44.7183 7.917 0.287
44.7388 7.146 0.273
44.7592 7.260 0.275
44.7797 7.219 0.274
44.8001 7.438 0.278
44.8206 7.656 0.282
44.8411 7.490 0.279
44.8615 8.010 0.289
44.8820 7.958 0.288
44.9025 7.885 0.287
44.9229 7.771 0.285
44.9434 7.708 0.283
44.9639 8.271 0.294
44.9843 7.938 0.288
45.0048 7.656 0.282
45.0252 7.969 0.288
45.0457 7.635 0.282
45.0662 7.688 0.283
45.0866 7.521 0.280
45.1071 8.115 0.291
45.1276 7.885 0.287
45.1480 7.906 0.287
45.1685 8.406 0.296
45.1889 9.396 0.313
45.2094 10.240 0.327
45.2299 9.740 0.319
45.2503 10.292 0.327
45.2708 9.740 0.319
45.2913 9.427 0.313
45.3117 9.156 0.309
45.3322 9.031 0.307
45.3526 8.760 0.302
45.3731 8.750 0.302
45.3936 8.833 0.303
45.4140 7.927 0.287
45.4345 8.271 0.294
45.4550 7.167 0.273
45.4754 7.167 0.273
45.4959 7.073 0.271
45.5163 7.177 0.273
45.5368 6.948 0.269
45.5573 7.000 0.270
45.5777 7.042 0.271
45.5982 6.521 0.261
45.6187 6.042 0.251
45.6391 6.458 0.259
45.6596 6.313 0.256
45.6800 6.344 0.257
45.7005 6.635 0.263
45.7210 6.615 0.262
45.7414 6.271 0.256
45.7619 6.156 0.253
45.7824 6.000 0.250
45.8028 6.552 0.261
45.8233 6.271 0.256
45.8438 5.917 0.248
45.8642 6.010 0.250
45.8847 6.573 0.262
45.9051 6.302 0.256
45.9256 6.083 0.252
45.9461 6.625 0.263
45.9665 6.083 0.252
45.9870 5.833 0.247
46.0075 5.813 0.246
46.0279 5.979 0.250
46.0484 5.615 0.242
46.0688 5.729 0.244
46.0893 5.698 0.244
46.1098 5.760 0.245
46.1302 5.906 0.248
46.1507 5.865 0.247
46.1712 5.688 0.243
46.1916 6.042 0.251
46.2121 5.677 0.243
46.2325 5.573 0.241
46.2530 5.854 0.247
46.2735 5.563 0.241
46.2939 5.594 0.241
46.3144 5.677 0.243
46.3349 5.563 0.241
46.3553 5.781 0.245
46.3758 5.594 0.241
46.3962 5.573 0.241
46.4167 5.438 0.238
46.4372 5.677 0.243
46.4576 5.448 0.238
46.4781 5.177 0.232
46.4986 5.594 0.241
46.5190 5.708 0.244
46.5395 5.771 0.245
46.5600 5.760 0.245
46.5804 5.885 0.248
46.6009 5.646 0.243
46.6213 5.635 0.242
46.6418 5.594 0.241
46.6623 5.583 0.241
46.6827 5.979 0.250
46.7032 5.813 0.246
46.7237 6.010 0.250
46.7441 6.052 0.251
46.7646 5.802 0.246
46.7850 5.740 0.245
46.8055 5.635 0.242
46.8260 5.448 0.238
46.8464 5.531 0.240
46.8669 6.010 0.250
46.8874 6.094 0.252
46.9078 5.563 0.241
46.9283 5.063 0.230
46.9487 5.833 0.247
46.9692 5.469 0.239
46.9897 5.490 0.239
47.0101 5.448 0.238
47.0306 5.708 0.244
47.0511 5.885 0.248
47.0715 5.594 0.241
47.0920 5.917 0.248
47.1124 6.135 0.253
47.1329 5.990 0.250
47.1534 5.813 0.246
47.1738 5.844 0.247
47.1943 5.896 0.248
47.2148 6.031 0.251
47.2352 6.052 0.251
47.2557 6.188 0.254
47.2761 6.146 0.253
47.2966 6.354 0.257
47.3171 6.646 0.263
47.3375 6.531 0.261
47.3580 6.469 0.260
47.3785 6.615 0.262
47.3989 7.000 0.270
47.4194 7.198 0.274
47.4399 7.604 0.281
47.4603 7.146 0.273
47.4808 7.510 0.280
47.5012 8.479 0.297
47.5217 9.781 0.319
47.5422 10.240 0.327
47.5626 11.844 0.351
47.5831 13.260 0.372
47.6036 13.948 0.381
47.6240 12.656 0.363
47.6445 11.615 0.348
47.6649 11.469 0.346
47.6854 10.625 0.333
47.7059 11.521 0.346
47.7263 10.240 0.327
47.7468 9.979 0.322
47.7673 9.177 0.309
47.7877 8.583 0.299
47.8082 8.292 0.294
47.8286 7.531 0.280
47.8491 7.823 0.285
47.8696 7.854 0.286
47.8900 7.583 0.281
47.9105 7.188 0.274
47.9310 7.469 0.279
47.9514 8.031 0.289
47.9719 7.563 0.281
47.9923 7.292 0.276
48.0128 7.156 0.273
48.0333 7.198 0.274
48.0537 6.927 0.269
48.0742 7.396 0.278
48.0947 7.167 0.273
48.1151 6.469 0.260
48.1356 6.844 0.267
48.1560 6.302 0.256
48.1765 6.365 0.257
48.1970 6.885 0.268
48.2174 6.781 0.266
48.2379 6.854 0.267
48.2584 6.615 0.262
48.2788 6.844 0.267
48.2993 6.688 0.264
48.3198 7.802 0.285
48.3402 7.573 0.281
48.3607 7.760 0.284
48.3811 7.250 0.275
48.4016 7.750 0.284
48.4221 7.646 0.282
48.4425 7.646 0.282
48.4630 7.229 0.274
48.4835 7.198 0.274
48.5039 6.885 0.268
48.5244 7.188 0.274
48.5448 6.885 0.268
48.5653 6.792 0.266
48.5858 6.281 0.256
48.6062 6.875 0.268
48.6267 6.667 0.264
48.6472 7.135 0.273
48.6676 6.656 0.263
48.6881 7.208 0.274
48.7085 7.021 0.270
48.7290 7.094 0.272
48.7495 6.760 0.265
48.7699 6.656 0.263
48.7904 6.063 0.251
48.8109 6.375 0.258
48.8313 5.990 0.250
48.8518 5.854 0.247
48.8722 6.146 0.253
48.8927 5.719 0.244
48.9132 5.594 0.241
48.9336 5.104 0.231
48.9541 5.271 0.234
48.9746 4.990 0.228
48.9950 5.406 0.237
49.0155 5.323 0.235
49.0359 4.521 0.217
49.0564 5.396 0.237
49.0769 4.948 0.227
49.0973 5.177 0.232
49.1178 4.948 0.227
49.1383 5.292 0.235
49.1587 5.479 0.239
49.1792 5.323 0.235
49.1997 5.094 0.230
49.2201 5.406 0.237
49.2406 5.167 0.232
49.2610 5.490 0.239
49.2815 5.604 0.242
49.3020 5.302 0.235
49.3224 5.042 0.229
49.3429 5.573 0.241
49.3634 5.677 0.243
49.3838 5.594 0.241
49.4043 5.594 0.241
49.4247 5.688 0.243
49.4452 5.896 0.248
49.4657 6.146 0.253
49.4861 6.219 0.255
49.5066 6.083 0.252
49.5271 6.000 0.250
49.5475 5.938 0.249
49.5680 6.927 0.269
49.5884 6.844 0.267
49.6089 6.896 0.268
49.6294 7.313 0.276
49.6498 6.969 0.269
49.6703 7.250 0.275
49.6908 7.260 0.275
49.7112 8.198 0.292
49.7317 8.323 0.294
49.7521 9.208 0.310
49.7726 10.208 0.326
49.7931 12.552 0.362
49.8135 14.146 0.384
49.8340 15.385 0.400
49.8545 15.063 0.396
49.8749 14.375 0.387
49.8954 13.479 0.375
49.9158 12.135 0.356
49.9363 12.313 0.358
49.9568 12.719 0.364
49.9772 12.573 0.362
49.9977 12.177 0.356
50.0182 10.802 0.335
50.0386 10.094 0.324
50.0591 9.573 0.316
50.0796 9.365 0.312
50.1000 9.469 0.314
50.1205 8.823 0.303
50.1409 9.292 0.311
50.1614 9.438 0.314
50.1819 9.417 0.313
50.2023 10.125 0.325
50.2228 9.427 0.313
50.2433 9.031 0.307
50.2637 8.635 0.300
50.2842 9.167 0.309
50.3046 8.792 0.303
50.3251 8.833 0.303
50.3456 8.729 0.302
50.3660 8.771 0.302
50.3865 8.542 0.298
50.4070 8.146 0.291
50.4274 8.365 0.295
50.4479 7.969 0.288
50.4683 8.229 0.293
50.4888 8.219 0.293
50.5093 8.396 0.296
50.5297 8.281 0.294
50.5502 8.354 0.295
50.5707 8.260 0.293
50.5911 7.792 0.285
50.6116 7.740 0.284
50.6320 8.167 0.292
50.6525 8.323 0.294
50.6730 8.479 0.297
50.6934 7.781 0.285
50.7139 8.542 0.298
50.7344 8.156 0.291
50.7548 8.406 0.296
50.7753 7.448 0.279
50.7958 7.656 0.282
50.8162 7.969 0.288
50.8367 7.979 0.288
50.8571 7.552 0.280
50.8776 8.052 0.290
50.8981 8.354 0.295
50.9185 9.104 0.308
50.9390 9.771 0.319
50.9595 11.094 0.340
50.9799 10.698 0.334
51.0004 8.938 0.305
51.0208 8.073 0.290
51.0413 7.854 0.286
51.0618 7.927 0.287
51.0822 8.260 0.293
51.1027 8.365 0.295
51.1232 7.573 0.281
51.1436 7.146 0.273
51.1641 6.406 0.258
51.1845 6.156 0.253
51.2050 6.667 0.264
51.2255 6.354 0.257
51.2459 6.583 0.262
51.2664 6.188 0.254
51.2869 6.510 0.260
51.3073 6.479 0.260
51.3278 6.406 0.258
51.3482 6.250 0.255
51.3687 5.698 0.244
51.3892 5.854 0.247
51.4096 5.875 0.247
51.4301 6.042 0.251
51.4506 5.896 0.248
51.4710 5.354 0.236
51.4915 5.604 0.242
51.5119 5.750 0.245
51.5324 5.917 0.248
51.5529 6.063 0.251
51.5733 5.875 0.247
51.5938 6.073 0.252
51.6143 6.167 0.253
51.6347 6.854 0.267
51.6552 7.083 0.272
51.6757 6.740 0.265
51.6961 6.667 0.264
51.7166 5.875 0.247
51.7370 6.385 0.258
51.7575 6.135 0.253
51.7780 5.906 0.248
51.7984 5.865 0.247
51.8189 5.979 0.250
51.8394 5.708 0.244
51.8598 5.531 0.240
51.8803 5.427 0.238
51.9007 5.313 0.235
51.9212 5.385 0.237
51.9417 4.656 0.220
51.9621 5.344 0.236
51.9826 4.990 0.228
52.0031 5.438 0.238
52.0235 5.344 0.236
52.0440 5.292 0.235
52.0644 5.667 0.243
52.0849 5.333 0.236
52.1054 5.542 0.240
52.1258 5.188 0.232
52.1463 5.740 0.245
52.1668 5.240 0.234
52.1872 5.969 0.249
52.2077 5.156 0.232
52.2281 5.313 0.235
52.2486 5.063 0.230
52.2691 4.969 0.228
52.2895 5.573 0.241
52.3100 5.948 0.249
52.3305 5.604 0.242
52.3509 6.042 0.251
52.3714 5.667 0.243
52.3918 5.865 0.247
52.4123 5.521 0.240
52.4328 5.531 0.240
52.4532 5.250 0.234
52.4737 5.313 0.235
52.4942 5.177 0.232
52.5146 5.146 0.232
52.5351 4.948 0.227
52.5556 5.417 0.238
52.5760 4.688 0.221
52.5965 4.865 0.225
52.6169 4.865 0.225
52.6374 4.865 0.225
52.6579 4.615 0.219
52.6783 4.844 0.225
52.6988 4.552 0.218
52.7193 4.813 0.224
52.7397 5.031 0.229
52.7602 4.531 0.217
52.7806 4.542 0.218
52.8011 4.427 0.215
52.8216 4.708 0.221
52.8420 5.271 0.234
52.8625 4.979 0.228
52.8830 5.031 0.229
52.9034 5.167 0.232
52.9239 4.750 0.222
52.9443 5.302 0.235
52.9648 5.677 0.243
52.9853 5.427 0.238
53.0057 5.302 0.235
53.0262 5.323 0.235
53.0467 5.406 0.237
53.0671 5.656 0.243
53.0876 5.365 0.236
53.1080 5.563 0.241
53.1285 5.708 0.244
53.1490 5.719 0.244
53.1694 5.677 0.243
53.1899 5.375 0.237
53.2104 5.385 0.237
53.2308 5.729 0.244
53.2513 5.688 0.243
53.2717 5.313 0.235
53.2922 5.375 0.237
53.3127 5.469 0.239
53.3331 5.042 0.229
53.3536 5.573 0.241
53.3741 5.146 0.232
53.3945 5.208 0.233
53.4150 5.156 0.232
53.4355 4.635 0.220
53.4559 4.750 0.222
53.4764 5.010 0.228
53.4968 5.146 0.232
53.5173 4.938 0.227
53.5378 4.552 0.218
53.5582 4.635 0.220
53.5787 4.656 0.220
53.5992 4.760 0.223
53.6196 4.438 0.215
53.6401 4.552 0.218
53.6605 4.667 0.220
53.6810 4.604 0.219
53.7015 4.646 0.220
53.7219 4.604 0.219
53.7424 4.417 0.214
53.7629 4.438 0.215
53.7833 4.771 0.223
53.8038 4.698 0.221
53.8242 4.583 0.219
53.8447 5.281 0.235
53.8652 4.406 0.214
53.8856 4.760 0.223
53.9061 4.490 0.216
53.9266 4.740 0.222
53.9470 4.729 0.222
53.9675 4.542 0.218
53.9879 4.469 0.216
54.0084 4.573 0.218
54.0289 4.688 0.221
54.0493 4.948 0.227
54.0698 5.031 0.229
54.0903 5.063 0.230
54.1107 5.229 0.233
54.1312 5.760 0.245
54.1516 5.010 0.228
54.1721 5.000 0.228
54.1926 5.031 0.229
54.2130 4.844 0.225
54.2335 5.146 0.232
54.2540 4.844 0.225
54.2744 4.958 0.227
54.2949 4.750 0.222
54.3154 5.594 0.241
54.3358 5.146 0.232
54.3563 5.115 0.231
54.3767 5.052 0.229
54.3972 5.115 0.231
54.4177 4.635 0.220
54.4381 4.938 0.227
54.4586 5.010 0.228
54.4791 5.240 0.234
54.4995 5.125 0.231
54.5200 4.677 0.221
54.5404 4.615 0.219
54.5609 4.885 0.226
54.5814 4.979 0.228
54.6018 4.969 0.228
54.6223 4.594 0.219
54.6428 5.031 0.229
54.6632 4.500 0.217
54.6837 4.635 0.220
54.7041 4.958 0.227
54.7246 4.469 0.216
54.7451 4.563 0.218
54.7655 4.729 0.222
54.7860 4.813 0.224
54.8065 4.260 0.211
54.8269 4.813 0.224
54.8474 4.646 0.220
54.8678 4.594 0.219
54.8883 4.938 0.227
54.9088 4.823 0.224
54.9292 5.115 0.231
54.9497 4.938 0.227
54.9702 5.083 0.230
54.9906 5.552 0.240
55.0111 5.604 0.242
55.0316 6.031 0.251
55.0520 6.604 0.262
55.0725 7.208 0.274
55.0929 7.708 0.283
55.1134 9.510 0.315
55.1339 11.448 0.345
55.1543 14.406 0.387
55.1748 15.906 0.407
55.1953 15.813 0.406
55.2157 15.229 0.398
55.2362 13.552 0.376
55.2566 13.219 0.371
55.2771 13.021 0.368
55.2976 12.750 0.364
55.3180 12.177 0.356
55.3385 12.135 0.356
55.3590 10.667 0.333
55.3794 9.969 0.322
55.3999 9.271 0.311
55.4203 8.115 0.291
55.4408 7.104 0.272
55.4613 6.094 0.252
55.4817 6.219 0.255
55.5022 5.177 0.232
55.5227 5.417 0.238
55.5431 5.490 0.239
55.5636 5.031 0.229
55.5840 4.906 0.226
55.6045 4.969 0.228
55.6250 4.698 0.221
55.6454 4.854 0.225
55.6659 4.896 0.226
55.6864 4.500 0.217
55.7068 4.792 0.223
55.7273 4.635 0.220
55.7477 4.906 0.226
55.7682 5.042 0.229
55.7887 4.760 0.223
55.8091 5.198 0.233
55.8296 5.146 0.232
55.8501 5.031 0.229
55.8705 5.323 0.235
55.8910 5.688 0.243
55.9115 6.063 0.251
55.9319 5.594 0.241
55.9524 5.521 0.240
55.9728 5.948 0.249
55.9933 5.906 0.248
56.0138 5.969 0.249
56.0342 5.865 0.247
56.0547 6.354 0.257
56.0752 6.906 0.268
56.0956 7.531 0.280
56.1161 8.250 0.293
56.1365 9.615 0.316
56.1570 11.000 0.339
56.1775 12.958 0.367
56.1979 12.865 0.366
56.2184 11.708 0.349
56.2389 10.302 0.328
56.2593 8.438 0.296
56.2798 8.656 0.300
56.3002 8.094 0.290
56.3207 8.771 0.302
56.3412 8.635 0.300
56.3616 8.146 0.291
56.3821 6.927 0.269
56.4026 6.115 0.252
56.4230 5.250 0.234
56.4435 4.948 0.227
56.4639 4.490 0.216
56.4844 4.469 0.216
56.5049 4.198 0.209
56.5253 4.219 0.210
56.5458 3.854 0.200
56.5663 4.292 0.211
56.5867 4.083 0.206
56.6072 4.000 0.204
56.6276 4.135 0.208
56.6481 3.833 0.200
56.6686 3.865 0.201
56.6890 3.990 0.204
56.7095 4.063 0.206
56.7300 4.167 0.208
56.7504 4.188 0.209
56.7709 3.792 0.199
56.7914 4.167 0.208
56.8118 4.052 0.205
56.8323 3.990 0.204
56.8527 3.958 0.203
56.8732 3.896 0.201
56.8937 4.104 0.207
56.9141 4.146 0.208
56.9346 3.927 0.202
56.9551 4.219 0.210
56.9755 3.688 0.196
56.9960 3.708 0.197
57.0164 4.177 0.209
57.0369 3.938 0.203
57.0574 3.510 0.191
57.0778 3.781 0.198
57.0983 4.073 0.206
57.1188 3.677 0.196
57.1392 4.000 0.204
57.1597 3.677 0.196
57.1801 3.969 0.203
57.2006 3.906 0.202
57.2211 3.938 0.203
57.2415 4.083 0.206
57.2620 3.896 0.201
57.2825 3.688 0.196
57.3029 3.885 0.201
57.3234 4.000 0.204
57.3438 4.385 0.214
57.3643 4.208 0.209
57.3848 4.115 0.207
57.4052 4.094 0.207
57.4257 4.167 0.208
57.4462 4.188 0.209
57.4666 4.302 0.212
57.4871 4.188 0.209
57.5075 4.313 0.212
57.5280 4.594 0.219
57.5485 4.396 0.214
57.5689 4.396 0.214
57.5894 4.729 0.222
57.6099 4.646 0.220
57.6303 4.656 0.220
57.6508 4.406 0.214
57.6713 4.719 0.222
57.6917 5.146 0.232
57.7122 5.000 0.228
57.7326 5.479 0.239
57.7531 5.292 0.235
57.7736 6.104 0.252
57.7940 6.156 0.253
57.8145 6.625 0.263
57.8350 7.344 0.277
57.8554 8.469 0.297
57.8759 9.344 0.312
57.8963 10.260 0.327
57.9168 10.281 0.327
57.9373 8.969 0.306
57.9577 7.688 0.283
57.9782 7.500 0.280
57.9987 7.698 0.283
58.0191 7.802 0.285
58.0396 7.969 0.288
58.0600 8.135 0.291
58.0805 7.521 0.280
58.1010 7.021 0.270
58.1214 6.344 0.257
58.1419 6.021 0.250
58.1624 5.917 0.248
58.1828 5.604 0.242
58.2033 5.594 0.241
58.2237 5.208 0.233
58.2442 5.438 0.238
58.2647 5.354 0.236
58.2851 5.656 0.243
58.3056 5.219 0.233
58.3261 5.458 0.238
58.3465 5.240 0.234
58.3670 5.385 0.237
58.3874 4.938 0.227
58.4079 4.688 0.221
58.4284 5.083 0.230
58.4488 4.792 0.223
58.4693 4.698 0.221
58.4898 4.948 0.227
58.5102 5.260 0.234
58.5307 5.115 0.231
58.5512 4.740 0.222
58.5716 5.385 0.237
58.5921 4.958 0.227
58.6125 4.969 0.228
58.6330 5.042 0.229
58.6535 5.396 0.237
58.6739 4.865 0.225
58.6944 4.854 0.225
58.7149 4.885 0.226
58.7353 4.698 0.221
58.7558 4.969 0.228
58.7762 5.042 0.229
58.7967 5.094 0.230
58.8172 5.198 0.233
58.8376 5.615 0.242
58.8581 5.573 0.241
58.8786 5.135 0.231
58.8990 5.365 0.236
58.9195 5.333 0.236
58.9399 5.594 0.241
58.9604 4.875 0.225
58.9809 5.219 0.233
59.0013 5.271 0.234
59.0218 5.865 0.247
59.0423 5.563 0.241
59.0627 5.667 0.243
59.0832 5.708 0.244
59.1036 5.917 0.248
59.1241 6.208 0.254
59.1446 6.938 0.269
59.1650 7.177 0.273
59.1855 7.208 0.274
59.2060 7.250 0.275
59.2264 6.771 0.266
59.2469 6.146 0.253
59.2674 5.510 0.240
59.2878 5.667 0.243
59.3083 5.385 0.237
59.3287 6.250 0.255
59.3492 5.844 0.247
59.3697 5.563 0.241
59.3901 5.365 0.236
59.4106 4.969 0.228
59.4311 4.792 0.223
59.4515 4.833 0.224
59.4720 4.125 0.207
59.4924 4.500 0.217
59.5129 3.896 0.201
59.5334 3.802 0.199
59.5538 4.177 0.209
59.5743 3.896 0.201
59.5948 3.719 0.197
59.6152 3.875 0.201
59.6357 4.438 0.215
59.6561 4.385 0.214
59.6766 4.125 0.207
59.6971 4.594 0.219
59.7175 4.177 0.209
59.7380 4.490 0.216
59.7585 4.635 0.220
59.7789 4.750 0.222
59.7994 5.042 0.229
59.8198 5.135 0.231
59.8403 6.042 0.251
59.8608 6.208 0.254
59.8812 6.427 0.259
59.9017 6.292 0.256
59.9222 5.458 0.238
59.9426 5.729 0.244
59.9631 5.385 0.237
59.9835 4.865 0.225
60.0040 5.646 0.243
60.0245 5.688 0.243
60.0449 5.531 0.240
60.0654 4.979 0.228
60.0859 5.177 0.232
60.1063 5.010 0.228
60.1268 4.573 0.218
60.1473 4.365 0.213
60.1677 4.281 0.211
60.1882 4.115 0.207
60.2086 4.365 0.213
60.2291 4.135 0.208
60.2496 4.083 0.206
60.2700 4.000 0.204
60.2905 3.813 0.199
60.3110 4.083 0.206
60.3314 4.229 0.210
60.3519 3.781 0.198
60.3723 3.833 0.200
60.3928 4.073 0.206
60.4133 4.115 0.207
60.4337 3.656 0.195
60.4542 4.260 0.211
60.4747 3.813 0.199
60.4951 3.948 0.203
60.5156 4.271 0.211
60.5360 4.323 0.212
60.5565 4.531 0.217
60.5770 4.396 0.214
60.5974 4.177 0.209
60.6179 4.375 0.213
60.6384 4.427 0.215
60.6588 4.240 0.210
60.6793 4.052 0.205
60.6997 4.354 0.213
60.7202 4.333 0.212
60.7407 4.260 0.211
60.7611 4.198 0.209
60.7816 4.406 0.214
60.8021 3.990 0.204
60.8225 4.146 0.208
60.8430 4.406 0.214
60.8634 3.958 0.203
60.8839 3.990 0.204
60.9044 3.854 0.200
60.9248 3.500 0.191
60.9453 3.865 0.201
60.9658 3.677 0.196
60.9862 3.823 0.200
61.0067 3.583 0.193
61.0272 3.344 0.187
61.0476 3.906 0.202
61.0681 3.667 0.195
61.0885 3.708 0.197
61.1090 3.625 0.194
61.1295 3.458 0.190
61.1499 3.667 0.195
61.1704 3.552 0.192
61.1909 3.594 0.193
61.2113 3.583 0.193
61.2318 3.646 0.195
61.2522 3.490 0.191
61.2727 3.906 0.202
61.2932 3.417 0.189
61.3136 3.479 0.190
61.3341 3.708 0.197
61.3546 3.938 0.203
61.3750 3.365 0.187
61.3955 3.573 0.193
61.4159 3.490 0.191
61.4364 3.854 0.200
61.4569 3.792 0.199
61.4773 3.594 0.193
61.4978 3.750 0.198
61.5183 3.875 0.201
61.5387 3.760 0.198
61.5592 3.646 0.195
61.5796 3.740 0.197
61.6001 3.677 0.196
61.6206 3.604 0.194
61.6410 3.333 0.186
61.6615 4.052 0.205
61.6820 3.615 0.194
61.7024 3.479 0.190
61.7229 3.115 0.180
61.7433 3.208 0.183
61.7638 3.208 0.183
61.7843 3.573 0.193
61.8047 3.406 0.188
61.8252 3.656 0.195
61.8457 3.635 0.195
61.8661 3.521 0.192
61.8866 3.573 0.193
61.9071 3.177 0.182
61.9275 3.438 0.189
61.9480 3.156 0.181
61.9684 3.688 0.196
61.9889 3.510 0.191
62.0094 3.615 0.194
62.0298 3.906 0.202
62.0503 4.010 0.204
62.0708 3.927 0.202
62.0912 4.385 0.214
62.1117 4.604 0.219
62.1321 4.313 0.212
62.1526 4.417 0.214
62.1731 4.635 0.220
62.1935 4.167 0.208
62.2140 3.969 0.203
62.2345 4.427 0.215
62.2549 3.969 0.203
62.2754 4.354 0.213
62.2958 4.260 0.211
62.3163 4.365 0.213
62.3368 3.781 0.198
62.3572 3.740 0.197
62.3777 3.854 0.200
62.3982 3.385 0.188
62.4186 3.375 0.188
62.4391 3.521 0.192
62.4595 3.354 0.187
62.4800 3.406 0.188
62.5005 3.479 0.190
62.5209 3.396 0.188
62.5414 3.115 0.180
62.5619 3.521 0.192
62.5823 3.500 0.191
62.6028 3.500 0.191
62.6232 3.417 0.189
62.6437 3.417 0.189
62.6642 3.167 0.182
62.6846 3.438 0.189
62.7051 3.604 0.194
62.7256 3.365 0.187
62.7460 3.271 0.185
62.7665 3.260 0.184
62.7870 3.125 0.180
62.8074 3.396 0.188
62.8279 3.063 0.179
62.8483 3.438 0.189
62.8688 3.365 0.187
62.8893 3.281 0.185
62.9097 3.313 0.186
62.9302 3.729 0.197
62.9507 3.510 0.191
62.9711 3.573 0.193
62.9916 3.583 0.193
63.0120 3.594 0.193
63.0325 3.573 0.193
63.0530 2.990 0.176
63.0734 3.802 0.199
63.0939 3.615 0.194
63.1144 3.417 0.189
63.1348 3.646 0.195
63.1553 3.250 0.184
63.1757 3.750 0.198
63.1962 3.615 0.194
63.2167 3.125 0.180
63.2371 3.635 0.195
63.2576 3.406 0.188
63.2781 3.708 0.197
63.2985 3.417 0.189
63.3190 3.552 0.192
63.3394 3.292 0.185
63.3599 3.333 0.186
63.3804 3.594 0.193
63.4008 3.625 0.194
63.4213 3.573 0.193
63.4418 3.635 0.195
63.4622 4.135 0.208
63.4827 4.073 0.206
63.5032 3.917 0.202
63.5236 3.688 0.196
63.5441 3.906 0.202
63.5645 3.667 0.195
63.5850 4.063 0.206
63.6055 4.250 0.210
63.6259 4.177 0.209
63.6464 3.948 0.203
63.6669 4.938 0.227
63.6873 5.052 0.229
63.7078 4.948 0.227
63.7282 4.865 0.225
63.7487 4.583 0.219
63.7692 4.906 0.226
63.7896 4.833 0.224
63.8101 4.427 0.215
63.8306 4.604 0.219
63.8510 4.760 0.223
63.8715 4.854 0.225
63.8919 4.427 0.215
63.9124 4.938 0.227
63.9329 4.698 0.221
63.9533 5.000 0.228
63.9738 4.896 0.226
63.9943 5.063 0.230
64.0147 5.021 0.229
64.0352 5.229 0.233
64.0556 4.625 0.219
64.0761 4.281 0.211
64.0966 4.208 0.209
64.1170 4.333 0.212
64.1375 4.438 0.215
64.1580 4.260 0.211
64.1784 4.427 0.215
64.1989 4.385 0.214
64.2193 4.510 0.217
64.2398 4.094 0.207
64.2603 3.844 0.200
64.2807 4.281 0.211
64.3012 4.448 0.215
64.3217 4.260 0.211
64.3421 4.146 0.208
64.3626 4.573 0.218
64.3831 4.344 0.213
64.4035 4.156 0.208
64.4240 4.417 0.214
64.4444 4.292 0.211
64.4649 4.354 0.213
64.4854 4.490 0.216
64.5058 5.281 0.235
64.5263 4.698 0.221
64.5468 4.979 0.228
64.5672 5.083 0.230
64.5877 5.708 0.244
64.6081 6.583 0.262
64.6286 7.188 0.274
64.6491 7.750 0.284
64.6695 7.854 0.286
64.6900 7.677 0.283
64.7105 6.708 0.264
64.7309 6.281 0.256
64.7514 5.844 0.247
64.7718 6.198 0.254
64.7923 6.490 0.260
64.8128 6.000 0.250
64.8332 6.490 0.260
64.8537 5.677 0.243
64.8742 5.156 0.232
64.8946 5.448 0.238
64.9151 4.813 0.224
64.9355 5.594 0.241
64.9560 4.365 0.213
64.9765 3.958 0.203
64.9969 4.010 0.204
65.0174 4.240 0.210
65.0379 3.948 0.203
65.0583 3.917 0.202
65.0788 3.760 0.198
65.0992 3.896 0.201
65.1197 3.698 0.196
65.1402 3.604 0.194
65.1606 3.094 0.180
65.1811 3.667 0.195
65.2016 3.250 0.184
65.2220 3.865 0.201
65.2425 3.802 0.199
65.2630 3.427 0.189
65.2834 3.604 0.194
65.3039 3.823 0.200
65.3243 3.885 0.201
65.3448 3.625 0.194
65.3653 3.625 0.194
65.3857 3.552 0.192
65.4062 3.771 0.198
65.4267 3.688 0.196
65.4471 4.083 0.206
65.4676 3.823 0.200
65.4880 4.208 0.209
65.5085 4.125 0.207
65.5290 5.000 0.228
65.5494 4.823 0.224
65.5699 5.260 0.234
65.5904 5.208 0.233
65.6108 5.469 0.239
65.6313 4.531 0.217
65.6517 4.281 0.211
65.6722 4.083 0.206
65.6927 3.885 0.201
65.7131 4.458 0.216
65.7336 4.177 0.209
65.7541 4.448 0.215
65.7745 4.063 0.206
65.7950 4.510 0.217
65.8154 4.240 0.210
65.8359 3.760 0.198
65.8564 3.510 0.191
65.8768 3.521 0.192
65.8973 3.531 0.192
65.9178 3.594 0.193
65.9382 3.781 0.198
65.9587 3.448 0.190
65.9791 3.833 0.200
65.9996 3.625 0.194
66.0201 3.552 0.192
66.0405 3.615 0.194
66.0610 3.948 0.203
66.0815 3.708 0.197
66.1019 3.583 0.193
66.1224 3.542 0.192
66.1429 3.802 0.199
66.1633 3.521 0.192
66.1838 3.448 0.190
66.2042 3.750 0.198
66.2247 3.156 0.181
66.2452 3.677 0.196
66.2656 3.573 0.193
66.2861 3.896 0.201
66.3066 3.500 0.191
66.3270 3.813 0.199
66.3475 3.510 0.191
66.3679 3.583 0.193
66.3884 3.500 0.191
66.4089 3.458 0.190
66.4293 3.344 0.187
66.4498 3.427 0.189
66.4703 3.365 0.187
66.4907 3.438 0.189
66.5112 3.490 0.191
66.5316 3.042 0.178
66.5521 3.563 0.193
66.5726 3.271 0.185
66.5930 3.760 0.198
66.6135 3.802 0.199
66.6340 3.240 0.184
66.6544 3.729 0.197
66.6749 3.708 0.197
66.6953 3.375 0.188
66.7158 3.500 0.191
66.7363 3.740 0.197
66.7567 3.438 0.189
66.7772 3.990 0.204
66.7977 3.375 0.188
66.8181 3.833 0.200
66.8386 3.760 0.198
66.8590 3.760 0.198
66.8795 3.469 0.190
66.9000 3.865 0.201
66.9204 3.917 0.202
66.9409 4.135 0.208
66.9614 4.292 0.211
66.9818 4.417 0.214
67.0023 4.729 0.222
67.0228 4.750 0.222
67.0432 5.750 0.245
67.0637 6.010 0.250
67.0841 7.771 0.285
67.1046 8.083 0.290
67.1251 8.802 0.303
67.1455 8.365 0.295
67.1660 8.906 0.305
67.1865 7.563 0.281
67.2069 7.500 0.280
67.2274 6.635 0.263
67.2478 6.885 0.268
67.2683 6.125 0.253
67.2888 6.531 0.261
67.3092 7.240 0.275
67.3297 7.198 0.274
67.3502 6.729 0.265
67.3706 5.979 0.250
67.3911 5.792 0.246
67.4115 5.594 0.241
67.4320 5.385 0.237
67.4525 4.813 0.224
67.4729 4.708 0.221
67.4934 4.490 0.216
67.5139 4.479 0.216
67.5343 4.188 0.209
67.5548 4.219 0.210
67.5752 4.302 0.212
67.5957 4.313 0.212
67.6162 3.792 0.199
67.6366 4.063 0.206
67.6571 4.115 0.207
67.6776 4.458 0.216
67.6980 4.531 0.217
67.7185 3.792 0.199
67.7389 4.427 0.215
67.7594 4.344 0.213
67.7799 4.740 0.222
67.8003 4.385 0.214
67.8208 3.979 0.204
67.8413 4.115 0.207
67.8617 4.188 0.209
67.8822 3.948 0.203
67.9027 3.781 0.198
67.9231 3.948 0.203
67.9436 4.344 0.213
67.9640 4.042 0.205
67.9845 4.167 0.208
68.0050 4.510 0.217
68.0254 4.531 0.217
68.0459 4.615 0.219
68.0664 4.490 0.216
68.0868 4.385 0.214
68.1073 4.563 0.218
68.1277 4.479 0.216
68.1482 4.229 0.210
68.1687 4.177 0.209
68.1891 4.250 0.210
68.2096 4.385 0.214
68.2301 4.583 0.219
68.2505 5.031 0.229
68.2710 4.458 0.216
68.2914 4.781 0.223
68.3119 5.229 0.233
68.3324 5.177 0.232
68.3528 5.396 0.237
68.3733 4.813 0.224
68.3938 4.281 0.211
68.4142 4.219 0.210
68.4347 4.104 0.207
68.4551 4.135 0.208
68.4756 3.979 0.204
68.4961 4.031 0.205
68.5165 4.417 0.214
68.5370 4.313 0.212
68.5575 3.948 0.203
68.5779 4.177 0.209
68.5984 3.688 0.196
68.6189 4.000 0.204
68.6393 3.854 0.200
68.6598 3.552 0.192
68.6802 3.625 0.194
68.7007 3.365 0.187
68.7212 3.521 0.192
68.7416 3.708 0.197
68.7621 3.438 0.189
68.7826 3.688 0.196
68.8030 3.615 0.194
68.8235 3.990 0.204
68.8439 3.917 0.202
68.8644 4.302 0.212
68.8849 4.448 0.215
68.9053 4.438 0.215
68.9258 4.271 0.211
68.9463 4.646 0.220
68.9667 5.271 0.234
68.9872 4.938 0.227
69.0076 4.615 0.219
69.0281 4.167 0.208
69.0486 3.927 0.202
69.0690 3.781 0.198
69.0895 4.531 0.217
69.1100 4.250 0.210
69.1304 4.229 0.210
69.1509 3.917 0.202
69.1713 4.458 0.216
69.1918 4.458 0.216
69.2123 4.063 0.206
69.2327 4.313 0.212
69.2532 4.083 0.206
69.2737 3.948 0.203
69.2941 4.073 0.206
69.3146 3.865 0.201
69.3350 3.167 0.182
69.3555 3.448 0.190
69.3760 3.281 0.185
69.3964 3.583 0.193
69.4169 3.625 0.194
69.4374 3.594 0.193
69.4578 3.490 0.191
69.4783 3.542 0.192
69.4988 3.417 0.189
69.5192 3.531 0.192
69.5397 3.188 0.182
69.5601 3.271 0.185
69.5806 3.229 0.183
69.6011 2.781 0.170
69.6215 3.417 0.189
69.6420 3.354 0.187
69.6625 3.115 0.180
69.6829 3.198 0.183
69.7034 2.948 0.175
69.7238 3.104 0.180
69.7443 3.156 0.181
69.7648 3.021 0.177
69.7852 3.292 0.185
69.8057 3.010 0.177
69.8262 2.948 0.175
69.8466 3.271 0.185
69.8671 2.760 0.170
69.8875 2.927 0.175
69.9080 2.896 0.174
69.9285 2.979 0.176
69.9489 2.781 0.170
69.9694 2.885 0.173
69.9899 2.969 0.176
70.0103 2.948 0.175
70.0308 3.250 0.184
70.0512 3.125 0.180
70.0717 2.917 0.174
70.0922 2.917 0.174
70.1126 3.490 0.191
70.1331 3.042 0.178
70.1536 3.042 0.178
70.1740 2.719 0.168
70.1945 3.198 0.183
70.2149 3.073 0.179
70.2354 2.865 0.173
70.2559 2.969 0.176
70.2763 3.083 0.179
70.2968 2.958 0.176
70.3173 2.771 0.170
70.3377 2.906 0.174
70.3582 3.260 0.184
70.3787 2.948 0.175
70.3991 3.479 0.190
70.4196 2.875 0.173
70.4400 3.052 0.178
70.4605 3.063 0.179
70.4810 2.979 0.176
70.5014 3.021 0.177
70.5219 3.052 0.178
70.5424 2.938 0.175
70.5628 2.958 0.176
70.5833 3.063 0.179
70.6037 2.969 0.176
70.6242 2.854 0.172
70.6447 2.990 0.176
70.6651 3.031 0.178
70.6856 3.552 0.192
70.7061 2.927 0.175
70.7265 3.719 0.197
70.7470 3.240 0.184
70.7674 2.906 0.174
70.7879 3.010 0.177
70.8084 3.438 0.189
70.8288 3.188 0.182
70.8493 2.990 0.176
70.8698 3.167 0.182
70.8902 3.188 0.182
70.9107 3.010 0.177
70.9311 3.302 0.185
70.9516 2.969 0.176
70.9721 3.094 0.180
70.9925 2.990 0.176
71.0130 3.260 0.184
71.0335 3.240 0.184
71.0539 3.417 0.189
71.0744 3.083 0.179
71.0948 3.490 0.191
71.1153 3.198 0.183
71.1358 3.010 0.177
71.1562 3.021 0.177
71.1767 3.115 0.180
71.1972 3.104 0.180
71.2176 2.854 0.172
71.2381 2.885 0.173
71.2586 2.896 0.174
71.2790 3.063 0.179
71.2995 2.927 0.175
71.3199 3.375 0.188
71.3404 3.104 0.180
71.3609 2.792 0.171
71.3813 3.323 0.186
71.4018 2.865 0.173
71.4223 2.906 0.174
71.4427 2.625 0.165
71.4632 2.979 0.176
71.4836 2.635 0.166
71.5041 2.854 0.172
71.5246 2.781 0.170
71.5450 2.688 0.167
71.5655 2.719 0.168
71.5860 2.771 0.170
71.6064 2.771 0.170
71.6269 2.698 0.168
71.6473 2.573 0.164
71.6678 2.844 0.172
71.6883 2.583 0.164
71.7087 2.865 0.173
71.7292 2.438 0.159
71.7497 2.542 0.163
71.7701 2.833 0.172
71.7906 2.875 0.173
71.8110 2.792 0.171
71.8315 2.365 0.157
71.8520 2.646 0.166
71.8724 2.646 0.166
71.8929 2.563 0.163
71.9134 2.802 0.171
71.9338 2.781 0.170
71.9543 2.813 0.171
71.9747 2.646 0.166
71.9952 2.813 0.171
72.0157 2.865 0.173
72.0361 2.760 0.170
72.0566 2.792 0.171
72.0771 2.458 0.160
72.0975 2.927 0.175
72.1180 2.771 0.170
72.1385 2.885 0.173
72.1589 2.906 0.174
72.1794 2.615 0.165
72.1998 2.771 0.170
72.2203 3.000 0.177
72.2408 2.792 0.171
72.2612 2.823 0.171
72.2817 2.646 0.166
72.3022 2.698 0.168
72.3226 2.750 0.169
72.3431 2.802 0.171
72.3635 2.771 0.170
72.3840 2.875 0.173
72.4045 2.542 0.163
72.4249 3.083 0.179
72.4454 2.667 0.167
72.4659 2.583 0.164
72.4863 2.708 0.168
72.5068 2.896 0.174
72.5272 2.385 0.158
72.5477 2.677 0.167
72.5682 2.510 0.162
72.5886 2.625 0.165
72.6091 2.469 0.160
72.6296 2.573 0.164
72.6500 2.583 0.164
72.6705 2.354 0.157
72.6909 2.583 0.164
72.7114 2.958 0.176
72.7319 2.813 0.171
72.7523 3.063 0.179
72.7728 3.417 0.189
72.7933 3.073 0.179
72.8137 3.156 0.181
72.8342 3.177 0.182
72.8547 2.635 0.166
72.8751 3.073 0.179
72.8956 2.677 0.167
72.9160 3.052 0.178
72.9365 2.792 0.171
72.9570 2.417 0.159
72.9774 2.698 0.168
72.9979 2.927 0.175
73.0184 2.406 0.158
73.0388 2.958 0.176
73.0593 2.729 0.169
73.0797 2.417 0.159
73.1002 2.438 0.159
73.1207 2.646 0.166
73.1411 2.885 0.173
73.1616 2.646 0.166
73.1821 2.500 0.161
73.2025 2.427 0.159
73.2230 2.375 0.157
73.2434 2.323 0.156
73.2639 2.417 0.159
73.2844 2.083 0.147
73.3048 2.635 0.166
73.3253 2.792 0.171
73.3458 2.417 0.159
73.3662 2.500 0.161
73.3867 2.292 0.155
73.4071 2.229 0.152
73.4276 2.667 0.167
73.4481 2.667 0.167
73.4685 2.552 0.163
73.4890 2.458 0.160
73.5095 2.302 0.155
73.5299 2.521 0.162
73.5504 2.427 0.159
73.5708 2.677 0.167
73.5913 2.521 0.162
73.6118 2.479 0.161
73.6322 2.521 0.162
73.6527 2.083 0.147
73.6732 2.521 0.162
73.6936 1.969 0.143
73.7141 2.635 0.166
73.7346 2.406 0.158
73.7550 2.469 0.160
73.7755 2.438 0.159
73.7959 2.583 0.164
73.8164 2.552 0.163
73.8369 2.260 0.153
73.8573 2.375 0.157
73.8778 2.823 0.171
73.8983 2.469 0.160
73.9187 2.542 0.163
73.9392 2.552 0.163
73.9596 2.729 0.169
73.9801 2.531 0.162
74.0006 2.646 0.166
74.0210 2.531 0.162
74.0415 2.854 0.172
74.0620 2.885 0.173
74.0824 2.656 0.166
74.1029 2.917 0.174
74.1233 2.635 0.166
74.1438 2.438 0.159
74.1643 2.615 0.165
74.1847 2.719 0.168
74.2052 2.448 0.160
74.2257 2.583 0.164
74.2461 2.260 0.153
74.2666 2.344 0.156
74.2870 2.531 0.162
74.3075 2.604 0.165
74.3280 2.583 0.164
74.3484 2.188 0.151
74.3689 2.510 0.162
74.3894 2.188 0.151
74.4098 2.375 0.157
74.4303 2.865 0.173
74.4507 2.292 0.155
74.4712 2.427 0.159
74.4917 2.198 0.151
74.5121 2.396 0.158
74.5326 2.385 0.158
74.5531 2.469 0.160
74.5735 2.156 0.150
74.5940 2.667 0.167
74.6145 2.490 0.161
74.6349 2.646 0.166
74.6554 2.156 0.150
74.6758 2.135 0.149
74.6963 2.250 0.153
74.7168 2.354 0.157
74.7372 2.635 0.166
74.7577 2.729 0.169
74.7782 2.563 0.163
74.7986 2.615 0.165
74.8191 2.479 0.161
74.8395 2.646 0.166
74.8600 2.063 0.147
74.8805 2.427 0.159
74.9009 2.188 0.151
74.9214 2.094 0.148
74.9419 2.208 0.152
74.9623 2.354 0.157
74.9828 2.354 0.157
75.0032 2.458 0.160
75.0237 2.500 0.161
75.0442 2.469 0.160
75.0646 2.438 0.159
75.0851 2.573 0.164
75.1056 2.354 0.157
75.1260 2.219 0.152
75.1465 2.406 0.158
75.1669 2.729 0.169
75.1874 2.302 0.155
75.2079 2.469 0.160
75.2283 2.396 0.158
75.2488 2.510 0.162
75.2693 2.635 0.166
75.2897 2.635 0.166
75.3102 2.510 0.162
75.3306 2.583 0.164
75.3511 2.469 0.160
75.3716 2.750 0.169
75.3920 2.219 0.152
75.4125 2.375 0.157
75.4330 2.604 0.165
75.4534 2.500 0.161
75.4739 2.490 0.161
75.4944 2.656 0.166
75.5148 2.958 0.176
75.5353 2.656 0.166
75.5557 2.563 0.163
75.5762 2.958 0.176
75.5967 3.042 0.178
75.6171 3.031 0.178
75.6376 3.365 0.187
75.6581 3.406 0.188
75.6785 3.667 0.195
75.6990 3.542 0.192
75.7194 3.760 0.198
75.7399 4.271 0.211
75.7604 4.646 0.220
75.7808 4.333 0.212
75.8013 4.552 0.218
75.8218 4.583 0.219
75.8422 4.323 0.212
75.8627 4.385 0.214
75.8831 3.948 0.203
75.9036 4.083 0.206
75.9241 3.583 0.193
75.9445 3.781 0.198
75.9650 3.906 0.202
75.9855 3.740 0.197
76.0059 3.885 0.201
76.0264 3.792 0.199
76.0468 3.385 0.188
76.0673 3.385 0.188
76.0878 3.396 0.188
76.1082 3.250 0.184
76.1287 3.271 0.185
76.1492 2.677 0.167
76.1696 3.125 0.180
76.1901 3.000 0.177
76.2105 2.885 0.173
76.2310 2.854 0.172
76.2515 2.969 0.176
76.2719 2.656 0.166
76.2924 2.729 0.169
76.3129 2.667 0.167
76.3333 3.031 0.178
76.3538 2.542 0.163
76.3743 2.802 0.171
76.3947 2.760 0.170
76.4152 2.740 0.169
76.4356 2.677 0.167
76.4561 2.698 0.168
76.4766 2.427 0.159
76.4970 2.510 0.162
76.5175 2.250 0.153
76.5380 2.438 0.159
76.5584 2.604 0.165
76.5789 2.479 0.161
76.5993 2.500 0.161
76.6198 2.323 0.156
76.6403 2.542 0.163
76.6607 2.583 0.164
76.6812 2.469 0.160
76.7017 2.594 0.164
76.7221 2.573 0.164
76.7426 2.646 0.166
76.7630 2.510 0.162
76.7835 2.542 0.163
76.8040 2.583 0.164
76.8244 2.719 0.168
76.8449 2.490 0.161
76.8654 2.823 0.171
76.8858 2.563 0.163
76.9063 2.406 0.158
76.9267 2.760 0.170
76.9472 2.313 0.155
76.9677 2.448 0.160
76.9881 2.385 0.158
77.0086 2.208 0.152
77.0291 2.490 0.161
77.0495 2.458 0.160
77.0700 2.458 0.160
77.0905 2.396 0.158
77.1109 2.760 0.170
77.1314 2.688 0.167
77.1518 2.427 0.159
77.1723 2.438 0.159
77.1928 2.531 0.162
77.2132 2.281 0.154
77.2337 2.260 0.153
77.2542 2.646 0.166
77.2746 2.563 0.163
77.2951 2.615 0.165
77.3155 2.969 0.176
77.3360 2.854 0.172
77.3565 2.750 0.169
77.3769 2.521 0.162
77.3974 2.969 0.176
77.4179 2.823 0.171
77.4383 2.917 0.174
77.4588 3.135 0.181
77.4792 2.781 0.170
77.4997 2.938 0.175
77.5202 3.208 0.183
77.5406 3.208 0.183
77.5611 2.906 0.174
77.5816 3.021 0.177
77.6020 3.313 0.186
77.6225 3.000 0.177
77.6429 3.052 0.178
77.6634 3.208 0.183
77.6839 2.833 0.172
77.7043 3.073 0.179
77.7248 3.021 0.177
77.7453 2.885 0.173
77.7657 3.188 0.182
77.7862 2.781 0.170
77.8066 3.052 0.178
77.8271 3.167 0.182
77.8476 2.823 0.171
77.8680 2.792 0.171
77.8885 3.333 0.186
77.9090 2.792 0.171
77.9294 2.896 0.174
77.9499 2.906 0.174
77.9704 2.740 0.169
77.9908 2.844 0.172
78.0113 3.135 0.181
78.0317 3.021 0.177
78.0522 2.885 0.173
78.0727 2.958 0.176
78.0931 3.010 0.177
78.1136 3.104 0.180
78.1341 2.750 0.169
78.1545 2.698 0.168
78.1750 3.177 0.182
78.1954 2.885 0.173
78.2159 2.563 0.163
78.2364 2.813 0.171
78.2568 2.781 0.170
78.2773 2.740 0.169
78.2978 2.896 0.174
78.3182 3.083 0.179
78.3387 2.854 0.172
78.3591 3.000 0.177
78.3796 3.188 0.182
78.4001 2.875 0.173
78.4205 3.042 0.178
78.4410 2.760 0.170
78.4615 2.917 0.174
78.4819 3.063 0.179
78.5024 3.031 0.178
78.5228 2.833 0.172
78.5433 3.125 0.180
78.5638 3.344 0.187
78.5842 2.573 0.164
78.6047 2.646 0.166
78.6252 2.938 0.175
78.6456 2.583 0.164
78.6661 2.479 0.161
78.6865 2.948 0.175
78.7070 2.625 0.165
78.7275 2.521 0.162
78.7479 2.490 0.161
78.7684 3.010 0.177
78.7889 2.813 0.171
78.8093 2.948 0.175
78.8298 3.000 0.177
78.8503 2.844 0.172
78.8707 2.750 0.169
78.8912 3.021 0.177
78.9116 3.021 0.177
78.9321 2.750 0.169
78.9526 2.698 0.168
78.9730 2.844 0.172
78.9935 2.854 0.172
79.0140 2.625 0.165
79.0344 2.969 0.176
79.0549 3.000 0.177
79.0753 2.906 0.174
79.0958 2.677 0.167
79.1163 3.156 0.181
79.1367 2.927 0.175
79.1572 2.427 0.159
79.1777 2.844 0.172
79.1981 2.854 0.172
79.2186 2.760 0.170
79.2390 3.198 0.183
79.2595 2.885 0.173
79.2800 2.854 0.172
79.3004 3.156 0.181
79.3209 2.698 0.168
79.3414 2.844 0.172
79.3618 3.156 0.181
79.3823 2.719 0.168
79.4027 2.656 0.166
79.4232 2.750 0.169
79.4437 2.563 0.163
79.4641 2.802 0.171
79.4846 2.771 0.170
79.5051 2.813 0.171
79.5255 3.135 0.181
79.5460 2.885 0.173
79.5664 3.208 0.183
79.5869 2.750 0.169
79.6074 2.927 0.175
79.6278 2.667 0.167
79.6483 2.635 0.166
79.6688 2.542 0.163
79.6892 2.927 0.175
79.7097 2.844 0.172
79.7302 2.979 0.176
79.7506 2.771 0.170
79.7711 2.844 0.172
79.7915 2.708 0.168
79.8120 2.573 0.164
79.8325 3.063 0.179
79.8529 2.625 0.165
79.8734 2.781 0.170
79.8939 2.521 0.162
79.9143 2.813 0.171
79.9348 2.833 0.172
79.9552 2.802 0.171
79.9757 2.458 0.160
79.9962 2.656 0.166
