'Id: "" Comment: "" Operator: "Lab Manager" Anode: "Cu" Scantype: "Locked Coupled" TimePerStep: "96" X: "0" Y: "0" Z: "0" 
5.0000 22.792 0.487
5.0205 21.510 0.473
5.0409 21.594 0.474
5.0614 21.802 0.477
5.0819 21.323 0.471
5.1023 21.792 0.476
5.1228 21.833 0.477
5.1432 21.833 0.477
5.1637 21.646 0.475
5.1842 21.448 0.473
5.2046 21.292 0.471
5.2251 21.854 0.477
5.2456 21.490 0.473
5.2660 21.948 0.478
5.2865 21.323 0.471
5.3069 21.198 0.470
5.3274 20.938 0.467
5.3479 21.010 0.468
5.3683 22.042 0.479
5.3888 20.906 0.467
5.4093 20.885 0.466
5.4297 20.604 0.463
5.4502 20.542 0.463
5.4706 19.635 0.452
5.4911 20.677 0.464
5.5116 20.583 0.463
5.5320 20.802 0.465
5.5525 19.854 0.455
5.5730 20.469 0.462
5.5934 20.385 0.461
5.6139 20.260 0.459
5.6343 20.719 0.465
5.6548 20.698 0.464
5.6753 20.000 0.456
5.6957 19.625 0.452
5.7162 20.313 0.460
5.7367 19.427 0.450
5.7571 21.313 0.471
5.7776 20.625 0.464
5.7980 19.875 0.455
5.8185 19.875 0.455
5.8390 20.521 0.462
5.8594 20.448 0.462
5.8799 20.302 0.460
5.9004 19.760 0.454
5.9208 19.375 0.449
5.9413 19.490 0.451
5.9618 20.031 0.457
5.9822 19.333 0.449
6.0027 19.313 0.449
6.0231 19.917 0.455
6.0436 20.479 0.462
6.0641 19.531 0.451
6.0845 20.198 0.459
6.1050 19.292 0.448
6.1255 19.833 0.455
6.1459 19.938 0.456
6.1664 19.208 0.447
6.1868 19.688 0.453
6.2073 19.094 0.446
6.2278 19.146 0.447
6.2482 19.667 0.453
6.2687 19.271 0.448
6.2892 19.500 0.451
6.3096 19.500 0.451
6.3301 19.677 0.453
6.3505 19.406 0.450
6.3710 18.104 0.434
6.3915 19.438 0.450
6.4119 19.688 0.453
6.4324 19.208 0.447
6.4529 19.417 0.450
6.4733 19.188 0.447
6.4938 18.823 0.443
6.5142 18.719 0.442
6.5347 19.604 0.452
6.5552 18.583 0.440
6.5756 19.583 0.452
6.5961 18.469 0.439
6.6166 20.260 0.459
6.6370 19.344 0.449
6.6575 19.240 0.448
6.6779 19.865 0.455
6.6984 19.552 0.451
6.7189 19.729 0.453
6.7393 19.229 0.448
6.7598 19.458 0.450
6.7803 18.771 0.442
6.8007 19.615 0.452
6.8212 19.875 0.455
6.8417 20.042 0.457
6.8621 19.969 0.456
6.8826 19.896 0.455
6.9030 19.115 0.446
6.9235 19.760 0.454
6.9440 18.708 0.441
6.9644 18.927 0.444
6.9849 19.552 0.451
7.0054 19.302 0.448
7.0258 19.875 0.455
7.0463 18.833 0.443
7.0667 19.365 0.449
7.0872 19.458 0.450
7.1077 19.573 0.452
7.1281 18.906 0.444
7.1486 18.021 0.433
7.1691 18.813 0.443
7.1895 18.625 0.440
7.2100 19.938 0.456
7.2304 19.313 0.449
7.2509 19.490 0.451
7.2714 18.979 0.445
7.2918 19.698 0.453
7.3123 17.927 0.432
7.3328 18.875 0.443
7.3532 19.938 0.456
7.3737 19.521 0.451
7.3941 19.302 0.448
7.4146 19.146 0.447
7.4351 18.969 0.445
7.4555 19.021 0.445
7.4760 20.104 0.458
7.4965 19.635 0.452
7.5169 18.667 0.441
7.5374 18.427 0.438
7.5579 19.698 0.453
7.5783 20.552 0.463
7.5988 19.083 0.446
7.6192 19.969 0.456
7.6397 19.813 0.454
7.6602 19.094 0.446
7.6806 19.573 0.452
7.7011 18.906 0.444
7.7216 19.490 0.451
7.7420 19.500 0.451
7.7625 19.844 0.455
7.7829 19.427 0.450
7.8034 19.219 0.447
7.8239 19.729 0.453
7.8443 19.885 0.455
7.8648 19.115 0.446
7.8853 20.479 0.462
7.9057 18.938 0.444
7.9262 19.375 0.449
7.9466 19.646 0.452
7.9671 19.021 0.445
7.9876 19.281 0.448
8.0080 19.448 0.450
8.0285 19.500 0.451
8.0490 20.042 0.457
8.0694 20.865 0.466
8.0899 19.083 0.446
8.1103 19.531 0.451
8.1308 19.729 0.453
8.1513 19.271 0.448
8.1717 19.594 0.452
8.1922 19.823 0.454
8.2127 20.146 0.458
8.2331 20.458 0.462
8.2536 18.844 0.443
8.2740 20.219 0.459
8.2945 19.365 0.449
8.3150 19.823 0.454
8.3354 19.854 0.455
8.3559 20.385 0.461
8.3764 19.656 0.452
8.3968 20.490 0.462
8.4173 19.917 0.455
8.4378 20.083 0.457
8.4582 19.594 0.452
8.4787 19.125 0.446
8.4991 20.292 0.460
8.5196 20.052 0.457
8.5401 20.094 0.458
8.5605 20.375 0.461
8.5810 19.021 0.445
8.6015 19.771 0.454
8.6219 19.813 0.454
8.6424 20.292 0.460
8.6628 19.781 0.454
8.6833 19.906 0.455
8.7038 20.417 0.461
8.7242 19.323 0.449
8.7447 20.375 0.461
8.7652 20.417 0.461
8.7856 19.698 0.453
8.8061 20.979 0.467
8.8265 21.406 0.472
8.8470 21.698 0.475
8.8675 21.302 0.471
8.8879 21.573 0.474
8.9084 22.531 0.484
8.9289 21.188 0.470
8.9493 21.135 0.469
8.9698 22.083 0.480
8.9902 21.000 0.468
9.0107 22.594 0.485
9.0312 21.948 0.478
9.0516 22.448 0.484
9.0721 22.885 0.488
9.0926 24.583 0.506
9.1130 24.750 0.508
9.1335 26.010 0.521
9.1539 27.406 0.534
9.1744 28.448 0.544
9.1949 31.583 0.574
9.2153 33.781 0.593
9.2358 36.563 0.617
9.2563 38.594 0.634
9.2767 39.708 0.643
9.2972 39.552 0.642
9.3177 38.021 0.629
9.3381 37.865 0.628
9.3586 36.510 0.617
9.3790 37.917 0.628
9.3995 37.104 0.622
9.4200 38.302 0.632
9.4404 37.229 0.623
9.4609 38.979 0.637
9.4814 39.990 0.645
9.5018 41.771 0.660
9.5223 45.969 0.692
9.5427 47.729 0.705
9.5632 50.635 0.726
9.5837 53.344 0.745
9.6041 57.781 0.776
9.6246 61.052 0.797
9.6451 64.979 0.823
9.6655 73.250 0.874
9.6860 82.271 0.926
9.7064 94.031 0.990
9.7269 110.708 1.074
9.7474 140.969 1.212
9.7678 184.719 1.387
9.7883 246.625 1.603
9.8088 350.229 1.910
9.8292 489.760 2.259
9.8497 623.823 2.549
9.8701 588.573 2.476
9.8906 412.760 2.074
9.9111 238.865 1.577
9.9315 147.385 1.239
9.9520 99.813 1.020
9.9725 79.865 0.912
9.9929 67.365 0.838
10.0134 60.073 0.791
10.0338 54.135 0.751
10.0543 50.490 0.725
10.0748 46.448 0.696
10.0952 42.521 0.666
10.1157 39.125 0.638
10.1362 34.719 0.601
10.1566 33.333 0.589
10.1771 31.021 0.568
10.1976 29.375 0.553
10.2180 28.927 0.549
10.2385 28.938 0.549
10.2589 28.156 0.542
10.2794 26.844 0.529
10.2999 24.969 0.510
10.3203 25.250 0.513
10.3408 25.458 0.515
10.3613 24.625 0.506
10.3817 25.417 0.515
10.4022 24.927 0.510
10.4226 24.563 0.506
10.4431 23.646 0.496
10.4636 23.792 0.498
10.4840 23.333 0.493
10.5045 22.146 0.480
10.5250 22.729 0.487
10.5454 22.490 0.484
10.5659 22.448 0.484
10.5863 21.677 0.475
10.6068 21.417 0.472
10.6273 21.958 0.478
10.6477 21.667 0.475
10.6682 20.896 0.467
10.6887 20.927 0.467
10.7091 20.854 0.466
10.7296 20.719 0.465
10.7500 20.427 0.461
10.7705 20.542 0.463
10.7910 19.760 0.454
10.8114 19.063 0.446
10.8319 19.396 0.449
10.8524 19.052 0.445
10.8728 19.271 0.448
10.8933 18.760 0.442
10.9137 19.031 0.445
10.9342 18.583 0.440
10.9547 18.042 0.434
10.9751 17.958 0.433
10.9956 17.625 0.428
11.0161 17.563 0.428
11.0365 17.417 0.426
11.0570 17.740 0.430
11.0775 17.083 0.422
11.0979 16.552 0.415
11.1184 16.781 0.418
11.1388 16.625 0.416
11.1593 16.823 0.419
11.1798 16.052 0.409
11.2002 16.833 0.419
11.2207 17.177 0.423
11.2412 16.375 0.413
11.2616 16.740 0.418
11.2821 16.542 0.415
11.3025 15.292 0.399
11.3230 15.417 0.401
11.3435 15.958 0.408
11.3639 15.792 0.406
11.3844 16.344 0.413
11.4049 15.240 0.398
11.4253 15.583 0.403
11.4458 15.833 0.406
11.4662 14.906 0.394
11.4867 15.542 0.402
11.5072 15.302 0.399
11.5276 15.469 0.401
11.5481 16.167 0.410
11.5686 15.594 0.403
11.5890 15.115 0.397
11.6095 14.625 0.390
11.6299 14.698 0.391
11.6504 14.271 0.386
11.6709 14.667 0.391
11.6913 15.344 0.400
11.7118 15.219 0.398
11.7323 15.031 0.396
11.7527 15.313 0.399
11.7732 14.167 0.384
11.7937 14.406 0.387
11.8141 14.104 0.383
11.8346 14.125 0.384
11.8550 13.969 0.381
11.8755 14.552 0.389
11.8960 14.073 0.383
11.9164 13.271 0.372
11.9369 13.823 0.379
11.9574 13.719 0.378
11.9778 13.708 0.378
11.9983 13.240 0.371
12.0187 13.552 0.376
12.0392 13.208 0.371
12.0597 13.740 0.378
12.0801 13.677 0.377
12.1006 13.333 0.373
12.1211 12.427 0.360
12.1415 13.521 0.375
12.1620 13.396 0.374
12.1824 13.240 0.371
12.2029 12.021 0.354
12.2234 13.458 0.374
12.2438 13.271 0.372
12.2643 12.760 0.365
12.2848 12.729 0.364
12.3052 12.969 0.368
12.3257 13.104 0.369
12.3461 12.698 0.364
12.3666 13.115 0.370
12.3871 12.344 0.359
12.4075 13.010 0.368
12.4280 12.594 0.362
12.4485 12.000 0.354
12.4689 12.281 0.358
12.4894 11.990 0.353
12.5098 12.115 0.355
12.5303 12.135 0.356
12.5508 12.479 0.361
12.5712 12.833 0.366
12.5917 11.865 0.352
12.6122 12.125 0.355
12.6326 12.615 0.362
12.6531 12.042 0.354
12.6736 11.854 0.351
12.6940 11.583 0.347
12.7145 11.281 0.343
12.7349 11.427 0.345
12.7554 12.000 0.354
12.7759 11.635 0.348
12.7963 11.698 0.349
12.8168 10.938 0.338
12.8373 12.281 0.358
12.8577 12.021 0.354
12.8782 11.625 0.348
12.8986 10.906 0.337
12.9191 12.104 0.355
12.9396 11.500 0.346
12.9600 11.583 0.347
12.9805 11.458 0.345
13.0010 10.875 0.337
13.0214 12.010 0.354
13.0419 11.406 0.345
13.0623 11.115 0.340
13.0828 10.958 0.338
13.1033 11.229 0.342
13.1237 11.188 0.341
13.1442 11.521 0.346
13.1647 11.042 0.339
13.1851 10.906 0.337
13.2056 10.969 0.338
13.2260 11.240 0.342
13.2465 10.844 0.336
13.2670 10.906 0.337
13.2874 10.990 0.338
13.3079 10.667 0.333
13.3284 11.573 0.347
13.3488 11.490 0.346
13.3693 11.365 0.344
13.3897 11.333 0.344
13.4102 11.458 0.345
13.4307 10.875 0.337
13.4511 10.646 0.333
13.4716 11.375 0.344
13.4921 10.656 0.333
13.5125 10.323 0.328
13.5330 10.938 0.338
13.5535 10.229 0.326
13.5739 10.688 0.334
13.5944 9.521 0.315
13.6148 11.052 0.339
13.6353 10.823 0.336
13.6558 10.938 0.338
13.6762 10.771 0.335
13.6967 10.323 0.328
13.7172 10.865 0.336
13.7376 9.729 0.318
13.7581 10.677 0.333
13.7785 10.219 0.326
13.7990 9.875 0.321
13.8195 10.000 0.323
13.8399 10.271 0.327
13.8604 10.677 0.333
13.8809 9.656 0.317
13.9013 10.344 0.328
13.9218 9.802 0.320
13.9422 10.396 0.329
13.9627 9.719 0.318
13.9832 9.969 0.322
14.0036 10.229 0.326
14.0241 10.250 0.327
14.0446 10.417 0.329
14.0650 9.760 0.319
14.0855 9.823 0.320
14.1059 9.750 0.319
14.1264 9.896 0.321
14.1469 10.052 0.324
14.1673 9.948 0.322
14.1878 9.635 0.317
14.2083 10.250 0.327
14.2287 9.760 0.319
14.2492 10.406 0.329
14.2696 10.083 0.324
14.2901 10.063 0.324
14.3106 10.010 0.323
14.3310 9.979 0.322
14.3515 10.094 0.324
14.3720 9.844 0.320
14.3924 9.740 0.319
14.4129 9.302 0.311
14.4334 9.823 0.320
14.4538 10.354 0.328
14.4743 10.000 0.323
14.4947 9.604 0.316
14.5152 9.531 0.315
14.5357 9.615 0.316
14.5561 9.781 0.319
14.5766 10.125 0.325
14.5971 9.844 0.320
14.6175 10.146 0.325
14.6380 9.448 0.314
14.6584 10.302 0.328
14.6789 9.760 0.319
14.6994 9.438 0.314
14.7198 9.573 0.316
14.7403 9.677 0.317
14.7608 9.458 0.314
14.7812 9.688 0.318
14.8017 9.479 0.314
14.8221 8.885 0.304
14.8426 9.208 0.310
14.8631 9.583 0.316
14.8835 9.635 0.317
14.9040 9.615 0.316
14.9245 8.958 0.305
14.9449 9.708 0.318
14.9654 9.104 0.308
14.9858 10.417 0.329
15.0063 9.604 0.316
15.0268 9.531 0.315
15.0472 9.667 0.317
15.0677 8.813 0.303
15.0882 9.427 0.313
15.1086 9.365 0.312
15.1291 8.958 0.305
15.1495 9.146 0.309
15.1700 9.333 0.312
15.1905 9.292 0.311
15.2109 8.917 0.305
15.2314 9.135 0.308
15.2519 8.844 0.304
15.2723 9.271 0.311
15.2928 8.885 0.304
15.3133 8.927 0.305
15.3337 9.490 0.314
15.3542 9.083 0.308
15.3746 8.531 0.298
15.3951 9.260 0.311
15.4156 9.365 0.312
15.4360 9.073 0.307
15.4565 8.802 0.303
15.4770 9.042 0.307
15.4974 8.573 0.299
15.5179 9.469 0.314
15.5383 9.219 0.310
15.5588 8.708 0.301
15.5793 9.281 0.311
15.5997 9.188 0.309
15.6202 9.021 0.307
15.6407 8.885 0.304
15.6611 9.208 0.310
15.6816 9.042 0.307
15.7020 9.135 0.308
15.7225 8.615 0.300
15.7430 9.094 0.308
15.7634 8.708 0.301
15.7839 8.635 0.300
15.8044 8.927 0.305
15.8248 9.104 0.308
15.8453 8.854 0.304
15.8657 9.198 0.310
15.8862 8.875 0.304
15.9067 8.615 0.300
15.9271 8.375 0.295
15.9476 8.781 0.302
15.9681 8.740 0.302
15.9885 8.750 0.302
16.0090 9.302 0.311
16.0295 8.802 0.303
16.0499 8.813 0.303
16.0704 9.313 0.311
16.0908 8.646 0.300
16.1113 8.688 0.301
16.1318 8.635 0.300
16.1522 8.656 0.300
16.1727 8.625 0.300
16.1932 8.927 0.305
16.2136 8.177 0.292
16.2341 8.719 0.301
16.2545 9.188 0.309
16.2750 8.750 0.302
16.2955 8.781 0.302
16.3159 8.729 0.302
16.3364 8.833 0.303
16.3569 8.615 0.300
16.3773 8.813 0.303
16.3978 8.729 0.302
16.4182 9.010 0.306
16.4387 8.729 0.302
16.4592 8.583 0.299
16.4796 8.906 0.305
16.5001 9.219 0.310
16.5206 8.490 0.297
16.5410 8.802 0.303
16.5615 8.823 0.303
16.5819 8.813 0.303
16.6024 8.438 0.296
16.6229 8.990 0.306
16.6433 8.344 0.295
16.6638 8.177 0.292
16.6843 8.656 0.300
16.7047 8.375 0.295
16.7252 8.031 0.289
16.7456 9.260 0.311
16.7661 8.594 0.299
16.7866 9.323 0.312
16.8070 8.740 0.302
16.8275 8.698 0.301
16.8480 8.917 0.305
16.8684 8.750 0.302
16.8889 8.385 0.296
16.9094 9.010 0.306
16.9298 8.354 0.295
16.9503 8.969 0.306
16.9707 8.625 0.300
16.9912 9.604 0.316
17.0117 9.125 0.308
17.0321 9.125 0.308
17.0526 8.635 0.300
17.0731 8.688 0.301
17.0935 9.021 0.307
17.1140 8.875 0.304
17.1344 8.708 0.301
17.1549 9.167 0.309
17.1754 8.813 0.303
17.1958 9.542 0.315
17.2163 9.125 0.308
17.2368 9.135 0.308
17.2572 8.719 0.301
17.2777 9.302 0.311
17.2981 9.208 0.310
17.3186 8.969 0.306
17.3391 9.521 0.315
17.3595 9.677 0.317
17.3800 9.927 0.322
17.4005 9.948 0.322
17.4209 9.885 0.321
17.4414 9.521 0.315
17.4618 10.021 0.323
17.4823 10.521 0.331
17.5028 10.219 0.326
17.5232 10.083 0.324
17.5437 10.281 0.327
17.5642 10.365 0.329
17.5846 10.354 0.328
17.6051 10.208 0.326
17.6255 9.938 0.322
17.6460 9.542 0.315
17.6665 10.406 0.329
17.6869 10.979 0.338
17.7074 11.042 0.339
17.7279 11.688 0.349
17.7483 11.948 0.353
17.7688 12.052 0.354
17.7893 12.333 0.358
17.8097 12.469 0.360
17.8302 13.688 0.378
17.8506 13.156 0.370
17.8711 13.635 0.377
17.8916 14.292 0.386
17.9120 13.698 0.378
17.9325 14.563 0.389
17.9530 15.177 0.398
17.9734 16.604 0.416
17.9939 17.854 0.431
18.0143 19.646 0.452
18.0348 20.802 0.465
18.0553 20.750 0.465
18.0757 20.469 0.462
18.0962 20.656 0.464
18.1167 20.365 0.461
18.1371 20.167 0.458
18.1576 20.521 0.462
18.1780 21.927 0.478
18.1985 22.500 0.484
18.2190 24.208 0.502
18.2394 23.792 0.498
18.2599 26.042 0.521
18.2804 26.219 0.523
18.3008 26.510 0.525
18.3213 27.188 0.532
18.3417 26.938 0.530
18.3622 26.552 0.526
18.3827 26.635 0.527
18.4031 27.656 0.537
18.4236 26.781 0.528
18.4441 27.604 0.536
18.4645 27.365 0.534
18.4850 26.948 0.530
18.5054 27.281 0.533
18.5259 27.115 0.531
18.5464 27.125 0.532
18.5668 28.385 0.544
18.5873 28.750 0.547
18.6078 27.135 0.532
18.6282 27.260 0.533
18.6487 26.813 0.528
18.6692 25.115 0.511
18.6896 25.823 0.519
18.7101 24.052 0.501
18.7305 24.135 0.501
18.7510 24.073 0.501
18.7715 24.708 0.507
18.7919 22.990 0.489
18.8124 21.271 0.471
18.8329 20.823 0.466
18.8533 18.667 0.441
18.8738 19.302 0.448
18.8942 18.177 0.435
18.9147 17.115 0.422
18.9352 17.042 0.421
18.9556 16.604 0.416
18.9761 15.073 0.396
18.9966 16.083 0.409
19.0170 15.417 0.401
19.0375 15.094 0.397
19.0579 14.365 0.387
19.0784 14.615 0.390
19.0989 14.865 0.393
19.1193 14.760 0.392
19.1398 13.604 0.376
19.1603 14.219 0.385
19.1807 13.656 0.377
19.2012 13.750 0.378
19.2216 13.792 0.379
19.2421 13.500 0.375
19.2626 14.094 0.383
19.2830 14.771 0.392
19.3035 14.323 0.386
19.3240 13.813 0.379
19.3444 14.031 0.382
19.3649 14.219 0.385
19.3853 14.594 0.390
19.4058 14.677 0.391
19.4263 15.021 0.396
19.4467 15.208 0.398
19.4672 15.740 0.405
19.4877 16.125 0.410
19.5081 15.854 0.406
19.5286 17.604 0.428
19.5491 18.073 0.434
19.5695 19.094 0.446
19.5900 20.438 0.461
19.6104 21.292 0.471
19.6309 22.615 0.485
19.6514 25.333 0.514
19.6718 26.833 0.529
19.6923 31.542 0.573
19.7128 38.031 0.629
19.7332 51.177 0.730
19.7537 71.448 0.863
19.7741 108.177 1.062
19.7946 150.813 1.253
19.8151 149.104 1.246
19.8355 125.438 1.143
19.8560 104.302 1.042
19.8765 74.531 0.881
19.8969 47.427 0.703
19.9174 36.719 0.618
19.9378 30.583 0.564
19.9583 27.354 0.534
19.9788 24.229 0.502
19.9992 22.948 0.489
20.0197 21.760 0.476
20.0402 20.667 0.464
20.0606 20.052 0.457
20.0811 19.979 0.456
20.1015 18.865 0.443
20.1220 18.698 0.441
20.1425 19.854 0.455
20.1629 19.760 0.454
20.1834 20.542 0.463
20.2039 20.510 0.462
20.2243 21.844 0.477
20.2448 22.771 0.487
20.2653 23.583 0.496
20.2857 22.094 0.480
20.3062 22.156 0.480
20.3266 21.750 0.476
20.3471 21.781 0.476
20.3676 21.729 0.476
20.3880 20.917 0.467
20.4085 21.917 0.478
20.4290 20.667 0.464
20.4494 20.740 0.465
20.4699 20.375 0.461
20.4903 20.656 0.464
20.5108 19.698 0.453
20.5313 18.938 0.444
20.5517 18.750 0.442
20.5722 17.156 0.423
20.5927 16.292 0.412
20.6131 16.281 0.412
20.6336 15.500 0.402
20.6540 15.479 0.402
20.6745 14.292 0.386
20.6950 13.750 0.378
20.7154 13.677 0.377
20.7359 13.875 0.380
20.7564 13.198 0.371
20.7768 12.427 0.360
20.7973 12.292 0.358
20.8177 12.281 0.358
20.8382 12.271 0.358
20.8587 12.115 0.355
20.8791 12.167 0.356
20.8996 11.385 0.344
20.9201 11.646 0.348
20.9405 11.948 0.353
20.9610 11.875 0.352
20.9814 11.625 0.348
21.0019 11.615 0.348
21.0224 11.198 0.342
21.0428 11.083 0.340
21.0633 11.177 0.341
21.0838 12.104 0.355
21.1042 10.854 0.336
21.1247 10.927 0.337
21.1452 10.802 0.335
21.1656 10.917 0.337
21.1861 11.010 0.339
21.2065 11.229 0.342
21.2270 11.000 0.339
21.2475 11.146 0.341
21.2679 10.885 0.337
21.2884 11.208 0.342
21.3089 10.250 0.327
21.3293 10.896 0.337
21.3498 10.354 0.328
21.3702 10.469 0.330
21.3907 10.698 0.334
21.4112 11.031 0.339
21.4316 10.698 0.334
21.4521 10.385 0.329
21.4726 10.344 0.328
21.4930 10.281 0.327
21.5135 10.927 0.337
21.5339 10.688 0.334
21.5544 11.188 0.341
21.5749 10.438 0.330
21.5953 10.625 0.333
21.6158 11.906 0.352
21.6363 10.906 0.337
21.6567 10.979 0.338
21.6772 11.281 0.343
21.6976 11.427 0.345
21.7181 11.094 0.340
21.7386 10.875 0.337
21.7590 10.823 0.336
21.7795 10.531 0.331
21.8000 10.625 0.333
21.8204 11.042 0.339
21.8409 10.958 0.338
21.8613 11.583 0.347
21.8818 11.938 0.353
21.9023 12.344 0.359
21.9227 11.615 0.348
21.9432 12.552 0.362
21.9637 12.958 0.367
21.9841 14.490 0.389
22.0046 14.396 0.387
22.0251 15.396 0.400
22.0455 17.063 0.422
22.0660 20.604 0.463
22.0864 25.667 0.517
22.1069 32.375 0.581
22.1274 42.792 0.668
22.1478 52.760 0.741
22.1683 52.281 0.738
22.1888 45.760 0.690
22.2092 41.458 0.657
22.2297 31.865 0.576
22.2501 24.979 0.510
22.2706 21.167 0.470
22.2911 18.979 0.445
22.3115 16.854 0.419
22.3320 16.771 0.418
22.3525 15.073 0.396
22.3729 14.719 0.392
22.3934 13.729 0.378
22.4138 13.583 0.376
22.4343 12.365 0.359
22.4548 12.146 0.356
22.4752 11.479 0.346
22.4957 10.771 0.335
22.5162 11.708 0.349
22.5366 11.104 0.340
22.5571 11.469 0.346
22.5775 10.458 0.330
22.5980 9.896 0.321
22.6185 10.792 0.335
22.6389 10.365 0.329
22.6594 10.417 0.329
22.6799 9.927 0.322
22.7003 10.479 0.330
22.7208 9.802 0.320
22.7412 9.875 0.321
22.7617 10.000 0.323
22.7822 9.750 0.319
22.8026 9.094 0.308
22.8231 9.479 0.314
22.8436 9.938 0.322
22.8640 9.719 0.318
22.8845 9.260 0.311
22.9050 9.292 0.311
22.9254 9.729 0.318
22.9459 9.760 0.319
22.9663 9.146 0.309
22.9868 9.146 0.309
23.0073 9.292 0.311
23.0277 9.177 0.309
23.0482 9.115 0.308
23.0687 9.115 0.308
23.0891 9.094 0.308
23.1096 8.677 0.301
23.1300 8.729 0.302
23.1505 9.208 0.310
23.1710 8.844 0.304
23.1914 8.990 0.306
23.2119 9.125 0.308
23.2324 8.875 0.304
23.2528 8.604 0.299
23.2733 9.031 0.307
23.2937 8.938 0.305
23.3142 9.083 0.308
23.3347 9.229 0.310
23.3551 8.708 0.301
23.3756 9.490 0.314
23.3961 8.677 0.301
23.4165 8.573 0.299
23.4370 8.396 0.296
23.4574 9.469 0.314
23.4779 9.406 0.313
23.4984 8.813 0.303
23.5188 9.927 0.322
23.5393 9.417 0.313
23.5598 8.917 0.305
23.5802 10.448 0.330
23.6007 10.375 0.329
23.6211 10.844 0.336
23.6416 10.375 0.329
23.6621 9.979 0.322
23.6825 10.240 0.327
23.7030 10.104 0.324
23.7235 9.688 0.318
23.7439 9.396 0.313
23.7644 8.667 0.300
23.7849 8.448 0.297
23.8053 9.010 0.306
23.8258 8.271 0.294
23.8462 8.344 0.295
23.8667 8.052 0.290
23.8872 8.219 0.293
23.9076 7.583 0.281
23.9281 8.438 0.296
23.9486 7.667 0.283
23.9690 7.604 0.281
23.9895 7.563 0.281
24.0099 7.500 0.280
24.0304 8.260 0.293
24.0509 8.021 0.289
24.0713 8.010 0.289
24.0918 8.313 0.294
24.1123 8.219 0.293
24.1327 8.240 0.293
24.1532 8.844 0.304
24.1736 8.302 0.294
24.1941 8.271 0.294
24.2146 8.365 0.295
24.2350 9.708 0.318
24.2555 10.438 0.330
24.2760 10.938 0.338
24.2964 12.354 0.359
24.3169 11.302 0.343
24.3373 10.719 0.334
24.3578 10.990 0.338
24.3783 10.240 0.327
24.3987 8.885 0.304
24.4192 8.490 0.297
24.4397 7.719 0.284
24.4601 8.135 0.291
24.4806 8.052 0.290
24.5011 7.802 0.285
24.5215 7.406 0.278
24.5420 7.740 0.284
24.5624 7.771 0.285
24.5829 7.427 0.278
24.6034 7.750 0.284
24.6238 7.458 0.279
24.6443 7.521 0.280
24.6648 7.490 0.279
24.6852 7.240 0.275
24.7057 6.938 0.269
24.7261 7.708 0.283
24.7466 6.948 0.269
24.7671 7.792 0.285
24.7875 7.573 0.281
24.8080 7.469 0.279
24.8285 7.188 0.274
24.8489 7.000 0.270
24.8694 7.313 0.276
24.8898 7.063 0.271
24.9103 7.375 0.277
24.9308 6.927 0.269
24.9512 7.542 0.280
24.9717 6.990 0.270
24.9922 7.313 0.276
25.0126 7.271 0.275
25.0331 6.969 0.269
25.0535 7.198 0.274
25.0740 6.594 0.262
25.0945 7.135 0.273
25.1149 7.177 0.273
25.1354 6.906 0.268
25.1559 7.042 0.271
25.1763 6.719 0.265
25.1968 7.198 0.274
25.2172 6.875 0.268
25.2377 7.073 0.271
25.2582 7.490 0.279
25.2786 6.729 0.265
25.2991 6.948 0.269
25.3196 6.698 0.264
25.3400 6.906 0.268
25.3605 7.146 0.273
25.3810 6.813 0.266
25.4014 6.760 0.265
25.4219 7.000 0.270
25.4423 6.708 0.264
25.4628 7.208 0.274
25.4833 7.302 0.276
25.5037 6.792 0.266
25.5242 7.573 0.281
25.5447 7.271 0.275
25.5651 6.813 0.266
25.5856 6.740 0.265
25.6060 6.563 0.261
25.6265 6.896 0.268
25.6470 6.906 0.268
25.6674 7.094 0.272
25.6879 6.771 0.266
25.7084 7.313 0.276
25.7288 7.469 0.279
25.7493 6.917 0.268
25.7697 7.188 0.274
25.7902 7.198 0.274
25.8107 7.313 0.276
25.8311 6.604 0.262
25.8516 7.042 0.271
25.8721 7.521 0.280
25.8925 6.948 0.269
25.9130 6.979 0.270
25.9334 6.958 0.269
25.9539 6.948 0.269
25.9744 6.958 0.269
25.9948 6.854 0.267
26.0153 7.406 0.278
26.0358 7.500 0.280
26.0562 7.406 0.278
26.0767 7.490 0.279
26.0971 7.229 0.274
26.1176 6.906 0.268
26.1381 7.000 0.270
26.1585 7.292 0.276
26.1790 6.990 0.270
26.1995 7.677 0.283
26.2199 7.073 0.271
26.2404 6.740 0.265
26.2609 7.094 0.272
26.2813 7.125 0.272
26.3018 7.188 0.274
26.3222 7.031 0.271
26.3427 6.500 0.260
26.3632 7.219 0.274
26.3836 8.094 0.290
26.4041 7.042 0.271
26.4246 7.354 0.277
26.4450 7.198 0.274
26.4655 7.219 0.274
26.4859 7.292 0.276
26.5064 7.260 0.275
26.5269 6.792 0.266
26.5473 7.490 0.279
26.5678 7.823 0.285
26.5883 7.438 0.278
26.6087 7.615 0.282
26.6292 7.406 0.278
26.6496 7.375 0.277
26.6701 7.750 0.284
26.6906 7.563 0.281
26.7110 7.875 0.286
26.7315 6.760 0.265
26.7520 7.427 0.278
26.7724 7.344 0.277
26.7929 7.750 0.284
26.8133 7.073 0.271
26.8338 7.344 0.277
26.8543 7.313 0.276
26.8747 7.802 0.285
26.8952 7.531 0.280
26.9157 7.542 0.280
26.9361 7.542 0.280
26.9566 7.688 0.283
26.9770 7.292 0.276
26.9975 6.906 0.268
27.0180 7.292 0.276
27.0384 7.531 0.280
27.0589 6.635 0.263
27.0794 7.469 0.279
27.0998 7.406 0.278
27.1203 6.896 0.268
27.1408 7.052 0.271
27.1612 7.229 0.274
27.1817 6.865 0.267
27.2021 7.115 0.272
27.2226 6.802 0.266
27.2431 7.010 0.270
27.2635 6.667 0.264
27.2840 7.010 0.270
27.3045 7.271 0.275
27.3249 7.229 0.274
27.3454 6.552 0.261
27.3658 6.813 0.266
27.3863 6.948 0.269
27.4068 6.563 0.261
27.4272 6.583 0.262
27.4477 6.990 0.270
27.4682 7.104 0.272
27.4886 6.875 0.268
27.5091 6.979 0.270
27.5295 7.146 0.273
27.5500 6.896 0.268
27.5705 7.375 0.277
27.5909 7.208 0.274
27.6114 7.063 0.271
27.6319 7.063 0.271
27.6523 7.427 0.278
27.6728 7.625 0.282
27.6932 7.573 0.281
27.7137 7.365 0.277
27.7342 7.250 0.275
27.7546 7.646 0.282
27.7751 7.292 0.276
27.7956 7.615 0.282
27.8160 7.354 0.277
27.8365 7.094 0.272
27.8569 7.510 0.280
27.8774 7.969 0.288
27.8979 7.646 0.282
27.9183 7.448 0.279
27.9388 7.323 0.276
27.9593 7.323 0.276
27.9797 7.260 0.275
28.0002 7.552 0.280
28.0207 7.615 0.282
28.0411 6.875 0.268
28.0616 6.885 0.268
28.0820 6.802 0.266
28.1025 6.865 0.267
28.1230 6.708 0.264
28.1434 6.656 0.263
28.1639 7.000 0.270
28.1844 6.729 0.265
28.2048 6.563 0.261
28.2253 6.854 0.267
28.2457 6.844 0.267
28.2662 7.104 0.272
28.2867 6.979 0.270
28.3071 6.792 0.266
28.3276 7.104 0.272
28.3481 6.094 0.252
28.3685 6.448 0.259
28.3890 5.917 0.248
28.4094 6.406 0.258
28.4299 6.604 0.262
28.4504 6.594 0.262
28.4708 6.979 0.270
28.4913 6.896 0.268
28.5118 6.688 0.264
28.5322 6.813 0.266
28.5527 7.354 0.277
28.5731 6.958 0.269
28.5936 6.729 0.265
28.6141 6.917 0.268
28.6345 6.615 0.262
28.6550 6.688 0.264
28.6755 6.917 0.268
28.6959 6.719 0.265
28.7164 6.469 0.260
28.7368 6.365 0.257
28.7573 6.906 0.268
28.7778 6.604 0.262
28.7982 6.000 0.250
28.8187 6.323 0.257
28.8392 6.500 0.260
28.8596 6.479 0.260
28.8801 6.490 0.260
28.9006 6.083 0.252
28.9210 6.042 0.251
28.9415 6.063 0.251
28.9619 6.271 0.256
28.9824 6.490 0.260
29.0029 6.948 0.269
29.0233 5.792 0.246
29.0438 6.000 0.250
29.0643 6.365 0.257
29.0847 5.802 0.246
29.1052 6.354 0.257
29.1256 5.906 0.248
29.1461 7.125 0.272
29.1666 6.281 0.256
29.1870 6.969 0.269
29.2075 6.698 0.264
29.2280 6.365 0.257
29.2484 5.958 0.249
29.2689 6.781 0.266
29.2893 6.979 0.270
29.3098 6.813 0.266
29.3303 7.365 0.277
29.3507 6.479 0.260
29.3712 6.500 0.260
29.3917 6.427 0.259
29.4121 6.177 0.254
29.4326 6.260 0.255
29.4530 6.354 0.257
29.4735 6.740 0.265
29.4940 6.073 0.252
29.5144 6.010 0.250
29.5349 6.135 0.253
29.5554 6.281 0.256
29.5758 6.302 0.256
29.5963 6.021 0.250
29.6168 6.167 0.253
29.6372 6.771 0.266
29.6577 6.479 0.260
29.6781 6.188 0.254
29.6986 5.969 0.249
29.7191 6.240 0.255
29.7395 6.354 0.257
29.7600 6.156 0.253
29.7805 6.010 0.250
29.8009 6.094 0.252
29.8214 6.313 0.256
29.8418 5.969 0.249
29.8623 6.021 0.250
29.8828 6.188 0.254
29.9032 6.573 0.262
29.9237 6.521 0.261
29.9442 5.948 0.249
29.9646 6.406 0.258
29.9851 6.135 0.253
30.0055 6.240 0.255
30.0260 6.323 0.257
30.0465 6.146 0.253
30.0669 6.406 0.258
30.0874 6.104 0.252
30.1079 6.031 0.251
30.1283 5.885 0.248
30.1488 6.219 0.255
30.1692 6.083 0.252
30.1897 5.646 0.243
30.2102 5.927 0.248
30.2306 6.365 0.257
30.2511 5.448 0.238
30.2716 6.083 0.252
30.2920 6.281 0.256
30.3125 5.906 0.248
30.3329 5.865 0.247
30.3534 5.760 0.245
30.3739 6.073 0.252
30.3943 6.208 0.254
30.4148 6.094 0.252
30.4353 6.448 0.259
30.4557 6.458 0.259
30.4762 6.177 0.254
30.4967 6.208 0.254
30.5171 6.073 0.252
30.5376 6.010 0.250
30.5580 6.469 0.260
30.5785 6.208 0.254
30.5990 6.854 0.267
30.6194 6.625 0.263
30.6399 6.323 0.257
30.6604 6.417 0.259
30.6808 6.510 0.260
30.7013 6.750 0.265
30.7217 6.844 0.267
30.7422 7.396 0.278
30.7627 7.740 0.284
30.7831 8.083 0.290
30.8036 7.854 0.286
30.8241 9.104 0.308
30.8445 9.667 0.317
30.8650 11.208 0.342
30.8854 12.323 0.358
30.9059 16.115 0.410
30.9264 21.469 0.473
30.9468 31.354 0.571
30.9673 43.938 0.677
30.9878 53.313 0.745
31.0082 49.406 0.717
31.0287 43.833 0.676
31.0491 44.333 0.680
31.0696 39.417 0.641
31.0901 31.156 0.570
31.1105 24.615 0.506
31.1310 18.688 0.441
31.1515 15.823 0.406
31.1719 12.781 0.365
31.1924 11.875 0.352
31.2128 10.010 0.323
31.2333 9.573 0.316
31.2538 8.969 0.306
31.2742 8.833 0.303
31.2947 8.490 0.297
31.3152 7.802 0.285
31.3356 7.813 0.285
31.3561 7.740 0.284
31.3766 6.698 0.264
31.3970 6.740 0.265
31.4175 6.750 0.265
31.4379 6.344 0.257
31.4584 6.771 0.266
31.4789 6.510 0.260
31.4993 6.906 0.268
31.5198 6.625 0.263
31.5403 6.760 0.265
31.5607 6.531 0.261
31.5812 6.823 0.267
31.6016 6.208 0.254
31.6221 6.229 0.255
31.6426 6.604 0.262
31.6630 6.177 0.254
31.6835 6.781 0.266
31.7040 6.500 0.260
31.7244 6.469 0.260
31.7449 7.052 0.271
31.7653 6.583 0.262
31.7858 6.385 0.258
31.8063 6.531 0.261
31.8267 6.240 0.255
31.8472 6.396 0.258
31.8677 6.708 0.264
31.8881 6.344 0.257
31.9086 6.792 0.266
31.9290 6.563 0.261
31.9495 7.375 0.277
31.9700 7.615 0.282
31.9904 7.010 0.270
32.0109 7.500 0.280
32.0314 8.240 0.293
32.0518 8.667 0.300
32.0723 8.813 0.303
32.0927 8.958 0.305
32.1132 9.406 0.313
32.1337 8.990 0.306
32.1541 8.833 0.303
32.1746 8.479 0.297
32.1951 8.708 0.301
32.2155 8.260 0.293
32.2360 7.865 0.286
32.2565 7.354 0.277
32.2769 8.385 0.296
32.2974 7.781 0.285
32.3178 7.469 0.279
32.3383 8.135 0.291
32.3588 7.917 0.287
32.3792 8.958 0.305
32.3997 8.635 0.300
32.4202 9.177 0.309
32.4406 10.646 0.333
32.4611 10.615 0.333
32.4815 11.573 0.347
32.5020 12.750 0.364
32.5225 14.458 0.388
32.5429 16.323 0.412
32.5634 19.500 0.451
32.5839 21.229 0.470
32.6043 23.208 0.492
32.6248 19.260 0.448
32.6452 17.573 0.428
32.6657 16.917 0.420
32.6862 15.146 0.397
32.7066 14.000 0.382
32.7271 11.104 0.340
32.7476 9.531 0.315
32.7680 9.417 0.313
32.7885 8.917 0.305
32.8089 8.010 0.289
32.8294 7.875 0.286
32.8499 7.344 0.277
32.8703 7.219 0.274
32.8908 7.063 0.271
32.9113 7.156 0.273
32.9317 6.740 0.265
32.9522 7.135 0.273
32.9726 6.865 0.267
32.9931 6.438 0.259
33.0136 6.229 0.255
33.0340 6.156 0.253
33.0545 6.458 0.259
33.0750 6.688 0.264
33.0954 6.813 0.266
33.1159 6.323 0.257
33.1364 6.177 0.254
33.1568 6.031 0.251
33.1773 6.323 0.257
33.1977 6.021 0.250
33.2182 5.740 0.245
33.2387 5.823 0.246
33.2591 6.510 0.260
33.2796 6.427 0.259
33.3001 6.208 0.254
33.3205 5.760 0.245
33.3410 6.240 0.255
33.3614 6.323 0.257
33.3819 6.198 0.254
33.4024 5.729 0.244
33.4228 5.479 0.239
33.4433 6.323 0.257
33.4638 5.594 0.241
33.4842 6.010 0.250
33.5047 5.740 0.245
33.5251 6.094 0.252
33.5456 5.719 0.244
33.5661 5.667 0.243
33.5865 5.573 0.241
33.6070 6.031 0.251
33.6275 6.146 0.253
33.6479 5.583 0.241
33.6684 6.052 0.251
33.6888 6.365 0.257
33.7093 5.740 0.245
33.7298 5.635 0.242
33.7502 5.927 0.248
33.7707 5.792 0.246
33.7912 5.969 0.249
33.8116 5.750 0.245
33.8321 5.990 0.250
33.8526 5.688 0.243
33.8730 5.510 0.240
33.8935 5.896 0.248
33.9139 5.594 0.241
33.9344 5.708 0.244
33.9549 5.563 0.241
33.9753 5.844 0.247
33.9958 6.188 0.254
34.0163 5.563 0.241
34.0367 5.646 0.243
34.0572 5.656 0.243
34.0776 5.490 0.239
34.0981 5.563 0.241
34.1186 5.583 0.241
34.1390 5.740 0.245
34.1595 6.240 0.255
34.1800 5.479 0.239
34.2004 5.760 0.245
34.2209 5.958 0.249
34.2413 5.500 0.239
34.2618 6.229 0.255
34.2823 5.271 0.234
34.3027 6.292 0.256
34.3232 5.479 0.239
34.3437 5.646 0.243
34.3641 5.521 0.240
34.3846 5.771 0.245
34.4050 5.969 0.249
34.4255 5.771 0.245
34.4460 5.385 0.237
34.4664 5.344 0.236
34.4869 5.583 0.241
34.5074 5.521 0.240
34.5278 5.135 0.231
34.5483 5.594 0.241
34.5687 5.208 0.233
34.5892 5.521 0.240
34.6097 5.365 0.236
34.6301 5.688 0.243
34.6506 5.219 0.233
34.6711 5.427 0.238
34.6915 5.479 0.239
34.7120 5.479 0.239
34.7325 5.656 0.243
34.7529 5.615 0.242
34.7734 5.667 0.243
34.7938 5.094 0.230
34.8143 5.510 0.240
34.8348 6.094 0.252
34.8552 5.729 0.244
34.8757 5.458 0.238
34.8962 5.438 0.238
34.9166 5.469 0.239
34.9371 5.813 0.246
34.9575 6.125 0.253
34.9780 6.052 0.251
34.9985 5.740 0.245
35.0189 5.531 0.240
35.0394 5.625 0.242
35.0599 6.083 0.252
35.0803 5.333 0.236
35.1008 5.844 0.247
35.1212 5.552 0.240
35.1417 5.688 0.243
35.1622 5.625 0.242
35.1826 5.771 0.245
35.2031 5.969 0.249
35.2236 6.000 0.250
35.2440 5.885 0.248
35.2645 5.677 0.243
35.2849 5.750 0.245
35.3054 5.792 0.246
35.3259 5.865 0.247
35.3463 6.229 0.255
35.3668 6.052 0.251
35.3873 6.302 0.256
35.4077 6.146 0.253
35.4282 6.729 0.265
35.4486 5.865 0.247
35.4691 6.010 0.250
35.4896 5.865 0.247
35.5100 6.875 0.268
35.5305 6.750 0.265
35.5510 6.063 0.251
35.5714 6.458 0.259
35.5919 6.583 0.262
35.6124 6.260 0.255
35.6328 6.417 0.259
35.6533 6.177 0.254
35.6737 6.385 0.258
35.6942 6.635 0.263
35.7147 6.729 0.265
35.7351 7.167 0.273
35.7556 6.167 0.253
35.7761 6.719 0.265
35.7965 6.990 0.270
35.8170 7.854 0.286
35.8374 7.750 0.284
35.8579 7.542 0.280
35.8784 7.760 0.284
35.8988 7.479 0.279
35.9193 8.010 0.289
35.9398 8.615 0.300
35.9602 9.281 0.311
35.9807 9.427 0.313
36.0011 9.250 0.310
36.0216 10.521 0.331
36.0421 11.125 0.340
36.0625 11.375 0.344
36.0830 12.417 0.360
36.1035 12.833 0.366
36.1239 12.875 0.366
36.1444 14.125 0.384
36.1648 13.719 0.378
36.1853 12.792 0.365
36.2058 13.667 0.377
36.2262 12.854 0.366
36.2467 13.156 0.370
36.2672 12.677 0.363
36.2876 13.500 0.375
36.3081 13.156 0.370
36.3285 13.625 0.377
36.3490 14.167 0.384
36.3695 14.740 0.392
36.3899 15.635 0.404
36.4104 15.938 0.407
36.4309 16.615 0.416
36.4513 17.323 0.425
36.4718 17.208 0.423
36.4923 19.635 0.452
36.5127 22.135 0.480
36.5332 24.760 0.508
36.5536 30.063 0.560
36.5741 31.708 0.575
36.5946 29.635 0.556
36.6150 24.625 0.506
36.6355 24.250 0.503
36.6560 25.063 0.511
36.6764 23.448 0.494
36.6969 20.510 0.462
36.7173 19.073 0.446
36.7378 16.677 0.417
36.7583 15.854 0.406
36.7787 16.083 0.409
36.7992 16.250 0.411
36.8197 14.917 0.394
36.8401 15.385 0.400
36.8606 16.115 0.410
36.8810 16.500 0.415
36.9015 17.198 0.423
36.9220 17.615 0.428
36.9424 19.698 0.453
36.9629 21.125 0.469
36.9834 24.563 0.506
37.0038 28.021 0.540
37.0243 34.948 0.603
37.0447 39.573 0.642
37.0652 38.146 0.630
37.0857 33.333 0.589
37.1061 29.750 0.557
37.1266 28.875 0.548
37.1471 27.865 0.539
37.1675 24.146 0.502
37.1880 20.396 0.461
37.2084 18.625 0.440
37.2289 16.292 0.412
37.2494 14.802 0.393
37.2698 13.260 0.372
37.2903 12.792 0.365
37.3108 12.802 0.365
37.3312 12.094 0.355
37.3517 11.802 0.351
37.3722 11.229 0.342
37.3926 11.573 0.347
37.4131 10.979 0.338
37.4335 11.063 0.339
37.4540 10.531 0.331
37.4745 11.083 0.340
37.4949 10.563 0.332
37.5154 11.115 0.340
37.5359 10.573 0.332
37.5563 11.240 0.342
37.5768 10.708 0.334
37.5972 10.531 0.331
37.6177 11.417 0.345
37.6382 10.365 0.329
37.6586 10.135 0.325
37.6791 9.979 0.322
37.6996 10.708 0.334
37.7200 10.542 0.331
37.7405 11.083 0.340
37.7609 9.885 0.321
37.7814 10.479 0.330
37.8019 10.406 0.329
37.8223 10.573 0.332
37.8428 10.490 0.331
37.8633 10.906 0.337
37.8837 11.354 0.344
37.9042 11.802 0.351
37.9246 12.708 0.364
37.9451 13.479 0.375
37.9656 16.875 0.419
37.9860 18.552 0.440
38.0065 18.740 0.442
38.0270 17.198 0.423
38.0474 15.604 0.403
38.0679 15.396 0.400
38.0884 15.375 0.400
38.1088 15.479 0.402
38.1293 14.000 0.382
38.1497 12.927 0.367
38.1702 12.354 0.359
38.1907 11.854 0.351
38.2111 11.802 0.351
38.2316 11.260 0.342
38.2521 11.490 0.346
38.2725 11.615 0.348
38.2930 11.292 0.343
38.3134 10.490 0.331
38.3339 11.531 0.347
38.3544 11.708 0.349
38.3748 12.552 0.362
38.3953 13.667 0.377
38.4158 15.604 0.403
38.4362 15.740 0.405
38.4567 14.969 0.395
38.4771 14.167 0.384
38.4976 13.646 0.377
38.5181 13.844 0.380
38.5385 13.385 0.373
38.5590 12.115 0.355
38.5795 11.427 0.345
38.5999 10.219 0.326
38.6204 10.167 0.325
38.6408 9.281 0.311
38.6613 9.094 0.308
38.6818 9.979 0.322
38.7022 9.167 0.309
38.7227 8.823 0.303
38.7432 8.594 0.299
38.7636 8.563 0.299
38.7841 8.677 0.301
38.8045 8.729 0.302
38.8250 8.208 0.292
38.8455 8.760 0.302
38.8659 7.677 0.283
38.8864 8.271 0.294
38.9069 7.781 0.285
38.9273 8.271 0.294
38.9478 8.885 0.304
38.9683 9.229 0.310
38.9887 8.531 0.298
39.0092 8.896 0.304
39.0296 8.302 0.294
39.0501 8.354 0.295
39.0706 8.771 0.302
39.0910 8.781 0.302
39.1115 9.042 0.307
39.1320 9.073 0.307
39.1524 8.500 0.298
39.1729 8.323 0.294
39.1933 8.646 0.300
39.2138 8.646 0.300
39.2343 8.635 0.300
39.2547 8.031 0.289
39.2752 8.313 0.294
39.2957 8.688 0.301
39.3161 8.625 0.300
39.3366 8.354 0.295
39.3570 9.010 0.306
39.3775 9.313 0.311
39.3980 9.281 0.311
39.4184 8.323 0.294
39.4389 8.854 0.304
39.4594 9.427 0.313
39.4798 8.958 0.305
39.5003 9.427 0.313
39.5207 8.198 0.292
39.5412 8.458 0.297
39.5617 9.667 0.317
39.5821 9.146 0.309
39.6026 9.042 0.307
39.6231 9.958 0.322
39.6435 9.250 0.310
39.6640 9.427 0.313
39.6844 10.073 0.324
39.7049 10.646 0.333
39.7254 11.083 0.340
39.7458 12.646 0.363
39.7663 12.240 0.357
39.7868 12.885 0.366
39.8072 12.094 0.355
39.8277 11.313 0.343
39.8482 11.521 0.346
39.8686 11.677 0.349
39.8891 11.094 0.340
39.9095 10.729 0.334
39.9300 9.823 0.320
39.9505 9.573 0.316
39.9709 9.083 0.308
39.9914 8.896 0.304
40.0119 8.927 0.305
40.0323 8.740 0.302
40.0528 8.677 0.301
40.0732 8.708 0.301
40.0937 9.354 0.312
40.1142 8.865 0.304
40.1346 9.198 0.310
40.1551 9.635 0.317
40.1756 9.646 0.317
40.1960 10.396 0.329
40.2165 10.698 0.334
40.2369 12.333 0.358
40.2574 12.198 0.356
40.2779 12.010 0.354
40.2983 11.146 0.341
40.3188 10.615 0.333
40.3393 11.479 0.346
40.3597 11.594 0.348
40.3802 10.948 0.338
40.4006 10.469 0.330
40.4211 10.208 0.326
40.4416 9.615 0.316
40.4620 9.906 0.321
40.4825 9.479 0.314
40.5030 9.219 0.310
40.5234 9.823 0.320
40.5439 9.323 0.312
40.5643 9.969 0.322
40.5848 8.885 0.304
40.6053 9.323 0.312
40.6257 8.906 0.305
40.6462 8.833 0.303
40.6667 8.615 0.300
40.6871 8.750 0.302
40.7076 8.563 0.299
40.7281 8.542 0.298
40.7485 8.021 0.289
40.7690 8.604 0.299
40.7894 8.323 0.294
40.8099 8.021 0.289
40.8304 8.198 0.292
40.8508 7.875 0.286
40.8713 7.854 0.286
40.8918 8.396 0.296
40.9122 8.135 0.291
40.9327 8.531 0.298
40.9531 8.875 0.304
40.9736 8.885 0.304
40.9941 9.240 0.310
41.0145 9.708 0.318
41.0350 10.948 0.338
41.0555 12.396 0.359
41.0759 13.719 0.378
41.0964 15.563 0.403
41.1168 17.021 0.421
41.1373 14.292 0.386
41.1578 13.823 0.379
41.1782 12.688 0.364
41.1987 13.219 0.371
41.2192 12.031 0.354
41.2396 11.188 0.341
41.2601 10.219 0.326
41.2805 9.146 0.309
41.3010 9.031 0.307
41.3215 8.167 0.292
41.3419 7.938 0.288
41.3624 7.656 0.282
41.3829 7.563 0.281
41.4033 7.563 0.281
41.4238 7.344 0.277
41.4442 7.365 0.277
41.4647 6.802 0.266
41.4852 7.260 0.275
41.5056 7.396 0.278
41.5261 7.417 0.278
41.5466 7.396 0.278
41.5670 7.063 0.271
41.5875 6.854 0.267
41.6080 6.990 0.270
41.6284 7.156 0.273
41.6489 6.500 0.260
41.6693 6.781 0.266
41.6898 6.917 0.268
41.7103 7.115 0.272
41.7307 7.104 0.272
41.7512 7.125 0.272
41.7717 6.271 0.256
41.7921 6.792 0.266
41.8126 6.781 0.266
41.8330 6.083 0.252
41.8535 6.906 0.268
41.8740 6.354 0.257
41.8944 6.729 0.265
41.9149 6.396 0.258
41.9354 7.125 0.272
41.9558 6.323 0.257
41.9763 6.708 0.264
41.9967 6.979 0.270
42.0172 6.771 0.266
42.0377 6.479 0.260
42.0581 7.177 0.273
42.0786 7.125 0.272
42.0991 6.521 0.261
42.1195 6.750 0.265
42.1400 6.906 0.268
42.1604 7.042 0.271
42.1809 6.542 0.261
42.2014 6.417 0.259
42.2218 6.604 0.262
42.2423 7.240 0.275
42.2628 7.375 0.277
42.2832 7.823 0.285
42.3037 7.208 0.274
42.3242 7.573 0.281
42.3446 7.458 0.279
42.3651 7.260 0.275
42.3855 7.510 0.280
42.4060 7.479 0.279
42.4265 7.823 0.285
42.4469 7.260 0.275
42.4674 7.229 0.274
42.4879 7.469 0.279
42.5083 7.792 0.285
42.5288 7.333 0.276
42.5492 7.208 0.274
42.5697 7.719 0.284
42.5902 7.573 0.281
42.6106 7.260 0.275
42.6311 7.563 0.281
42.6516 7.865 0.286
42.6720 7.115 0.272
42.6925 7.479 0.279
42.7129 7.167 0.273
42.7334 7.552 0.280
42.7539 7.938 0.288
42.7743 7.240 0.275
42.7948 7.729 0.284
42.8153 7.323 0.276
42.8357 7.125 0.272
42.8562 7.458 0.279
42.8766 7.229 0.274
42.8971 7.375 0.277
42.9176 7.344 0.277
42.9380 7.542 0.280
42.9585 7.313 0.276
42.9790 7.292 0.276
42.9994 8.073 0.290
43.0199 7.573 0.281
43.0403 7.552 0.280
43.0608 7.948 0.288
43.0813 8.344 0.295
43.1017 8.219 0.293
43.1222 8.833 0.303
43.1427 9.063 0.307
43.1631 8.979 0.306
43.1836 9.500 0.315
43.2041 10.031 0.323
43.2245 9.688 0.318
43.2450 9.771 0.319
43.2654 10.000 0.323
43.2859 9.542 0.315
43.3064 9.938 0.322
43.3268 9.906 0.321
43.3473 9.531 0.315
43.3678 10.198 0.326
43.3882 9.990 0.323
43.4087 9.969 0.322
43.4291 10.156 0.325
43.4496 11.573 0.347
43.4701 11.740 0.350
43.4905 13.146 0.370
43.5110 13.583 0.376
43.5315 14.542 0.389
43.5519 17.271 0.424
43.5724 18.875 0.443
43.5928 22.802 0.487
43.6133 23.740 0.497
43.6338 22.042 0.479
43.6542 20.260 0.459
43.6747 17.646 0.429
43.6952 17.854 0.431
43.7156 17.583 0.428
43.7361 16.500 0.415
43.7565 14.208 0.385
43.7770 13.448 0.374
43.7975 11.479 0.346
43.8179 9.844 0.320
43.8384 9.927 0.322
43.8589 9.708 0.318
43.8793 8.844 0.304
43.8998 8.208 0.292
43.9202 8.469 0.297
43.9407 8.240 0.293
43.9612 8.188 0.292
43.9816 7.375 0.277
44.0021 7.938 0.288
44.0226 7.781 0.285
44.0430 7.531 0.280
44.0635 7.760 0.284
44.0840 7.531 0.280
44.1044 6.917 0.268
44.1249 7.917 0.287
44.1453 7.552 0.280
44.1658 7.531 0.280
44.1863 7.500 0.280
44.2067 7.417 0.278
44.2272 7.063 0.271
44.2477 7.094 0.272
44.2681 7.396 0.278
44.2886 7.385 0.277
44.3090 7.167 0.273
44.3295 7.104 0.272
44.3500 6.990 0.270
44.3704 6.781 0.266
44.3909 7.302 0.276
44.4114 6.781 0.266
44.4318 6.958 0.269
44.4523 7.021 0.270
44.4727 6.573 0.262
44.4932 6.896 0.268
44.5137 7.042 0.271
44.5341 6.938 0.269
44.5546 6.990 0.270
44.5751 6.292 0.256
44.5955 6.740 0.265
44.6160 6.969 0.269
44.6364 6.521 0.261
44.6569 7.250 0.275
44.6774 7.760 0.284
44.6978 7.010 0.270
44.7183 7.313 0.276
44.7388 7.208 0.274
44.7592 6.646 0.263
44.7797 6.615 0.262
44.8001 7.323 0.276
44.8206 7.438 0.278
44.8411 7.094 0.272
44.8615 6.948 0.269
44.8820 7.406 0.278
44.9025 7.240 0.275
44.9229 6.813 0.266
44.9434 6.750 0.265
44.9639 7.448 0.279
44.9843 7.240 0.275
45.0048 7.573 0.281
45.0252 6.917 0.268
45.0457 7.646 0.282
45.0662 7.479 0.279
45.0866 7.563 0.281
45.1071 8.042 0.289
45.1276 7.656 0.282
45.1480 8.438 0.296
45.1685 9.010 0.306
45.1889 9.833 0.320
45.2094 10.583 0.332
45.2299 10.865 0.336
45.2503 10.469 0.330
45.2708 9.938 0.322
45.2913 9.104 0.308
45.3117 9.875 0.321
45.3322 9.031 0.307
45.3526 9.354 0.312
45.3731 8.885 0.304
45.3936 7.990 0.288
45.4140 7.760 0.284
45.4345 7.469 0.279
45.4550 7.198 0.274
45.4754 7.240 0.275
45.4959 6.802 0.266
45.5163 6.760 0.265
45.5368 6.438 0.259
45.5573 6.313 0.256
45.5777 6.448 0.259
45.5982 6.104 0.252
45.6187 6.302 0.256
45.6391 6.469 0.260
45.6596 6.229 0.255
45.6800 6.500 0.260
45.7005 6.250 0.255
45.7210 6.458 0.259
45.7414 6.188 0.254
45.7619 6.052 0.251
45.7824 6.031 0.251
45.8028 6.021 0.250
45.8233 5.823 0.246
45.8438 6.406 0.258
45.8642 5.667 0.243
45.8847 5.750 0.245
45.9051 5.792 0.246
45.9256 5.823 0.246
45.9461 5.885 0.248
45.9665 6.125 0.253
45.9870 5.854 0.247
46.0075 5.854 0.247
46.0279 5.490 0.239
46.0484 5.563 0.241
46.0688 6.146 0.253
46.0893 5.833 0.247
46.1098 5.844 0.247
46.1302 5.531 0.240
46.1507 5.833 0.247
46.1712 5.760 0.245
46.1916 5.958 0.249
46.2121 5.271 0.234
46.2325 5.740 0.245
46.2530 5.854 0.247
46.2735 5.385 0.237
46.2939 5.313 0.235
46.3144 5.635 0.242
46.3349 5.510 0.240
46.3553 5.333 0.236
46.3758 5.177 0.232
46.3962 5.479 0.239
46.4167 5.563 0.241
46.4372 5.729 0.244
46.4576 5.990 0.250
46.4781 5.448 0.238
46.4986 5.448 0.238
46.5190 5.604 0.242
46.5395 5.438 0.238
46.5600 5.625 0.242
46.5804 5.990 0.250
46.6009 4.990 0.228
46.6213 5.531 0.240
46.6418 5.625 0.242
46.6623 5.344 0.236
46.6827 5.094 0.230
46.7032 5.469 0.239
46.7237 5.542 0.240
46.7441 5.042 0.229
46.7646 5.375 0.237
46.7850 5.219 0.233
46.8055 5.406 0.237
46.8260 5.448 0.238
46.8464 5.688 0.243
46.8669 5.865 0.247
46.8874 5.313 0.235
46.9078 5.781 0.245
46.9283 5.375 0.237
46.9487 5.781 0.245
46.9692 5.604 0.242
46.9897 5.333 0.236
47.0101 5.698 0.244
47.0306 5.729 0.244
47.0511 6.063 0.251
47.0715 5.833 0.247
47.0920 5.521 0.240
47.1124 5.917 0.248
47.1329 5.344 0.236
47.1534 5.813 0.246
47.1738 5.573 0.241
47.1943 6.354 0.257
47.2148 5.896 0.248
47.2352 6.115 0.252
47.2557 5.865 0.247
47.2761 5.948 0.249
47.2966 6.573 0.262
47.3171 6.365 0.257
47.3375 6.885 0.268
47.3580 6.083 0.252
47.3785 6.677 0.264
47.3989 6.927 0.269
47.4194 7.115 0.272
47.4399 6.938 0.269
47.4603 7.552 0.280
47.4808 7.563 0.281
47.5012 8.042 0.289
47.5217 9.573 0.316
47.5422 9.969 0.322
47.5626 11.292 0.343
47.5831 11.865 0.352
47.6036 11.229 0.342
47.6240 10.135 0.325
47.6445 9.625 0.317
47.6649 9.260 0.311
47.6854 10.260 0.327
47.7059 9.896 0.321
47.7263 9.208 0.310
47.7468 8.865 0.304
47.7673 8.177 0.292
47.7877 7.490 0.279
47.8082 6.896 0.268
47.8286 7.323 0.276
47.8491 6.563 0.261
47.8696 5.979 0.250
47.8900 6.594 0.262
47.9105 6.635 0.263
47.9310 6.313 0.256
47.9514 5.938 0.249
47.9719 5.771 0.245
47.9923 5.906 0.248
48.0128 6.042 0.251
48.0333 6.344 0.257
48.0537 6.000 0.250
48.0742 5.531 0.240
48.0947 5.823 0.246
48.1151 6.458 0.259
48.1356 6.188 0.254
48.1560 6.177 0.254
48.1765 6.052 0.251
48.1970 6.510 0.260
48.2174 6.344 0.257
48.2379 6.646 0.263
48.2584 6.927 0.269
48.2788 6.708 0.264
48.2993 7.813 0.285
48.3198 7.156 0.273
48.3402 6.979 0.270
48.3607 6.979 0.270
48.3811 6.823 0.267
48.4016 7.479 0.279
48.4221 6.917 0.268
48.4425 6.708 0.264
48.4630 7.344 0.277
48.4835 6.031 0.251
48.5039 6.448 0.259
48.5244 6.885 0.268
48.5448 6.219 0.255
48.5653 6.375 0.258
48.5858 6.083 0.252
48.6062 6.781 0.266
48.6267 6.615 0.262
48.6472 7.042 0.271
48.6676 6.906 0.268
48.6881 7.302 0.276
48.7085 6.813 0.266
48.7290 6.417 0.259
48.7495 6.750 0.265
48.7699 6.146 0.253
48.7904 6.240 0.255
48.8109 6.229 0.255
48.8313 6.510 0.260
48.8518 6.667 0.264
48.8722 6.219 0.255
48.8927 5.917 0.248
48.9132 5.448 0.238
48.9336 5.542 0.240
48.9541 5.385 0.237
48.9746 5.490 0.239
48.9950 5.490 0.239
49.0155 5.594 0.241
49.0359 5.271 0.234
49.0564 5.031 0.229
49.0769 4.948 0.227
49.0973 5.302 0.235
49.1178 5.458 0.238
49.1383 5.240 0.234
49.1587 5.188 0.232
49.1792 4.750 0.222
49.1997 5.531 0.240
49.2201 5.594 0.241
49.2406 5.656 0.243
49.2610 5.719 0.244
49.2815 5.125 0.231
49.3020 5.156 0.232
49.3224 5.354 0.236
49.3429 5.833 0.247
49.3634 5.510 0.240
49.3838 5.885 0.248
49.4043 5.260 0.234
49.4247 5.375 0.237
49.4452 5.979 0.250
49.4657 5.823 0.246
49.4861 5.948 0.249
49.5066 6.115 0.252
49.5271 6.010 0.250
49.5475 6.365 0.257
49.5680 6.677 0.264
49.5884 6.958 0.269
49.6089 7.385 0.277
49.6294 7.042 0.271
49.6498 7.510 0.280
49.6703 7.844 0.286
49.6908 8.792 0.303
49.7112 8.948 0.305
49.7317 10.625 0.333
49.7521 10.656 0.333
49.7726 12.698 0.364
49.7931 14.948 0.395
49.8135 15.823 0.406
49.8340 16.615 0.416
49.8545 15.354 0.400
49.8749 13.542 0.376
49.8954 12.885 0.366
49.9158 13.365 0.373
49.9363 13.146 0.370
49.9568 12.531 0.361
49.9772 11.854 0.351
49.9977 11.604 0.348
50.0182 10.115 0.325
50.0386 9.427 0.313
50.0591 9.573 0.316
50.0796 8.854 0.304
50.1000 9.271 0.311
50.1205 9.125 0.308
50.1409 9.500 0.315
50.1614 10.146 0.325
50.1819 9.521 0.315
50.2023 8.948 0.305
50.2228 8.885 0.304
50.2433 8.094 0.290
50.2637 8.115 0.291
50.2842 8.615 0.300
50.3046 7.896 0.287
50.3251 8.135 0.291
50.3456 7.625 0.282
50.3660 7.104 0.272
50.3865 7.500 0.280
50.4070 6.958 0.269
50.4274 6.990 0.270
50.4479 6.417 0.259
50.4683 5.948 0.249
50.4888 6.708 0.264
50.5093 6.698 0.264
50.5297 7.198 0.274
50.5502 6.688 0.264
50.5707 6.667 0.264
50.5911 6.177 0.254
50.6116 7.177 0.273
50.6320 6.823 0.267
50.6525 6.948 0.269
50.6730 6.656 0.263
50.6934 6.094 0.252
50.7139 6.333 0.257
50.7344 6.313 0.256
50.7548 6.542 0.261
50.7753 6.740 0.265
50.7958 6.031 0.251
50.8162 6.313 0.256
50.8367 6.313 0.256
50.8571 5.906 0.248
50.8776 6.844 0.267
50.8981 6.510 0.260
50.9185 6.271 0.256
50.9390 7.188 0.274
50.9595 7.396 0.278
50.9799 7.104 0.272
51.0004 6.594 0.262
51.0208 6.698 0.264
51.0413 6.573 0.262
51.0618 6.750 0.265
51.0822 6.844 0.267
51.1027 7.167 0.273
51.1232 7.000 0.270
51.1436 6.510 0.260
51.1641 6.240 0.255
51.1845 5.781 0.245
51.2050 6.188 0.254
51.2255 6.198 0.254
51.2459 6.458 0.259
51.2664 6.729 0.265
51.2869 6.531 0.261
51.3073 6.240 0.255
51.3278 6.542 0.261
51.3482 5.854 0.247
51.3687 6.240 0.255
51.3892 5.729 0.244
51.4096 6.313 0.256
51.4301 5.927 0.248
51.4506 5.563 0.241
51.4710 5.917 0.248
51.4915 5.323 0.235
51.5119 5.510 0.240
51.5324 5.740 0.245
51.5529 5.729 0.244
51.5733 6.177 0.254
51.5938 5.958 0.249
51.6143 6.271 0.256
51.6347 7.167 0.273
51.6552 6.781 0.266
51.6757 6.792 0.266
51.6961 6.719 0.265
51.7166 6.208 0.254
51.7370 5.906 0.248
51.7575 5.896 0.248
51.7780 6.313 0.256
51.7984 6.521 0.261
51.8189 6.156 0.253
51.8394 5.969 0.249
51.8598 5.260 0.234
51.8803 5.583 0.241
51.9007 5.094 0.230
51.9212 5.281 0.235
51.9417 5.250 0.234
51.9621 5.333 0.236
51.9826 5.323 0.235
52.0031 4.823 0.224
52.0235 5.396 0.237
52.0440 4.875 0.225
52.0644 5.146 0.232
52.0849 5.281 0.235
52.1054 5.135 0.231
52.1258 4.854 0.225
52.1463 4.844 0.225
52.1668 4.740 0.222
52.1872 5.156 0.232
52.2077 5.063 0.230
52.2281 4.813 0.224
52.2486 5.365 0.236
52.2691 5.406 0.237
52.2895 5.490 0.239
52.3100 4.625 0.219
52.3305 4.854 0.225
52.3509 5.219 0.233
52.3714 5.375 0.237
52.3918 5.469 0.239
52.4123 5.177 0.232
52.4328 4.990 0.228
52.4532 5.042 0.229
52.4737 4.833 0.224
52.4942 4.979 0.228
52.5146 4.865 0.225
52.5351 5.115 0.231
52.5556 4.865 0.225
52.5760 5.042 0.229
52.5965 4.594 0.219
52.6169 4.813 0.224
52.6374 4.542 0.218
52.6579 4.563 0.218
52.6783 4.385 0.214
52.6988 4.917 0.226
52.7193 4.698 0.221
52.7397 4.688 0.221
52.7602 4.958 0.227
52.7806 4.917 0.226
52.8011 4.573 0.218
52.8216 4.729 0.222
52.8420 4.583 0.219
52.8625 5.198 0.233
52.8830 4.917 0.226
52.9034 4.552 0.218
52.9239 4.969 0.228
52.9443 4.771 0.223
52.9648 4.948 0.227
52.9853 5.208 0.233
53.0057 5.021 0.229
53.0262 4.917 0.226
53.0467 5.010 0.228
53.0671 4.990 0.228
53.0876 5.063 0.230
53.1080 5.396 0.237
53.1285 4.958 0.227
53.1490 4.917 0.226
53.1694 5.198 0.233
53.1899 4.990 0.228
53.2104 4.885 0.226
53.2308 4.719 0.222
53.2513 4.677 0.221
53.2717 4.896 0.226
53.2922 4.490 0.216
53.3127 4.792 0.223
53.3331 4.927 0.227
53.3536 5.063 0.230
53.3741 4.656 0.220
53.3945 4.240 0.210
53.4150 4.500 0.217
53.4355 4.990 0.228
53.4559 4.531 0.217
53.4764 4.760 0.223
53.4968 4.938 0.227
53.5173 4.292 0.211
53.5378 4.500 0.217
53.5582 4.156 0.208
53.5787 4.521 0.217
53.5992 4.406 0.214
53.6196 4.438 0.215
53.6401 4.333 0.212
53.6605 4.188 0.209
53.6810 4.490 0.216
53.7015 4.167 0.208
53.7219 4.594 0.219
53.7424 4.604 0.219
53.7629 4.281 0.211
53.7833 4.188 0.209
53.8038 4.469 0.216
53.8242 4.427 0.215
53.8447 4.323 0.212
53.8652 4.729 0.222
53.8856 4.542 0.218
53.9061 4.406 0.214
53.9266 4.615 0.219
53.9470 4.625 0.219
53.9675 4.406 0.214
53.9879 4.615 0.219
54.0084 4.385 0.214
54.0289 4.292 0.211
54.0493 4.802 0.224
54.0698 4.823 0.224
54.0903 5.646 0.243
54.1107 5.521 0.240
54.1312 5.125 0.231
54.1516 5.083 0.230
54.1721 5.115 0.231
54.1926 4.927 0.227
54.2130 4.823 0.224
54.2335 4.875 0.225
54.2540 5.083 0.230
54.2744 4.781 0.223
54.2949 5.031 0.229
54.3154 4.938 0.227
54.3358 4.792 0.223
54.3563 4.438 0.215
54.3767 4.490 0.216
54.3972 4.615 0.219
54.4177 4.427 0.215
54.4381 4.740 0.222
54.4586 4.042 0.205
54.4791 4.552 0.218
54.4995 4.688 0.221
54.5200 4.438 0.215
54.5404 4.229 0.210
54.5609 4.250 0.210
54.5814 4.396 0.214
54.6018 4.271 0.211
54.6223 4.552 0.218
54.6428 4.385 0.214
54.6632 4.094 0.207
54.6837 4.104 0.207
54.7041 4.219 0.210
54.7246 4.479 0.216
54.7451 4.542 0.218
54.7655 4.688 0.221
54.7860 4.365 0.213
54.8065 4.938 0.227
54.8269 4.729 0.222
54.8474 5.250 0.234
54.8678 4.729 0.222
54.8883 4.906 0.226
54.9088 5.573 0.241
54.9292 5.302 0.235
54.9497 5.708 0.244
54.9702 5.833 0.247
54.9906 5.760 0.245
55.0111 6.198 0.254
55.0316 7.333 0.276
55.0520 7.906 0.287
55.0725 9.208 0.310
55.0929 10.927 0.337
55.1134 13.448 0.374
55.1339 15.552 0.402
55.1543 16.344 0.413
55.1748 15.667 0.404
55.1953 13.271 0.372
55.2157 12.240 0.357
55.2362 12.260 0.357
55.2566 12.344 0.359
55.2771 12.438 0.360
55.2976 12.375 0.359
55.3180 11.833 0.351
55.3385 10.438 0.330
55.3590 8.656 0.300
55.3794 8.698 0.301
55.3999 7.677 0.283
55.4203 7.427 0.278
55.4408 6.594 0.262
55.4613 6.521 0.261
55.4817 6.708 0.264
55.5022 5.854 0.247
55.5227 5.646 0.243
55.5431 5.573 0.241
55.5636 5.854 0.247
55.5840 5.760 0.245
55.6045 5.781 0.245
55.6250 4.917 0.226
55.6454 4.740 0.222
55.6659 5.667 0.243
55.6864 5.448 0.238
55.7068 5.156 0.232
55.7273 5.615 0.242
55.7477 5.469 0.239
55.7682 5.740 0.245
55.7887 5.656 0.243
55.8091 6.438 0.259
55.8296 6.365 0.257
55.8501 6.417 0.259
55.8705 5.990 0.250
55.8910 6.198 0.254
55.9115 5.688 0.243
55.9319 6.479 0.260
55.9524 6.188 0.254
55.9728 6.625 0.263
55.9933 6.729 0.265
56.0138 6.958 0.269
56.0342 6.906 0.268
56.0547 7.167 0.273
56.0752 7.188 0.274
56.0956 8.177 0.292
56.1161 8.760 0.302
56.1365 10.458 0.330
56.1570 11.750 0.350
56.1775 10.958 0.338
56.1979 10.344 0.328
56.2184 9.250 0.310
56.2389 8.615 0.300
56.2593 8.573 0.299
56.2798 8.667 0.300
56.3002 8.188 0.292
56.3207 8.427 0.296
56.3412 8.250 0.293
56.3616 7.490 0.279
56.3821 6.323 0.257
56.4026 5.823 0.246
56.4230 5.625 0.242
56.4435 5.188 0.232
56.4639 5.156 0.232
56.4844 5.333 0.236
56.5049 4.969 0.228
56.5253 5.125 0.231
56.5458 4.698 0.221
56.5663 4.656 0.220
56.5867 4.177 0.209
56.6072 4.354 0.213
56.6276 4.448 0.215
56.6481 4.615 0.219
56.6686 4.438 0.215
56.6890 4.302 0.212
56.7095 4.094 0.207
56.7300 3.927 0.202
56.7504 3.844 0.200
56.7709 4.177 0.209
56.7914 3.802 0.199
56.8118 4.260 0.211
56.8323 4.479 0.216
56.8527 3.729 0.197
56.8732 3.667 0.195
56.8937 3.750 0.198
56.9141 4.135 0.208
56.9346 4.104 0.207
56.9551 4.083 0.206
56.9755 4.219 0.210
56.9960 4.083 0.206
57.0164 4.292 0.211
57.0369 4.458 0.216
57.0574 3.979 0.204
57.0778 4.052 0.205
57.0983 3.771 0.198
57.1188 3.635 0.195
57.1392 4.156 0.208
57.1597 3.938 0.203
57.1801 4.083 0.206
57.2006 4.490 0.216
57.2211 4.115 0.207
57.2415 3.760 0.198
57.2620 4.240 0.210
57.2825 4.240 0.210
57.3029 3.896 0.201
57.3234 3.927 0.202
57.3438 4.385 0.214
57.3643 4.375 0.213
57.3848 4.479 0.216
57.4052 4.198 0.209
57.4257 4.479 0.216
57.4462 4.094 0.207
57.4666 4.396 0.214
57.4871 4.052 0.205
57.5075 4.135 0.208
57.5280 4.042 0.205
57.5485 4.156 0.208
57.5689 4.313 0.212
57.5894 4.313 0.212
57.6099 4.500 0.217
57.6303 4.375 0.213
57.6508 4.875 0.225
57.6713 4.823 0.224
57.6917 5.146 0.232
57.7122 4.990 0.228
57.7326 5.365 0.236
57.7531 5.448 0.238
57.7736 5.635 0.242
57.7940 6.188 0.254
57.8145 6.052 0.251
57.8350 6.854 0.267
57.8554 8.219 0.293
57.8759 8.219 0.293
57.8963 8.990 0.306
57.9168 8.729 0.302
57.9373 8.167 0.292
57.9577 7.615 0.282
57.9782 7.229 0.274
57.9987 7.333 0.276
58.0191 7.052 0.271
58.0396 6.906 0.268
58.0600 7.010 0.270
58.0805 6.500 0.260
58.1010 6.510 0.260
58.1214 6.167 0.253
58.1419 5.448 0.238
58.1624 5.250 0.234
58.1828 5.125 0.231
58.2033 4.927 0.227
58.2237 5.469 0.239
58.2442 4.552 0.218
58.2647 4.667 0.220
58.2851 4.917 0.226
58.3056 4.583 0.219
58.3261 4.823 0.224
58.3465 4.510 0.217
58.3670 4.667 0.220
58.3874 4.219 0.210
58.4079 4.667 0.220
58.4284 4.958 0.227
58.4488 4.490 0.216
58.4693 4.698 0.221
58.4898 4.844 0.225
58.5102 4.813 0.224
58.5307 4.500 0.217
58.5512 4.698 0.221
58.5716 4.635 0.220
58.5921 4.552 0.218
58.6125 4.375 0.213
58.6330 4.427 0.215
58.6535 4.521 0.217
58.6739 4.625 0.219
58.6944 4.604 0.219
58.7149 4.469 0.216
58.7353 4.594 0.219
58.7558 4.667 0.220
58.7762 4.781 0.223
58.7967 4.958 0.227
58.8172 4.583 0.219
58.8376 4.917 0.226
58.8581 4.813 0.224
58.8786 5.219 0.233
58.8990 4.656 0.220
58.9195 4.802 0.224
58.9399 4.948 0.227
58.9604 5.229 0.233
58.9809 5.052 0.229
59.0013 4.688 0.221
59.0218 5.740 0.245
59.0423 5.156 0.232
59.0627 5.344 0.236
59.0832 5.292 0.235
59.1036 5.948 0.249
59.1241 6.521 0.261
59.1446 6.844 0.267
59.1650 6.615 0.262
59.1855 7.156 0.273
59.2060 7.833 0.286
59.2264 6.667 0.264
59.2469 6.563 0.261
59.2674 5.667 0.243
59.2878 5.604 0.242
59.3083 6.365 0.257
59.3287 6.073 0.252
59.3492 5.646 0.243
59.3697 5.563 0.241
59.3901 5.115 0.231
59.4106 5.177 0.232
59.4311 4.885 0.226
59.4515 4.802 0.224
59.4720 4.615 0.219
59.4924 4.396 0.214
59.5129 4.188 0.209
59.5334 4.656 0.220
59.5538 4.490 0.216
59.5743 4.313 0.212
59.5948 4.698 0.221
59.6152 3.927 0.202
59.6357 4.292 0.211
59.6561 4.260 0.211
59.6766 4.125 0.207
59.6971 4.542 0.218
59.7175 4.906 0.226
59.7380 4.969 0.228
59.7585 5.115 0.231
59.7789 5.219 0.233
59.7994 5.948 0.249
59.8198 5.906 0.248
59.8403 6.219 0.255
59.8608 6.802 0.266
59.8812 6.333 0.257
59.9017 5.990 0.250
59.9222 5.302 0.235
59.9426 5.521 0.240
59.9631 5.469 0.239
59.9835 6.052 0.251
60.0040 5.656 0.243
60.0245 5.385 0.237
60.0449 5.531 0.240
60.0654 4.885 0.226
60.0859 4.771 0.223
60.1063 4.510 0.217
60.1268 4.604 0.219
60.1473 4.438 0.215
60.1677 4.240 0.210
60.1882 3.969 0.203
60.2086 3.969 0.203
60.2291 4.469 0.216
60.2496 4.427 0.215
60.2700 4.438 0.215
60.2905 4.146 0.208
60.3110 3.917 0.202
60.3314 4.000 0.204
60.3519 4.094 0.207
60.3723 3.990 0.204
60.3928 4.021 0.205
60.4133 3.510 0.191
60.4337 3.573 0.193
60.4542 3.563 0.193
60.4747 3.781 0.198
60.4951 3.646 0.195
60.5156 3.792 0.199
60.5360 3.875 0.201
60.5565 3.635 0.195
60.5770 3.750 0.198
60.5974 4.063 0.206
60.6179 4.271 0.211
60.6384 3.302 0.185
60.6588 3.917 0.202
60.6793 3.948 0.203
60.6997 3.677 0.196
60.7202 3.510 0.191
60.7407 3.865 0.201
60.7611 4.052 0.205
60.7816 3.875 0.201
60.8021 3.604 0.194
60.8225 3.510 0.191
60.8430 4.000 0.204
60.8634 3.802 0.199
60.8839 3.813 0.199
60.9044 3.802 0.199
60.9248 3.490 0.191
60.9453 3.927 0.202
60.9658 4.073 0.206
60.9862 3.760 0.198
61.0067 3.750 0.198
61.0272 3.635 0.195
61.0476 4.052 0.205
61.0681 3.604 0.194
61.0885 3.594 0.193
61.1090 3.729 0.197
61.1295 3.240 0.184
61.1499 3.531 0.192
61.1704 3.177 0.182
61.1909 3.292 0.185
61.2113 3.385 0.188
61.2318 3.542 0.192
61.2522 3.302 0.185
61.2727 3.667 0.195
61.2932 3.427 0.189
61.3136 3.240 0.184
61.3341 3.375 0.188
61.3546 3.635 0.195
61.3750 3.604 0.194
61.3955 3.469 0.190
61.4159 3.250 0.184
61.4364 3.188 0.182
61.4569 3.333 0.186
61.4773 3.406 0.188
61.4978 3.469 0.190
61.5183 3.646 0.195
61.5387 3.531 0.192
61.5592 3.813 0.199
61.5796 3.490 0.191
61.6001 3.563 0.193
61.6206 3.344 0.187
61.6410 3.656 0.195
61.6615 3.594 0.193
61.6820 3.542 0.192
61.7024 3.750 0.198
61.7229 3.604 0.194
61.7433 3.729 0.197
61.7638 3.573 0.193
61.7843 3.552 0.192
61.8047 3.156 0.181
61.8252 3.635 0.195
61.8457 3.438 0.189
61.8661 3.646 0.195
61.8866 3.365 0.187
61.9071 3.625 0.194
61.9275 3.438 0.189
61.9480 3.656 0.195
61.9684 3.740 0.197
61.9889 3.563 0.193
62.0094 3.823 0.200
62.0298 3.875 0.201
62.0503 4.000 0.204
62.0708 4.521 0.217
62.0912 4.646 0.220
62.1117 4.906 0.226
62.1321 4.792 0.223
62.1526 4.490 0.216
62.1731 4.042 0.205
62.1935 4.417 0.214
62.2140 4.083 0.206
62.2345 3.781 0.198
62.2549 4.156 0.208
62.2754 3.781 0.198
62.2958 4.406 0.214
62.3163 3.833 0.200
62.3368 3.917 0.202
62.3572 3.573 0.193
62.3777 3.865 0.201
62.3982 3.813 0.199
62.4186 3.646 0.195
62.4391 3.542 0.192
62.4595 3.771 0.198
62.4800 3.260 0.184
62.5005 3.375 0.188
62.5209 3.708 0.197
62.5414 3.469 0.190
62.5619 3.396 0.188
62.5823 3.250 0.184
62.6028 3.500 0.191
62.6232 3.281 0.185
62.6437 3.490 0.191
62.6642 3.531 0.192
62.6846 3.417 0.189
62.7051 3.375 0.188
62.7256 3.490 0.191
62.7460 3.458 0.190
62.7665 3.104 0.180
62.7870 3.229 0.183
62.8074 3.240 0.184
62.8279 3.688 0.196
62.8483 3.479 0.190
62.8688 3.427 0.189
62.8893 3.188 0.182
62.9097 3.135 0.181
62.9302 3.115 0.180
62.9507 3.635 0.195
62.9711 3.396 0.188
62.9916 3.646 0.195
63.0120 3.365 0.187
63.0325 3.271 0.185
63.0530 3.604 0.194
63.0734 3.500 0.191
63.0939 3.583 0.193
63.1144 3.719 0.197
63.1348 3.604 0.194
63.1553 3.427 0.189
63.1757 3.531 0.192
63.1962 3.354 0.187
63.2167 3.302 0.185
63.2371 3.823 0.200
63.2576 3.781 0.198
63.2781 3.729 0.197
63.2985 3.542 0.192
63.3190 3.438 0.189
63.3394 3.396 0.188
63.3599 3.833 0.200
63.3804 3.667 0.195
63.4008 3.781 0.198
63.4213 3.698 0.196
63.4418 3.740 0.197
63.4622 3.729 0.197
63.4827 3.552 0.192
63.5032 3.823 0.200
63.5236 4.094 0.207
63.5441 4.188 0.209
63.5645 4.198 0.209
63.5850 3.875 0.201
63.6055 3.990 0.204
63.6259 4.365 0.213
63.6464 4.260 0.211
63.6669 4.281 0.211
63.6873 4.406 0.214
63.7078 4.458 0.216
63.7282 4.125 0.207
63.7487 4.271 0.211
63.7692 4.115 0.207
63.7896 4.542 0.218
63.8101 4.740 0.222
63.8306 4.406 0.214
63.8510 4.427 0.215
63.8715 4.010 0.204
63.8919 4.448 0.215
63.9124 4.563 0.218
63.9329 4.042 0.205
63.9533 4.427 0.215
63.9738 4.896 0.226
63.9943 4.344 0.213
64.0147 5.010 0.228
64.0352 4.969 0.228
64.0556 4.594 0.219
64.0761 3.958 0.203
64.0966 4.219 0.210
64.1170 4.281 0.211
64.1375 4.479 0.216
64.1580 4.646 0.220
64.1784 4.313 0.212
64.1989 4.313 0.212
64.2193 4.750 0.222
64.2398 4.573 0.218
64.2603 4.604 0.219
64.2807 4.448 0.215
64.3012 4.333 0.212
64.3217 4.292 0.211
64.3421 4.323 0.212
64.3626 4.677 0.221
64.3831 4.625 0.219
64.4035 4.156 0.208
64.4240 4.240 0.210
64.4444 4.875 0.225
64.4649 4.781 0.223
64.4854 5.125 0.231
64.5058 4.927 0.227
64.5263 5.219 0.233
64.5468 6.156 0.253
64.5672 6.344 0.257
64.5877 7.073 0.271
64.6081 7.438 0.278
64.6286 7.344 0.277
64.6491 7.667 0.283
64.6695 6.729 0.265
64.6900 6.531 0.261
64.7105 6.354 0.257
64.7309 6.406 0.258
64.7514 5.594 0.241
64.7718 6.167 0.253
64.7923 6.208 0.254
64.8128 6.438 0.259
64.8332 5.844 0.247
64.8537 5.677 0.243
64.8742 5.229 0.233
64.8946 5.115 0.231
64.9151 4.604 0.219
64.9355 4.427 0.215
64.9560 4.646 0.220
64.9765 4.646 0.220
64.9969 4.156 0.208
65.0174 3.927 0.202
65.0379 4.125 0.207
65.0583 4.177 0.209
65.0788 3.667 0.195
65.0992 3.781 0.198
65.1197 3.729 0.197
65.1402 3.719 0.197
65.1606 3.979 0.204
65.1811 3.969 0.203
65.2016 3.760 0.198
65.2220 3.854 0.200
65.2425 3.656 0.195
65.2630 3.677 0.196
65.2834 3.583 0.193
65.3039 3.719 0.197
65.3243 3.833 0.200
65.3448 3.698 0.196
65.3653 3.875 0.201
65.3857 3.990 0.204
65.4062 3.802 0.199
65.4267 3.802 0.199
65.4471 4.677 0.221
65.4676 4.219 0.210
65.4880 3.927 0.202
65.5085 4.521 0.217
65.5290 4.656 0.220
65.5494 5.146 0.232
65.5699 5.313 0.235
65.5904 4.635 0.220
65.6108 4.406 0.214
65.6313 4.469 0.216
65.6517 4.354 0.213
65.6722 4.688 0.221
65.6927 4.229 0.210
65.7131 4.240 0.210
65.7336 4.917 0.226
65.7541 4.490 0.216
65.7745 4.083 0.206
65.7950 4.010 0.204
65.8154 3.833 0.200
65.8359 3.792 0.199
65.8564 3.542 0.192
65.8768 3.688 0.196
65.8973 3.531 0.192
65.9178 3.510 0.191
65.9382 3.625 0.194
65.9587 3.344 0.187
65.9791 3.542 0.192
65.9996 3.615 0.194
66.0201 3.396 0.188
66.0405 3.490 0.191
66.0610 3.760 0.198
66.0815 3.375 0.188
66.1019 3.625 0.194
66.1224 3.448 0.190
66.1429 3.354 0.187
66.1633 3.552 0.192
66.1838 3.563 0.193
66.2042 3.396 0.188
66.2247 3.156 0.181
66.2452 3.760 0.198
66.2656 3.635 0.195
66.2861 3.792 0.199
66.3066 3.708 0.197
66.3270 3.802 0.199
66.3475 3.563 0.193
66.3679 3.198 0.183
66.3884 3.500 0.191
66.4089 3.417 0.189
66.4293 3.792 0.199
66.4498 3.635 0.195
66.4703 3.604 0.194
66.4907 3.594 0.193
66.5112 3.260 0.184
66.5316 3.354 0.187
66.5521 3.490 0.191
66.5726 3.260 0.184
66.5930 3.677 0.196
66.6135 3.510 0.191
66.6340 3.375 0.188
66.6544 3.385 0.188
66.6749 3.635 0.195
66.6953 3.365 0.187
66.7158 3.875 0.201
66.7363 3.823 0.200
66.7567 3.646 0.195
66.7772 3.354 0.187
66.7977 3.833 0.200
66.8181 3.448 0.190
66.8386 3.990 0.204
66.8590 3.771 0.198
66.8795 4.229 0.210
66.9000 4.021 0.205
66.9204 4.000 0.204
66.9409 3.740 0.197
66.9614 4.250 0.210
66.9818 4.656 0.220
67.0023 4.646 0.220
67.0228 5.260 0.234
67.0432 5.615 0.242
67.0637 5.625 0.242
67.0841 6.396 0.258
67.1046 7.188 0.274
67.1251 7.854 0.286
67.1455 8.677 0.301
67.1660 8.240 0.293
67.1865 7.167 0.273
67.2069 6.698 0.264
67.2274 6.073 0.252
67.2478 6.260 0.255
67.2683 6.115 0.252
67.2888 6.302 0.256
67.3092 6.281 0.256
67.3297 6.208 0.254
67.3502 6.385 0.258
67.3706 5.823 0.246
67.3911 5.458 0.238
67.4115 5.208 0.233
67.4320 4.802 0.224
67.4525 4.813 0.224
67.4729 4.240 0.210
67.4934 4.260 0.211
67.5139 4.271 0.211
67.5343 4.250 0.210
67.5548 3.979 0.204
67.5752 4.115 0.207
67.5957 3.708 0.197
67.6162 3.938 0.203
67.6366 4.406 0.214
67.6571 4.063 0.206
67.6776 4.313 0.212
67.6980 3.594 0.193
67.7185 4.240 0.210
67.7389 4.552 0.218
67.7594 4.240 0.210
67.7799 4.240 0.210
67.8003 4.010 0.204
67.8208 3.719 0.197
67.8413 3.781 0.198
67.8617 4.010 0.204
67.8822 3.979 0.204
67.9027 4.156 0.208
67.9231 3.990 0.204
67.9436 3.833 0.200
67.9640 3.844 0.200
67.9845 3.948 0.203
68.0050 3.823 0.200
68.0254 4.313 0.212
68.0459 4.323 0.212
68.0664 4.177 0.209
68.0868 4.073 0.206
68.1073 3.854 0.200
68.1277 3.844 0.200
68.1482 4.323 0.212
68.1687 3.990 0.204
68.1891 4.219 0.210
68.2096 3.990 0.204
68.2301 4.135 0.208
68.2505 4.333 0.212
68.2710 4.438 0.215
68.2914 4.646 0.220
68.3119 4.865 0.225
68.3324 5.063 0.230
68.3528 5.083 0.230
68.3733 4.719 0.222
68.3938 4.052 0.205
68.4142 4.135 0.208
68.4347 4.365 0.213
68.4551 4.198 0.209
68.4756 4.365 0.213
68.4961 4.271 0.211
68.5165 3.885 0.201
68.5370 4.125 0.207
68.5575 3.823 0.200
68.5779 3.500 0.191
68.5984 3.813 0.199
68.6189 3.646 0.195
68.6393 3.500 0.191
68.6598 3.396 0.188
68.6802 3.469 0.190
68.7007 3.510 0.191
68.7212 3.563 0.193
68.7416 3.510 0.191
68.7621 3.229 0.183
68.7826 3.958 0.203
68.8030 3.802 0.199
68.8235 3.615 0.194
68.8439 3.604 0.194
68.8644 3.833 0.200
68.8849 3.802 0.199
68.9053 3.635 0.195
68.9258 4.375 0.213
68.9463 3.771 0.198
68.9667 4.573 0.218
68.9872 4.719 0.222
69.0076 4.500 0.217
69.0281 4.313 0.212
69.0486 4.406 0.214
69.0690 4.219 0.210
69.0895 4.333 0.212
69.1100 3.927 0.202
69.1304 4.490 0.216
69.1509 4.354 0.213
69.1713 4.333 0.212
69.1918 4.177 0.209
69.2123 4.406 0.214
69.2327 4.510 0.217
69.2532 4.490 0.216
69.2737 3.948 0.203
69.2941 4.021 0.205
69.3146 3.646 0.195
69.3350 3.594 0.193
69.3555 3.479 0.190
69.3760 3.604 0.194
69.3964 3.583 0.193
69.4169 3.802 0.199
69.4374 3.333 0.186
69.4578 3.760 0.198
69.4783 3.635 0.195
69.4988 3.240 0.184
69.5192 3.156 0.181
69.5397 3.375 0.188
69.5601 3.052 0.178
69.5806 3.271 0.185
69.6011 3.031 0.178
69.6215 2.833 0.172
69.6420 2.813 0.171
69.6625 2.917 0.174
69.6829 3.188 0.182
69.7034 3.188 0.182
69.7238 3.354 0.187
69.7443 3.292 0.185
69.7648 2.740 0.169
69.7852 3.125 0.180
69.8057 2.938 0.175
69.8262 2.771 0.170
69.8466 2.844 0.172
69.8671 3.229 0.183
69.8875 2.906 0.174
69.9080 2.979 0.176
69.9285 2.917 0.174
69.9489 2.958 0.176
69.9694 2.865 0.173
69.9899 2.958 0.176
70.0103 3.125 0.180
70.0308 3.240 0.184
70.0512 3.042 0.178
70.0717 2.771 0.170
70.0922 2.885 0.173
70.1126 2.969 0.176
70.1331 2.771 0.170
70.1536 2.792 0.171
70.1740 2.396 0.158
70.1945 2.563 0.163
70.2149 2.823 0.171
70.2354 3.135 0.181
70.2559 3.021 0.177
70.2763 3.250 0.184
70.2968 2.969 0.176
70.3173 3.021 0.177
70.3377 2.760 0.170
70.3582 2.844 0.172
70.3787 3.021 0.177
70.3991 3.042 0.178
70.4196 3.000 0.177
70.4400 2.875 0.173
70.4605 2.854 0.172
70.4810 2.740 0.169
70.5014 2.875 0.173
70.5219 3.042 0.178
70.5424 2.844 0.172
70.5628 3.115 0.180
70.5833 3.052 0.178
70.6037 3.104 0.180
70.6242 2.698 0.168
70.6447 2.917 0.174
70.6651 3.167 0.182
70.6856 2.969 0.176
70.7061 3.052 0.178
70.7265 2.854 0.172
70.7470 2.792 0.171
70.7674 2.854 0.172
70.7879 2.906 0.174
70.8084 2.958 0.176
70.8288 2.917 0.174
70.8493 2.823 0.171
70.8698 3.042 0.178
70.8902 2.781 0.170
70.9107 3.000 0.177
70.9311 3.010 0.177
70.9516 2.833 0.172
70.9721 2.969 0.176
70.9925 2.771 0.170
71.0130 2.875 0.173
71.0335 3.271 0.185
71.0539 2.927 0.175
71.0744 2.938 0.175
71.0948 3.000 0.177
71.1153 3.271 0.185
71.1358 3.167 0.182
71.1562 2.729 0.169
71.1767 3.125 0.180
71.1972 2.802 0.171
71.2176 2.646 0.166
71.2381 2.979 0.176
71.2586 2.844 0.172
71.2790 2.698 0.168
71.2995 2.948 0.175
71.3199 3.208 0.183
71.3404 2.979 0.176
71.3609 2.927 0.175
71.3813 2.990 0.176
71.4018 2.625 0.165
71.4223 2.563 0.163
71.4427 2.917 0.174
71.4632 2.771 0.170
71.4836 2.313 0.155
71.5041 2.813 0.171
71.5246 2.750 0.169
71.5450 2.625 0.165
71.5655 2.802 0.171
71.5860 2.688 0.167
71.6064 3.094 0.180
71.6269 2.760 0.170
71.6473 2.365 0.157
71.6678 2.656 0.166
71.6883 2.563 0.163
71.7087 2.479 0.161
71.7292 3.010 0.177
71.7497 2.510 0.162
71.7701 2.573 0.164
71.7906 2.458 0.160
71.8110 2.604 0.165
71.8315 2.635 0.166
71.8520 2.646 0.166
71.8724 2.594 0.164
71.8929 2.740 0.169
71.9134 2.531 0.162
71.9338 2.646 0.166
71.9543 2.854 0.172
71.9747 2.396 0.158
71.9952 2.625 0.165
72.0157 2.875 0.173
72.0361 2.583 0.164
72.0566 2.625 0.165
72.0771 2.219 0.152
72.0975 2.677 0.167
72.1180 2.313 0.155
72.1385 2.583 0.164
72.1589 2.688 0.167
72.1794 2.135 0.149
72.1998 2.406 0.158
72.2203 2.635 0.166
72.2408 2.833 0.172
72.2612 2.396 0.158
72.2817 2.688 0.167
72.3022 2.448 0.160
72.3226 2.563 0.163
72.3431 2.625 0.165
72.3635 2.656 0.166
72.3840 2.521 0.162
72.4045 2.635 0.166
72.4249 2.813 0.171
72.4454 2.417 0.159
72.4659 2.656 0.166
72.4863 2.510 0.162
72.5068 2.635 0.166
72.5272 2.531 0.162
72.5477 2.698 0.168
72.5682 2.594 0.164
72.5886 2.531 0.162
72.6091 2.688 0.167
72.6296 2.677 0.167
72.6500 2.500 0.161
72.6705 2.844 0.172
72.6909 2.792 0.171
72.7114 2.927 0.175
72.7319 3.135 0.181
72.7523 2.698 0.168
72.7728 2.885 0.173
72.7933 3.375 0.188
72.8137 3.146 0.181
72.8342 3.000 0.177
72.8547 2.896 0.174
72.8751 3.208 0.183
72.8956 2.760 0.170
72.9160 2.729 0.169
72.9365 3.104 0.180
72.9570 3.146 0.181
72.9774 2.885 0.173
72.9979 2.938 0.175
73.0184 2.865 0.173
73.0388 2.729 0.169
73.0593 2.760 0.170
73.0797 3.073 0.179
73.1002 2.740 0.169
73.1207 2.615 0.165
73.1411 2.594 0.164
73.1616 2.385 0.158
73.1821 2.323 0.156
73.2025 2.563 0.163
73.2230 2.646 0.166
73.2434 2.385 0.158
73.2639 2.406 0.158
73.2844 2.615 0.165
73.3048 2.469 0.160
73.3253 2.479 0.161
73.3458 2.573 0.164
73.3662 2.375 0.157
73.3867 2.469 0.160
73.4071 2.552 0.163
73.4276 2.198 0.151
73.4481 2.729 0.169
73.4685 2.646 0.166
73.4890 2.365 0.157
73.5095 2.417 0.159
73.5299 2.458 0.160
73.5504 2.490 0.161
73.5708 2.344 0.156
73.5913 2.417 0.159
73.6118 2.448 0.160
73.6322 2.333 0.156
73.6527 2.396 0.158
73.6732 2.469 0.160
73.6936 2.188 0.151
73.7141 2.021 0.145
73.7346 2.344 0.156
73.7550 2.260 0.153
73.7755 2.167 0.150
73.7959 2.073 0.147
73.8164 2.281 0.154
73.8369 2.469 0.160
73.8573 2.188 0.151
73.8778 2.292 0.155
73.8983 2.281 0.154
73.9187 2.427 0.159
73.9392 2.510 0.162
73.9596 2.302 0.155
73.9801 2.344 0.156
74.0006 2.542 0.163
74.0210 2.573 0.164
74.0415 2.396 0.158
74.0620 2.563 0.163
74.0824 2.698 0.168
74.1029 2.260 0.153
74.1233 2.521 0.162
74.1438 2.563 0.163
74.1643 2.281 0.154
74.1847 2.594 0.164
74.2052 2.500 0.161
74.2257 2.427 0.159
74.2461 2.583 0.164
74.2666 2.646 0.166
74.2870 2.438 0.159
74.3075 2.375 0.157
74.3280 2.521 0.162
74.3484 2.385 0.158
74.3689 2.563 0.163
74.3894 2.729 0.169
74.4098 2.344 0.156
74.4303 2.708 0.168
74.4507 2.417 0.159
74.4712 2.167 0.150
74.4917 2.313 0.155
74.5121 2.365 0.157
74.5326 2.302 0.155
74.5531 1.969 0.143
74.5735 2.323 0.156
74.5940 2.219 0.152
74.6145 2.635 0.166
74.6349 2.302 0.155
74.6554 2.469 0.160
74.6758 2.521 0.162
74.6963 2.677 0.167
74.7168 2.104 0.148
74.7372 2.396 0.158
74.7577 2.281 0.154
74.7782 2.021 0.145
74.7986 2.125 0.149
74.8191 2.385 0.158
74.8395 2.667 0.167
74.8600 2.521 0.162
74.8805 2.510 0.162
74.9009 2.490 0.161
74.9214 2.302 0.155
74.9419 2.125 0.149
74.9623 2.615 0.165
74.9828 2.302 0.155
75.0032 2.458 0.160
75.0237 2.396 0.158
75.0442 2.510 0.162
75.0646 2.188 0.151
75.0851 2.125 0.149
75.1056 2.302 0.155
75.1260 2.469 0.160
75.1465 2.500 0.161
75.1669 2.271 0.154
75.1874 2.313 0.155
75.2079 2.208 0.152
75.2283 2.510 0.162
75.2488 2.292 0.155
75.2693 2.375 0.157
75.2897 2.188 0.151
75.3102 2.302 0.155
75.3306 2.354 0.157
75.3511 2.531 0.162
75.3716 2.781 0.170
75.3920 2.583 0.164
75.4125 2.469 0.160
75.4330 2.510 0.162
75.4534 2.646 0.166
75.4739 2.635 0.166
75.4944 2.615 0.165
75.5148 2.677 0.167
75.5353 2.500 0.161
75.5557 2.917 0.174
75.5762 2.521 0.162
75.5967 2.771 0.170
75.6171 2.865 0.173
75.6376 2.729 0.169
75.6581 3.073 0.179
75.6785 3.271 0.185
75.6990 3.531 0.192
75.7194 3.219 0.183
75.7399 3.240 0.184
75.7604 3.521 0.192
75.7808 4.042 0.205
75.8013 3.979 0.204
75.8218 3.969 0.203
75.8422 3.885 0.201
75.8627 3.188 0.182
75.8831 3.104 0.180
75.9036 3.271 0.185
75.9241 3.344 0.187
75.9445 3.479 0.190
75.9650 3.281 0.185
75.9855 3.000 0.177
76.0059 3.427 0.189
76.0264 3.229 0.183
76.0468 3.385 0.188
76.0673 3.250 0.184
76.0878 3.104 0.180
76.1082 2.979 0.176
76.1287 2.875 0.173
76.1492 2.969 0.176
76.1696 3.125 0.180
76.1901 2.677 0.167
76.2105 2.760 0.170
76.2310 2.396 0.158
76.2515 2.552 0.163
76.2719 2.552 0.163
76.2924 2.240 0.153
76.3129 2.667 0.167
76.3333 2.438 0.159
76.3538 2.656 0.166
76.3743 2.448 0.160
76.3947 2.448 0.160
76.4152 2.646 0.166
76.4356 2.844 0.172
76.4561 2.563 0.163
76.4766 2.479 0.161
76.4970 2.448 0.160
76.5175 2.406 0.158
76.5380 2.573 0.164
76.5584 2.885 0.173
76.5789 2.635 0.166
76.5993 2.333 0.156
76.6198 2.760 0.170
76.6403 2.167 0.150
76.6607 2.948 0.175
76.6812 2.583 0.164
76.7017 2.479 0.161
76.7221 2.625 0.165
76.7426 2.479 0.161
76.7630 2.552 0.163
76.7835 2.396 0.158
76.8040 2.458 0.160
76.8244 2.219 0.152
76.8449 2.323 0.156
76.8654 2.542 0.163
76.8858 2.396 0.158
76.9063 2.396 0.158
76.9267 2.344 0.156
76.9472 2.302 0.155
76.9677 2.563 0.163
76.9881 2.604 0.165
77.0086 2.406 0.158
77.0291 2.427 0.159
77.0495 2.250 0.153
77.0700 2.552 0.163
77.0905 2.521 0.162
77.1109 2.521 0.162
77.1314 2.521 0.162
77.1518 2.323 0.156
77.1723 2.500 0.161
77.1928 2.552 0.163
77.2132 2.594 0.164
77.2337 2.677 0.167
77.2542 2.490 0.161
77.2746 2.708 0.168
77.2951 2.938 0.175
77.3155 2.552 0.163
77.3360 2.865 0.173
77.3565 2.760 0.170
77.3769 2.729 0.169
77.3974 2.510 0.162
77.4179 2.646 0.166
77.4383 2.656 0.166
77.4588 2.677 0.167
77.4792 3.115 0.180
77.4997 3.115 0.180
77.5202 3.219 0.183
77.5406 3.250 0.184
77.5611 2.938 0.175
77.5816 3.156 0.181
77.6020 2.521 0.162
77.6225 3.021 0.177
77.6429 3.135 0.181
77.6634 2.427 0.159
77.6839 3.042 0.178
77.7043 3.438 0.189
77.7248 3.021 0.177
77.7453 2.958 0.176
77.7657 2.885 0.173
77.7862 3.073 0.179
77.8066 2.990 0.176
77.8271 2.802 0.171
77.8476 3.031 0.178
77.8680 3.063 0.179
77.8885 3.094 0.180
77.9090 3.406 0.188
77.9294 3.073 0.179
77.9499 2.667 0.167
77.9704 2.635 0.166
77.9908 3.042 0.178
78.0113 3.010 0.177
78.0317 2.792 0.171
78.0522 2.948 0.175
78.0727 2.740 0.169
78.0931 2.521 0.162
78.1136 2.917 0.174
78.1341 2.781 0.170
78.1545 2.938 0.175
78.1750 2.750 0.169
78.1954 2.635 0.166
78.2159 2.740 0.169
78.2364 2.500 0.161
78.2568 2.802 0.171
78.2773 2.802 0.171
78.2978 2.906 0.174
78.3182 2.656 0.166
78.3387 2.792 0.171
78.3591 2.979 0.176
78.3796 2.698 0.168
78.4001 3.042 0.178
78.4205 2.979 0.176
78.4410 3.073 0.179
78.4615 2.844 0.172
78.4819 2.635 0.166
78.5024 2.667 0.167
78.5228 2.698 0.168
78.5433 2.479 0.161
78.5638 3.073 0.179
78.5842 2.760 0.170
78.6047 2.833 0.172
78.6252 2.719 0.168
78.6456 2.833 0.172
78.6661 2.927 0.175
78.6865 2.938 0.175
78.7070 2.979 0.176
78.7275 2.479 0.161
78.7479 2.750 0.169
78.7684 2.406 0.158
78.7889 2.688 0.167
78.8093 3.010 0.177
78.8298 2.844 0.172
78.8503 2.677 0.167
78.8707 2.938 0.175
78.8912 2.625 0.165
78.9116 2.646 0.166
78.9321 2.771 0.170
78.9526 3.115 0.180
78.9730 2.635 0.166
78.9935 2.688 0.167
79.0140 2.844 0.172
79.0344 2.958 0.176
79.0549 2.615 0.165
79.0753 2.708 0.168
79.0958 2.635 0.166
79.1163 2.875 0.173
79.1367 2.917 0.174
79.1572 2.719 0.168
79.1777 2.865 0.173
79.1981 2.823 0.171
79.2186 2.844 0.172
79.2390 2.760 0.170
79.2595 2.708 0.168
79.2800 2.917 0.174
79.3004 2.969 0.176
79.3209 2.552 0.163
79.3414 2.708 0.168
79.3618 2.781 0.170
79.3823 2.802 0.171
79.4027 2.927 0.175
79.4232 2.740 0.169
79.4437 3.177 0.182
79.4641 3.073 0.179
79.4846 2.958 0.176
79.5051 3.198 0.183
79.5255 3.323 0.186
79.5460 3.052 0.178
79.5664 3.021 0.177
79.5869 2.938 0.175
79.6074 2.740 0.169
79.6278 3.146 0.181
79.6483 2.677 0.167
79.6688 2.615 0.165
79.6892 2.927 0.175
79.7097 2.719 0.168
79.7302 2.927 0.175
79.7506 3.156 0.181
79.7711 2.844 0.172
79.7915 2.625 0.165
79.8120 2.792 0.171
79.8325 2.844 0.172
79.8529 2.750 0.169
79.8734 2.604 0.165
79.8939 2.781 0.170
79.9143 2.615 0.165
79.9348 2.688 0.167
79.9552 2.813 0.171
79.9757 2.531 0.162
79.9962 2.938 0.175
