'Id: "" Comment: "" Operator: "Lab Manager" Anode: "Cu" Scantype: "Locked Coupled" TimePerStep: "96" X: "0" Y: "0" Z: "0" 
5.0000 23.844 0.498
5.0205 22.250 0.481
5.0409 23.490 0.495
5.0614 22.958 0.489
5.0819 23.240 0.492
5.1023 22.740 0.487
5.1228 22.781 0.487
5.1432 22.448 0.484
5.1637 22.500 0.484
5.1842 22.427 0.483
5.2046 22.625 0.485
5.2251 22.750 0.487
5.2456 22.417 0.483
5.2660 22.740 0.487
5.2865 22.354 0.483
5.3069 21.844 0.477
5.3274 21.896 0.478
5.3479 21.990 0.479
5.3683 21.823 0.477
5.3888 22.000 0.479
5.4093 22.906 0.488
5.4297 21.344 0.472
5.4502 21.250 0.470
5.4706 21.229 0.470
5.4911 21.573 0.474
5.5116 21.063 0.468
5.5320 22.031 0.479
5.5525 21.198 0.470
5.5730 21.167 0.470
5.5934 20.875 0.466
5.6139 21.740 0.476
5.6343 20.604 0.463
5.6548 20.979 0.467
5.6753 21.229 0.470
5.6957 21.031 0.468
5.7162 20.740 0.465
5.7367 20.125 0.458
5.7571 21.583 0.474
5.7776 21.323 0.471
5.7980 20.781 0.465
5.8185 19.875 0.455
5.8390 21.167 0.470
5.8594 20.542 0.463
5.8799 19.969 0.456
5.9004 19.833 0.455
5.9208 20.031 0.457
5.9413 19.448 0.450
5.9618 19.656 0.452
5.9822 19.781 0.454
6.0027 20.604 0.463
6.0231 20.552 0.463
6.0436 20.135 0.458
6.0641 19.906 0.455
6.0845 20.219 0.459
6.1050 19.656 0.452
6.1255 19.844 0.455
6.1459 19.240 0.448
6.1664 19.750 0.454
6.1868 19.552 0.451
6.2073 19.542 0.451
6.2278 19.302 0.448
6.2482 19.865 0.455
6.2687 20.156 0.458
6.2892 20.083 0.457
6.3096 19.302 0.448
6.3301 20.375 0.461
6.3505 19.552 0.451
6.3710 19.760 0.454
6.3915 19.458 0.450
6.4119 19.917 0.455
6.4324 19.323 0.449
6.4529 19.740 0.453
6.4733 20.198 0.459
6.4938 19.292 0.448
6.5142 19.677 0.453
6.5347 19.333 0.449
6.5552 19.740 0.453
6.5756 19.583 0.452
6.5961 19.104 0.446
6.6166 19.542 0.451
6.6370 19.229 0.448
6.6575 18.813 0.443
6.6779 19.104 0.446
6.6984 19.323 0.449
6.7189 18.844 0.443
6.7393 19.313 0.449
6.7598 18.552 0.440
6.7803 19.531 0.451
6.8007 18.490 0.439
6.8212 19.063 0.446
6.8417 19.323 0.449
6.8621 18.500 0.439
6.8826 17.906 0.432
6.9030 19.219 0.447
6.9235 19.177 0.447
6.9440 18.708 0.441
6.9644 18.438 0.438
6.9849 18.698 0.441
7.0054 19.104 0.446
7.0258 18.615 0.440
7.0463 19.458 0.450
7.0667 19.188 0.447
7.0872 18.885 0.444
7.1077 18.354 0.437
7.1281 19.135 0.446
7.1486 19.010 0.445
7.1691 19.146 0.447
7.1895 18.740 0.442
7.2100 19.073 0.446
7.2304 18.135 0.435
7.2509 18.135 0.435
7.2714 18.000 0.433
7.2918 18.604 0.440
7.3123 19.031 0.445
7.3328 18.656 0.441
7.3532 19.104 0.446
7.3737 19.135 0.446
7.3941 18.802 0.443
7.4146 18.521 0.439
7.4351 18.177 0.435
7.4555 18.771 0.442
7.4760 18.719 0.442
7.4965 19.302 0.448
7.5169 19.125 0.446
7.5374 19.760 0.454
7.5579 19.250 0.448
7.5783 19.042 0.445
7.5988 19.177 0.447
7.6192 18.958 0.444
7.6397 19.375 0.449
7.6602 19.198 0.447
7.6806 18.760 0.442
7.7011 18.781 0.442
7.7216 18.958 0.444
7.7420 19.250 0.448
7.7625 19.865 0.455
7.7829 19.438 0.450
7.8034 19.344 0.449
7.8239 18.875 0.443
7.8443 18.979 0.445
7.8648 18.750 0.442
7.8853 19.719 0.453
7.9057 20.104 0.458
7.9262 18.896 0.444
7.9466 20.094 0.458
7.9671 20.469 0.462
7.9876 19.927 0.456
8.0080 19.729 0.453
8.0285 20.323 0.460
8.0490 20.125 0.458
8.0694 19.333 0.449
8.0899 19.365 0.449
8.1103 19.771 0.454
8.1308 18.510 0.439
8.1513 19.948 0.456
8.1717 19.875 0.455
8.1922 19.740 0.453
8.2127 19.708 0.453
8.2331 20.458 0.462
8.2536 20.219 0.459
8.2740 20.510 0.462
8.2945 20.396 0.461
8.3150 20.938 0.467
8.3354 20.781 0.465
8.3559 20.927 0.467
8.3764 21.427 0.472
8.3968 22.083 0.480
8.4173 20.969 0.467
8.4378 20.813 0.466
8.4582 19.708 0.453
8.4787 20.479 0.462
8.4991 20.708 0.464
8.5196 21.260 0.471
8.5401 20.563 0.463
8.5605 21.031 0.468
8.5810 20.969 0.467
8.6015 20.948 0.467
8.6219 21.042 0.468
8.6424 20.438 0.461
8.6628 20.844 0.466
8.6833 20.979 0.467
8.7038 22.323 0.482
8.7242 22.656 0.486
8.7447 22.219 0.481
8.7652 22.052 0.479
8.7856 23.552 0.495
8.8061 23.688 0.497
8.8265 25.073 0.511
8.8470 24.729 0.508
8.8675 25.917 0.520
8.8879 26.406 0.524
8.9084 28.844 0.548
8.9289 30.750 0.566
8.9493 32.448 0.581
8.9698 34.250 0.597
8.9902 38.208 0.631
9.0107 41.698 0.659
9.0312 46.229 0.694
9.0516 53.000 0.743
9.0721 59.896 0.790
9.0926 68.375 0.844
9.1130 77.896 0.901
9.1335 83.208 0.931
9.1539 82.646 0.928
9.1744 93.906 0.989
9.1949 114.708 1.093
9.2153 158.885 1.286
9.2358 229.521 1.546
9.2563 362.406 1.943
9.2767 566.094 2.428
9.2972 775.573 2.842
9.3177 769.531 2.831
9.3381 547.271 2.388
9.3586 352.656 1.917
9.3790 251.094 1.617
9.3995 207.406 1.470
9.4200 182.719 1.380
9.4404 172.385 1.340
9.4609 166.542 1.317
9.4814 165.240 1.312
9.5018 167.490 1.321
9.5223 172.677 1.341
9.5427 178.979 1.365
9.5632 191.510 1.412
9.5837 202.542 1.453
9.6041 217.229 1.504
9.6246 234.365 1.562
9.6451 249.771 1.613
9.6655 267.208 1.668
9.6860 289.063 1.735
9.7064 308.990 1.794
9.7269 333.167 1.863
9.7474 370.406 1.964
9.7678 410.844 2.069
9.7883 484.125 2.246
9.8088 567.667 2.432
9.8292 700.833 2.702
9.8497 910.323 3.079
9.8701 1209.219 3.549
9.8906 1562.073 4.034
9.9111 1723.083 4.237
9.9315 1262.417 3.626
9.9520 657.552 2.617
9.9725 323.792 1.837
9.9929 216.969 1.503
10.0134 173.156 1.343
10.0338 147.073 1.238
10.0543 130.885 1.168
10.0748 117.073 1.104
10.0952 106.917 1.055
10.1157 98.000 1.010
10.1362 90.635 0.972
10.1566 81.365 0.921
10.1771 72.667 0.870
10.1976 64.896 0.822
10.2180 61.917 0.803
10.2385 57.635 0.775
10.2589 54.656 0.755
10.2794 52.792 0.742
10.2999 50.594 0.726
10.3203 50.094 0.722
10.3408 47.802 0.706
10.3613 46.646 0.697
10.3817 47.375 0.702
10.4022 45.479 0.688
10.4226 45.917 0.692
10.4431 43.813 0.676
10.4636 43.958 0.677
10.4840 42.573 0.666
10.5045 40.208 0.647
10.5250 39.427 0.641
10.5454 38.781 0.636
10.5659 37.865 0.628
10.5863 37.292 0.623
10.6068 36.188 0.614
10.6273 35.146 0.605
10.6477 34.740 0.602
10.6682 34.656 0.601
10.6887 34.469 0.599
10.7091 33.563 0.591
10.7296 33.115 0.587
10.7500 31.792 0.575
10.7705 32.479 0.582
10.7910 32.490 0.582
10.8114 30.469 0.563
10.8319 30.833 0.567
10.8524 30.531 0.564
10.8728 30.719 0.566
10.8933 30.906 0.567
10.9137 30.917 0.567
10.9342 31.771 0.575
10.9547 31.875 0.576
10.9751 31.708 0.575
10.9956 31.375 0.572
11.0161 29.094 0.551
11.0365 27.094 0.531
11.0570 26.417 0.525
11.0775 24.479 0.505
11.0979 24.271 0.503
11.1184 23.302 0.493
11.1388 22.583 0.485
11.1593 23.135 0.491
11.1798 22.990 0.489
11.2002 23.250 0.492
11.2207 22.594 0.485
11.2412 21.500 0.473
11.2616 21.948 0.478
11.2821 21.969 0.478
11.3025 22.333 0.482
11.3230 21.313 0.471
11.3435 20.750 0.465
11.3639 20.219 0.459
11.3844 20.344 0.460
11.4049 20.573 0.463
11.4253 19.990 0.456
11.4458 19.688 0.453
11.4662 19.938 0.456
11.4867 18.917 0.444
11.5072 18.729 0.442
11.5276 19.135 0.446
11.5481 19.917 0.455
11.5686 18.979 0.445
11.5890 19.438 0.450
11.6095 18.948 0.444
11.6299 18.958 0.444
11.6504 18.729 0.442
11.6709 19.198 0.447
11.6913 18.531 0.439
11.7118 17.719 0.430
11.7323 18.583 0.440
11.7527 17.771 0.430
11.7732 17.781 0.430
11.7937 17.188 0.423
11.8141 17.958 0.433
11.8346 16.625 0.416
11.8550 16.500 0.415
11.8755 16.615 0.416
11.8960 16.177 0.411
11.9164 16.448 0.414
11.9369 15.448 0.401
11.9574 16.781 0.418
11.9778 16.063 0.409
11.9983 15.063 0.396
12.0187 15.615 0.403
12.0392 15.979 0.408
12.0597 15.031 0.396
12.0801 15.885 0.407
12.1006 14.958 0.395
12.1211 15.854 0.406
12.1415 15.625 0.403
12.1620 14.677 0.391
12.1824 15.375 0.400
12.2029 14.781 0.392
12.2234 15.479 0.402
12.2438 15.677 0.404
12.2643 15.104 0.397
12.2848 15.365 0.400
12.3052 14.688 0.391
12.3257 14.979 0.395
12.3461 14.427 0.388
12.3666 14.438 0.388
12.3871 14.594 0.390
12.4075 14.833 0.393
12.4280 14.625 0.390
12.4485 15.573 0.403
12.4689 13.833 0.380
12.4894 13.771 0.379
12.5098 13.875 0.380
12.5303 13.635 0.377
12.5508 13.854 0.380
12.5712 14.083 0.383
12.5917 14.135 0.384
12.6122 14.229 0.385
12.6326 12.510 0.361
12.6531 13.823 0.379
12.6736 13.177 0.370
12.6940 12.635 0.363
12.7145 13.781 0.379
12.7349 12.719 0.364
12.7554 13.198 0.371
12.7759 13.052 0.369
12.7963 12.552 0.362
12.8168 12.396 0.359
12.8373 13.271 0.372
12.8577 12.240 0.357
12.8782 12.677 0.363
12.8986 12.510 0.361
12.9191 12.135 0.356
12.9396 11.948 0.353
12.9600 12.240 0.357
12.9805 11.958 0.353
13.0010 12.313 0.358
13.0214 12.094 0.355
13.0419 12.260 0.357
13.0623 12.063 0.354
13.0828 11.500 0.346
13.1033 12.000 0.354
13.1237 11.719 0.349
13.1442 12.427 0.360
13.1647 11.635 0.348
13.1851 11.406 0.345
13.2056 11.563 0.347
13.2260 12.000 0.354
13.2465 12.427 0.360
13.2670 12.333 0.358
13.2874 11.479 0.346
13.3079 11.427 0.345
13.3284 12.333 0.358
13.3488 11.927 0.352
13.3693 11.750 0.350
13.3897 11.302 0.343
13.4102 11.469 0.346
13.4307 11.396 0.345
13.4511 11.448 0.345
13.4716 10.927 0.337
13.4921 10.885 0.337
13.5125 11.104 0.340
13.5330 11.438 0.345
13.5535 11.500 0.346
13.5739 10.448 0.330
13.5944 10.719 0.334
13.6148 10.813 0.336
13.6353 10.823 0.336
13.6558 11.552 0.347
13.6762 10.750 0.335
13.6967 10.531 0.331
13.7172 10.927 0.337
13.7376 10.948 0.338
13.7581 10.823 0.336
13.7785 10.906 0.337
13.7990 10.750 0.335
13.8195 10.229 0.326
13.8399 11.156 0.341
13.8604 10.708 0.334
13.8809 11.729 0.350
13.9013 10.490 0.331
13.9218 10.771 0.335
13.9422 10.833 0.336
13.9627 10.656 0.333
13.9832 10.302 0.328
14.0036 10.500 0.331
14.0241 10.750 0.335
14.0446 10.406 0.329
14.0650 10.521 0.331
14.0855 10.094 0.324
14.1059 10.188 0.326
14.1264 10.552 0.332
14.1469 10.448 0.330
14.1673 9.677 0.317
14.1878 10.135 0.325
14.2083 10.135 0.325
14.2287 10.177 0.326
14.2492 10.021 0.323
14.2696 10.167 0.325
14.2901 10.698 0.334
14.3106 10.594 0.332
14.3310 10.125 0.325
14.3515 10.198 0.326
14.3720 9.979 0.322
14.3924 9.479 0.314
14.4129 9.698 0.318
14.4334 10.010 0.323
14.4538 9.438 0.314
14.4743 10.448 0.330
14.4947 9.771 0.319
14.5152 10.375 0.329
14.5357 10.031 0.323
14.5561 10.146 0.325
14.5766 10.260 0.327
14.5971 9.792 0.319
14.6175 9.604 0.316
14.6380 10.198 0.326
14.6584 9.469 0.314
14.6789 9.854 0.320
14.6994 10.198 0.326
14.7198 9.833 0.320
14.7403 9.438 0.314
14.7608 9.833 0.320
14.7812 9.979 0.322
14.8017 10.417 0.329
14.8221 9.490 0.314
14.8426 9.677 0.317
14.8631 9.542 0.315
14.8835 9.938 0.322
14.9040 9.302 0.311
14.9245 9.594 0.316
14.9449 9.365 0.312
14.9654 8.938 0.305
14.9858 9.490 0.314
15.0063 9.833 0.320
15.0268 9.510 0.315
15.0472 9.385 0.313
15.0677 9.896 0.321
15.0882 9.219 0.310
15.1086 9.229 0.310
15.1291 9.479 0.314
15.1495 8.938 0.305
15.1700 9.490 0.314
15.1905 9.469 0.314
15.2109 8.844 0.304
15.2314 9.823 0.320
15.2519 9.156 0.309
15.2723 9.365 0.312
15.2928 8.896 0.304
15.3133 10.156 0.325
15.3337 8.948 0.305
15.3542 9.948 0.322
15.3746 9.594 0.316
15.3951 9.833 0.320
15.4156 9.250 0.310
15.4360 9.302 0.311
15.4565 9.865 0.321
15.4770 9.365 0.312
15.4974 9.500 0.315
15.5179 9.552 0.315
15.5383 8.802 0.303
15.5588 9.323 0.312
15.5793 9.177 0.309
15.5997 9.719 0.318
15.6202 10.167 0.325
15.6407 9.500 0.315
15.6611 9.740 0.319
15.6816 9.917 0.321
15.7020 10.448 0.330
15.7225 10.719 0.334
15.7430 12.750 0.364
15.7634 15.156 0.397
15.7839 17.604 0.428
15.8044 17.677 0.429
15.8248 16.313 0.412
15.8453 13.719 0.378
15.8657 11.177 0.341
15.8862 10.542 0.331
15.9067 10.010 0.323
15.9271 9.865 0.321
15.9476 9.958 0.322
15.9681 9.375 0.313
15.9885 9.396 0.313
16.0090 9.500 0.315
16.0295 9.323 0.312
16.0499 9.479 0.314
16.0704 8.729 0.302
16.0908 9.083 0.308
16.1113 9.031 0.307
16.1318 8.813 0.303
16.1522 9.740 0.319
16.1727 9.250 0.310
16.1932 8.854 0.304
16.2136 8.615 0.300
16.2341 9.219 0.310
16.2545 9.875 0.321
16.2750 9.604 0.316
16.2955 9.375 0.313
16.3159 9.958 0.322
16.3364 9.240 0.310
16.3569 9.448 0.314
16.3773 9.510 0.315
16.3978 9.063 0.307
16.4182 9.198 0.310
16.4387 9.344 0.312
16.4592 9.729 0.318
16.4796 9.375 0.313
16.5001 9.375 0.313
16.5206 9.875 0.321
16.5410 9.052 0.307
16.5615 9.177 0.309
16.5819 9.948 0.322
16.6024 9.719 0.318
16.6229 10.302 0.328
16.6433 9.490 0.314
16.6638 9.750 0.319
16.6843 9.854 0.320
16.7047 9.698 0.318
16.7252 9.573 0.316
16.7456 10.469 0.330
16.7661 9.677 0.317
16.7866 10.625 0.333
16.8070 10.500 0.331
16.8275 10.281 0.327
16.8480 10.229 0.326
16.8684 9.865 0.321
16.8889 10.115 0.325
16.9094 10.302 0.328
16.9298 10.583 0.332
16.9503 10.063 0.324
16.9707 10.135 0.325
16.9912 10.396 0.329
17.0117 10.385 0.329
17.0321 10.938 0.338
17.0526 10.188 0.326
17.0731 10.854 0.336
17.0935 10.594 0.332
17.1140 10.823 0.336
17.1344 10.344 0.328
17.1549 11.031 0.339
17.1754 10.823 0.336
17.1958 11.125 0.340
17.2163 11.542 0.347
17.2368 11.792 0.350
17.2572 11.365 0.344
17.2777 11.292 0.343
17.2981 12.115 0.355
17.3186 11.750 0.350
17.3391 11.656 0.348
17.3595 12.417 0.360
17.3800 11.063 0.339
17.4005 12.094 0.355
17.4209 12.177 0.356
17.4414 12.229 0.357
17.4618 12.854 0.366
17.4823 13.115 0.370
17.5028 13.250 0.372
17.5232 12.948 0.367
17.5437 13.229 0.371
17.5642 13.396 0.374
17.5846 13.719 0.378
17.6051 13.375 0.373
17.6255 13.854 0.380
17.6460 13.927 0.381
17.6665 13.948 0.381
17.6869 14.927 0.394
17.7074 14.719 0.392
17.7279 16.115 0.410
17.7483 15.563 0.403
17.7688 16.344 0.413
17.7893 17.302 0.425
17.8097 18.219 0.436
17.8302 19.385 0.449
17.8506 19.646 0.452
17.8711 18.427 0.438
17.8916 19.740 0.453
17.9120 20.344 0.460
17.9325 19.896 0.455
17.9530 19.656 0.452
17.9734 19.802 0.454
17.9939 20.990 0.468
18.0143 20.750 0.465
18.0348 21.906 0.478
18.0553 22.594 0.485
18.0757 22.385 0.483
18.0962 25.094 0.511
18.1167 25.208 0.512
18.1371 25.563 0.516
18.1576 25.146 0.512
18.1780 25.240 0.513
18.1985 26.115 0.522
18.2190 25.563 0.516
18.2394 25.646 0.517
18.2599 26.688 0.527
18.2804 26.792 0.528
18.3008 28.719 0.547
18.3213 29.094 0.551
18.3417 29.990 0.559
18.3622 30.198 0.561
18.3827 31.292 0.571
18.4031 31.927 0.577
18.4236 34.438 0.599
18.4441 34.229 0.597
18.4645 35.990 0.612
18.4850 40.271 0.648
18.5054 44.635 0.682
18.5259 53.990 0.750
18.5464 66.990 0.835
18.5668 93.260 0.986
18.5873 145.115 1.229
18.6078 215.031 1.497
18.6282 234.240 1.562
18.6487 197.667 1.435
18.6692 169.875 1.330
18.6896 127.021 1.150
18.7101 90.750 0.972
18.7305 72.469 0.869
18.7510 61.229 0.799
18.7715 57.760 0.776
18.7919 50.771 0.727
18.8124 49.635 0.719
18.8329 45.479 0.688
18.8533 43.417 0.673
18.8738 42.125 0.662
18.8942 42.208 0.663
18.9147 41.156 0.655
18.9352 37.719 0.627
18.9556 37.125 0.622
18.9761 35.771 0.610
18.9966 33.896 0.594
19.0170 33.333 0.589
19.0375 34.719 0.601
19.0579 32.625 0.583
19.0784 33.885 0.594
19.0989 33.427 0.590
19.1193 33.240 0.588
19.1398 33.490 0.591
19.1603 35.344 0.607
19.1807 36.042 0.613
19.2012 35.396 0.607
19.2216 36.063 0.613
19.2421 36.104 0.613
19.2626 38.333 0.632
19.2830 37.938 0.629
19.3035 38.792 0.636
19.3240 39.417 0.641
19.3444 39.656 0.643
19.3649 40.771 0.652
19.3853 41.052 0.654
19.4058 42.167 0.663
19.4263 41.698 0.659
19.4467 44.344 0.680
19.4672 46.563 0.696
19.4877 46.552 0.696
19.5081 48.854 0.713
19.5286 52.135 0.737
19.5491 53.406 0.746
19.5695 57.083 0.771
19.5900 60.448 0.794
19.6104 61.917 0.803
19.6309 67.688 0.840
19.6514 69.188 0.849
19.6718 75.906 0.889
19.6923 81.115 0.919
19.7128 91.542 0.977
19.7332 103.479 1.038
19.7537 124.792 1.140
19.7741 154.156 1.267
19.7946 211.646 1.485
19.8151 296.365 1.757
19.8355 404.052 2.052
19.8560 422.365 2.098
19.8765 321.333 1.830
19.8969 254.521 1.628
19.9174 171.521 1.337
19.9378 95.542 0.998
19.9583 66.708 0.834
19.9788 53.229 0.745
19.9992 45.823 0.691
20.0197 42.354 0.664
20.0402 37.573 0.626
20.0606 34.500 0.599
20.0811 33.677 0.592
20.1015 30.250 0.561
20.1220 29.104 0.551
20.1425 27.688 0.537
20.1629 25.792 0.518
20.1834 25.177 0.512
20.2039 25.229 0.513
20.2243 26.375 0.524
20.2448 25.490 0.515
20.2653 26.188 0.522
20.2857 26.406 0.524
20.3062 26.750 0.528
20.3266 27.229 0.533
20.3471 27.240 0.533
20.3676 25.885 0.519
20.3880 26.573 0.526
20.4085 26.844 0.529
20.4290 24.792 0.508
20.4494 25.292 0.513
20.4699 24.021 0.500
20.4903 24.010 0.500
20.5108 24.406 0.504
20.5313 23.438 0.494
20.5517 23.594 0.496
20.5722 22.854 0.488
20.5927 20.990 0.468
20.6131 20.677 0.464
20.6336 19.938 0.456
20.6540 18.979 0.445
20.6745 17.813 0.431
20.6950 17.875 0.432
20.7154 17.281 0.424
20.7359 16.563 0.415
20.7564 16.375 0.413
20.7768 15.417 0.401
20.7973 15.146 0.397
20.8177 14.875 0.394
20.8382 14.260 0.385
20.8587 14.344 0.387
20.8791 14.052 0.383
20.8996 14.938 0.394
20.9201 13.646 0.377
20.9405 14.000 0.382
20.9610 13.490 0.375
20.9814 13.615 0.377
21.0019 13.271 0.372
21.0224 12.969 0.368
21.0428 12.948 0.367
21.0633 12.854 0.366
21.0838 13.042 0.369
21.1042 12.417 0.360
21.1247 12.479 0.361
21.1452 12.313 0.358
21.1656 12.042 0.354
21.1861 12.656 0.363
21.2065 11.500 0.346
21.2270 11.854 0.351
21.2475 12.021 0.354
21.2679 11.417 0.345
21.2884 11.469 0.346
21.3089 11.521 0.346
21.3293 11.521 0.346
21.3498 11.302 0.343
21.3702 10.792 0.335
21.3907 11.188 0.341
21.4112 10.813 0.336
21.4316 11.260 0.342
21.4521 11.021 0.339
21.4726 10.469 0.330
21.4930 10.740 0.334
21.5135 10.958 0.338
21.5339 10.802 0.335
21.5544 11.469 0.346
21.5749 11.000 0.339
21.5953 10.698 0.334
21.6158 10.979 0.338
21.6363 11.125 0.340
21.6567 10.813 0.336
21.6772 10.521 0.331
21.6976 10.792 0.335
21.7181 10.156 0.325
21.7386 10.406 0.329
21.7590 11.094 0.340
21.7795 10.448 0.330
21.8000 10.740 0.334
21.8204 10.271 0.327
21.8409 10.594 0.332
21.8613 10.552 0.332
21.8818 11.083 0.340
21.9023 10.927 0.337
21.9227 11.510 0.346
21.9432 12.021 0.354
21.9637 11.375 0.344
21.9841 11.688 0.349
22.0046 11.802 0.351
22.0251 12.031 0.354
22.0455 13.469 0.375
22.0660 13.427 0.374
22.0864 12.448 0.360
22.1069 14.708 0.391
22.1274 15.771 0.405
22.1478 17.958 0.433
22.1683 22.344 0.482
22.1888 26.479 0.525
22.2092 31.479 0.573
22.2297 29.125 0.551
22.2501 27.000 0.530
22.2706 25.125 0.512
22.2911 20.833 0.466
22.3115 17.625 0.428
22.3320 15.979 0.408
22.3525 15.427 0.401
22.3729 14.552 0.389
22.3934 14.604 0.390
22.4138 12.948 0.367
22.4343 13.521 0.375
22.4548 13.458 0.374
22.4752 13.021 0.368
22.4957 12.542 0.361
22.5162 12.542 0.361
22.5366 12.969 0.368
22.5571 13.073 0.369
22.5775 12.833 0.366
22.5980 12.635 0.363
22.6185 13.406 0.374
22.6389 15.135 0.397
22.6594 15.573 0.403
22.6799 15.521 0.402
22.7003 15.208 0.398
22.7208 14.198 0.385
22.7412 13.583 0.376
22.7617 12.458 0.360
22.7822 11.958 0.353
22.8026 11.740 0.350
22.8231 11.104 0.340
22.8436 11.208 0.342
22.8640 11.729 0.350
22.8845 12.479 0.361
22.9050 13.510 0.375
22.9254 14.979 0.395
22.9459 14.219 0.385
22.9663 13.958 0.381
22.9868 12.813 0.365
23.0073 12.052 0.354
23.0277 11.344 0.344
23.0482 11.229 0.342
23.0687 10.417 0.329
23.0891 10.531 0.331
23.1096 9.854 0.320
23.1300 10.271 0.327
23.1505 9.917 0.321
23.1710 9.698 0.318
23.1914 9.292 0.311
23.2119 9.063 0.307
23.2324 10.052 0.324
23.2528 9.385 0.313
23.2733 8.531 0.298
23.2937 8.698 0.301
23.3142 8.833 0.303
23.3347 9.115 0.308
23.3551 8.646 0.300
23.3756 8.813 0.303
23.3961 8.802 0.303
23.4165 8.802 0.303
23.4370 8.885 0.304
23.4574 8.896 0.304
23.4779 8.146 0.291
23.4984 8.938 0.305
23.5188 8.688 0.301
23.5393 8.771 0.302
23.5598 9.021 0.307
23.5802 8.740 0.302
23.6007 8.438 0.296
23.6211 8.594 0.299
23.6416 8.385 0.296
23.6621 8.771 0.302
23.6825 8.448 0.297
23.7030 8.594 0.299
23.7235 8.500 0.298
23.7439 8.344 0.295
23.7644 8.698 0.301
23.7849 8.365 0.295
23.8053 8.021 0.289
23.8258 8.125 0.291
23.8462 7.917 0.287
23.8667 7.729 0.284
23.8872 8.146 0.291
23.9076 8.094 0.290
23.9281 7.969 0.288
23.9486 7.885 0.287
23.9690 8.125 0.291
23.9895 7.469 0.279
24.0099 7.750 0.284
24.0304 7.875 0.286
24.0509 8.240 0.293
24.0713 7.875 0.286
24.0918 8.063 0.290
24.1123 7.802 0.285
24.1327 8.375 0.295
24.1532 7.729 0.284
24.1736 8.542 0.298
24.1941 8.135 0.291
24.2146 8.344 0.295
24.2350 8.365 0.295
24.2555 8.073 0.290
24.2760 8.281 0.294
24.2964 9.031 0.307
24.3169 8.708 0.301
24.3373 9.302 0.311
24.3578 9.427 0.313
24.3783 9.302 0.311
24.3987 9.167 0.309
24.4192 8.750 0.302
24.4397 8.042 0.289
24.4601 8.042 0.289
24.4806 7.802 0.285
24.5011 7.896 0.287
24.5215 7.615 0.282
24.5420 8.083 0.290
24.5624 7.750 0.284
24.5829 8.375 0.295
24.6034 7.427 0.278
24.6238 7.542 0.280
24.6443 7.385 0.277
24.6648 7.979 0.288
24.6852 7.896 0.287
24.7057 7.990 0.288
24.7261 7.677 0.283
24.7466 7.823 0.285
24.7671 8.542 0.298
24.7875 8.406 0.296
24.8080 7.740 0.284
24.8285 7.635 0.282
24.8489 7.990 0.288
24.8694 7.531 0.280
24.8898 7.135 0.273
24.9103 7.667 0.283
24.9308 7.385 0.277
24.9512 7.938 0.288
24.9717 7.750 0.284
24.9922 7.365 0.277
25.0126 7.802 0.285
25.0331 7.302 0.276
25.0535 7.396 0.278
25.0740 7.594 0.281
25.0945 7.344 0.277
25.1149 8.000 0.289
25.1354 6.792 0.266
25.1559 7.073 0.271
25.1763 7.427 0.278
25.1968 6.688 0.264
25.2172 6.708 0.264
25.2377 7.010 0.270
25.2582 7.208 0.274
25.2786 7.365 0.277
25.2991 7.448 0.279
25.3196 7.594 0.281
25.3400 7.177 0.273
25.3605 7.240 0.275
25.3810 7.167 0.273
25.4014 7.146 0.273
25.4219 7.188 0.274
25.4423 7.125 0.272
25.4628 6.927 0.269
25.4833 7.396 0.278
25.5037 7.802 0.285
25.5242 7.094 0.272
25.5447 7.365 0.277
25.5651 8.771 0.302
25.5856 8.979 0.306
25.6060 9.990 0.323
25.6265 9.448 0.314
25.6470 8.875 0.304
25.6674 10.052 0.324
25.6879 8.990 0.306
25.7084 8.010 0.289
25.7288 7.833 0.286
25.7493 8.010 0.289
25.7697 7.250 0.275
25.7902 8.250 0.293
25.8107 7.990 0.288
25.8311 7.563 0.281
25.8516 7.458 0.279
25.8721 7.458 0.279
25.8925 7.292 0.276
25.9130 7.250 0.275
25.9334 7.333 0.276
25.9539 7.354 0.277
25.9744 7.052 0.271
25.9948 7.042 0.271
26.0153 6.885 0.268
26.0358 6.677 0.264
26.0562 7.188 0.274
26.0767 7.135 0.273
26.0971 6.865 0.267
26.1176 7.167 0.273
26.1381 7.479 0.279
26.1585 7.271 0.275
26.1790 7.271 0.275
26.1995 7.292 0.276
26.2199 7.677 0.283
26.2404 6.615 0.262
26.2609 7.635 0.282
26.2813 7.281 0.275
26.3018 7.646 0.282
26.3222 7.458 0.279
26.3427 7.021 0.270
26.3632 7.521 0.280
26.3836 6.917 0.268
26.4041 6.958 0.269
26.4246 7.177 0.273
26.4450 8.240 0.293
26.4655 7.656 0.282
26.4859 7.313 0.276
26.5064 7.479 0.279
26.5269 7.208 0.274
26.5473 7.708 0.283
26.5678 7.375 0.277
26.5883 7.542 0.280
26.6087 7.375 0.277
26.6292 7.146 0.273
26.6496 7.604 0.281
26.6701 7.490 0.279
26.6906 7.625 0.282
26.7110 8.156 0.291
26.7315 7.719 0.284
26.7520 8.031 0.289
26.7724 7.125 0.272
26.7929 7.510 0.280
26.8133 7.990 0.288
26.8338 7.135 0.273
26.8543 7.500 0.280
26.8747 7.469 0.279
26.8952 7.979 0.288
26.9157 8.177 0.292
26.9361 7.646 0.282
26.9566 8.073 0.290
26.9770 8.073 0.290
26.9975 8.385 0.296
27.0180 7.844 0.286
27.0384 8.271 0.294
27.0589 8.208 0.292
27.0794 7.708 0.283
27.0998 7.656 0.282
27.1203 8.104 0.291
27.1408 8.531 0.298
27.1612 8.094 0.290
27.1817 8.094 0.290
27.2021 8.167 0.292
27.2226 8.010 0.289
27.2431 8.292 0.294
27.2635 7.552 0.280
27.2840 8.146 0.291
27.3045 7.844 0.286
27.3249 8.000 0.289
27.3454 7.677 0.283
27.3658 8.135 0.291
27.3863 8.021 0.289
27.4068 7.344 0.277
27.4272 7.188 0.274
27.4477 7.833 0.286
27.4682 8.594 0.299
27.4886 8.906 0.305
27.5091 9.417 0.313
27.5295 8.104 0.291
27.5500 8.396 0.296
27.5705 8.563 0.299
27.5909 8.708 0.301
27.6114 7.583 0.281
27.6319 7.573 0.281
27.6523 7.094 0.272
27.6728 7.281 0.275
27.6932 7.865 0.286
27.7137 7.031 0.271
27.7342 7.281 0.275
27.7546 7.104 0.272
27.7751 7.573 0.281
27.7956 7.417 0.278
27.8160 7.542 0.280
27.8365 7.510 0.280
27.8569 7.198 0.274
27.8774 7.510 0.280
27.8979 7.000 0.270
27.9183 7.313 0.276
27.9388 7.302 0.276
27.9593 7.219 0.274
27.9797 7.354 0.277
28.0002 8.052 0.290
28.0207 8.125 0.291
28.0411 8.698 0.301
28.0616 9.125 0.308
28.0820 9.208 0.310
28.1025 8.260 0.293
28.1230 8.438 0.296
28.1434 8.344 0.295
28.1639 7.510 0.280
28.1844 7.354 0.277
28.2048 6.781 0.266
28.2253 7.000 0.270
28.2457 7.375 0.277
28.2662 6.583 0.262
28.2867 7.000 0.270
28.3071 6.698 0.264
28.3276 6.896 0.268
28.3481 6.260 0.255
28.3685 6.844 0.267
28.3890 6.927 0.269
28.4094 6.990 0.270
28.4299 7.177 0.273
28.4504 7.010 0.270
28.4708 6.771 0.266
28.4913 7.208 0.274
28.5118 6.781 0.266
28.5322 6.615 0.262
28.5527 6.802 0.266
28.5731 6.458 0.259
28.5936 6.583 0.262
28.6141 6.521 0.261
28.6345 6.854 0.267
28.6550 7.042 0.271
28.6755 6.698 0.264
28.6959 6.552 0.261
28.7164 6.938 0.269
28.7368 6.406 0.258
28.7573 7.208 0.274
28.7778 6.354 0.257
28.7982 6.510 0.260
28.8187 6.750 0.265
28.8392 7.313 0.276
28.8596 7.115 0.272
28.8801 7.021 0.270
28.9006 6.135 0.253
28.9210 6.760 0.265
28.9415 6.708 0.264
28.9619 6.542 0.261
28.9824 7.104 0.272
29.0029 6.854 0.267
29.0233 6.667 0.264
29.0438 6.802 0.266
29.0643 6.990 0.270
29.0847 6.750 0.265
29.1052 6.563 0.261
29.1256 7.146 0.273
29.1461 6.906 0.268
29.1666 6.854 0.267
29.1870 6.896 0.268
29.2075 7.781 0.285
29.2280 7.604 0.281
29.2484 7.375 0.277
29.2689 8.073 0.290
29.2893 8.354 0.295
29.3098 9.302 0.311
29.3303 9.240 0.310
29.3507 9.740 0.319
29.3712 9.469 0.314
29.3917 9.531 0.315
29.4121 9.365 0.312
29.4326 8.615 0.300
29.4530 8.240 0.293
29.4735 8.104 0.291
29.4940 7.885 0.287
29.5144 7.427 0.278
29.5349 7.271 0.275
29.5554 7.219 0.274
29.5758 7.573 0.281
29.5963 6.521 0.261
29.6168 7.250 0.275
29.6372 6.875 0.268
29.6577 7.344 0.277
29.6781 6.844 0.267
29.6986 6.719 0.265
29.7191 6.000 0.250
29.7395 6.406 0.258
29.7600 6.396 0.258
29.7805 6.323 0.257
29.8009 6.583 0.262
29.8214 6.198 0.254
29.8418 5.906 0.248
29.8623 6.260 0.255
29.8828 6.771 0.266
29.9032 6.188 0.254
29.9237 5.938 0.249
29.9442 6.896 0.268
29.9646 6.813 0.266
29.9851 5.979 0.250
30.0055 6.510 0.260
30.0260 5.917 0.248
30.0465 6.240 0.255
30.0669 5.667 0.243
30.0874 6.188 0.254
30.1079 5.948 0.249
30.1283 6.000 0.250
30.1488 5.594 0.241
30.1692 5.573 0.241
30.1897 5.531 0.240
30.2102 5.688 0.243
30.2306 5.781 0.245
30.2511 5.969 0.249
30.2716 5.740 0.245
30.2920 6.198 0.254
30.3125 5.875 0.247
30.3329 5.990 0.250
30.3534 6.042 0.251
30.3739 5.750 0.245
30.3943 5.760 0.245
30.4148 5.969 0.249
30.4353 5.875 0.247
30.4557 5.521 0.240
30.4762 5.865 0.247
30.4967 6.167 0.253
30.5171 5.927 0.248
30.5376 5.490 0.239
30.5580 5.875 0.247
30.5785 6.031 0.251
30.5990 6.021 0.250
30.6194 5.927 0.248
30.6399 5.813 0.246
30.6604 5.865 0.247
30.6808 5.875 0.247
30.7013 6.021 0.250
30.7217 5.875 0.247
30.7422 5.740 0.245
30.7627 6.063 0.251
30.7831 6.208 0.254
30.8036 6.344 0.257
30.8241 6.646 0.263
30.8445 6.615 0.262
30.8650 6.760 0.265
30.8854 6.594 0.262
30.9059 7.698 0.283
30.9264 8.010 0.289
30.9468 8.760 0.302
30.9673 11.115 0.340
30.9878 14.510 0.389
31.0082 20.958 0.467
31.0287 28.990 0.550
31.0491 36.802 0.619
31.0696 36.323 0.615
31.0901 32.219 0.579
31.1105 30.802 0.566
31.1310 25.833 0.519
31.1515 21.646 0.475
31.1719 17.021 0.421
31.1924 13.198 0.371
31.2128 10.500 0.331
31.2333 8.271 0.294
31.2538 7.656 0.282
31.2742 7.573 0.281
31.2947 7.292 0.276
31.3152 6.802 0.266
31.3356 6.125 0.253
31.3561 6.708 0.264
31.3766 6.583 0.262
31.3970 6.573 0.262
31.4175 5.906 0.248
31.4379 6.167 0.253
31.4584 6.583 0.262
31.4789 6.260 0.255
31.4993 6.313 0.256
31.5198 6.083 0.252
31.5403 6.333 0.257
31.5607 5.865 0.247
31.5812 5.885 0.248
31.6016 5.625 0.242
31.6221 5.979 0.250
31.6426 6.125 0.253
31.6630 5.646 0.243
31.6835 5.885 0.248
31.7040 5.823 0.246
31.7244 5.542 0.240
31.7449 5.823 0.246
31.7653 5.854 0.247
31.7858 6.156 0.253
31.8063 5.875 0.247
31.8267 5.781 0.245
31.8472 5.865 0.247
31.8677 6.052 0.251
31.8881 5.708 0.244
31.9086 6.344 0.257
31.9290 6.229 0.255
31.9495 5.792 0.246
31.9700 5.927 0.248
31.9904 5.656 0.243
32.0109 6.552 0.261
32.0314 5.865 0.247
32.0518 6.198 0.254
32.0723 6.667 0.264
32.0927 6.740 0.265
32.1132 7.083 0.272
32.1337 7.344 0.277
32.1541 7.802 0.285
32.1746 7.177 0.273
32.1951 8.073 0.290
32.2155 8.740 0.302
32.2360 9.271 0.311
32.2565 9.240 0.310
32.2769 8.677 0.301
32.2974 8.083 0.290
32.3178 8.896 0.304
32.3383 8.396 0.296
32.3588 7.771 0.285
32.3792 7.938 0.288
32.3997 7.323 0.276
32.4202 7.583 0.281
32.4406 7.948 0.288
32.4611 8.313 0.294
32.4815 7.542 0.280
32.5020 8.531 0.298
32.5225 8.771 0.302
32.5429 9.354 0.312
32.5634 10.229 0.326
32.5839 11.458 0.345
32.6043 13.094 0.369
32.6248 14.521 0.389
32.6452 15.938 0.407
32.6657 14.854 0.393
32.6862 12.948 0.367
32.7066 11.583 0.347
32.7271 11.604 0.348
32.7476 11.083 0.340
32.7680 9.354 0.312
32.7885 8.417 0.296
32.8089 7.500 0.280
32.8294 7.385 0.277
32.8499 7.198 0.274
32.8703 7.198 0.274
32.8908 6.792 0.266
32.9113 6.854 0.267
32.9317 6.406 0.258
32.9522 6.438 0.259
32.9726 6.469 0.260
32.9931 6.406 0.258
33.0136 6.375 0.258
33.0340 6.865 0.267
33.0545 6.469 0.260
33.0750 5.760 0.245
33.0954 6.073 0.252
33.1159 6.115 0.252
33.1364 6.177 0.254
33.1568 5.979 0.250
33.1773 6.260 0.255
33.1977 6.406 0.258
33.2182 6.583 0.262
33.2387 6.500 0.260
33.2591 6.271 0.256
33.2796 5.740 0.245
33.3001 6.229 0.255
33.3205 6.115 0.252
33.3410 6.188 0.254
33.3614 6.438 0.259
33.3819 6.479 0.260
33.4024 6.083 0.252
33.4228 6.688 0.264
33.4433 6.219 0.255
33.4638 6.688 0.264
33.4842 6.396 0.258
33.5047 6.365 0.257
33.5251 6.104 0.252
33.5456 5.625 0.242
33.5661 5.854 0.247
33.5865 5.656 0.243
33.6070 5.219 0.233
33.6275 5.333 0.236
33.6479 5.573 0.241
33.6684 5.906 0.248
33.6888 5.906 0.248
33.7093 5.698 0.244
33.7298 5.458 0.238
33.7502 5.906 0.248
33.7707 5.802 0.246
33.7912 5.521 0.240
33.8116 5.719 0.244
33.8321 6.042 0.251
33.8526 6.365 0.257
33.8730 5.708 0.244
33.8935 6.083 0.252
33.9139 5.760 0.245
33.9344 6.031 0.251
33.9549 5.552 0.240
33.9753 5.760 0.245
33.9958 5.990 0.250
34.0163 5.208 0.233
34.0367 5.781 0.245
34.0572 5.458 0.238
34.0776 5.896 0.248
34.0981 6.156 0.253
34.1186 5.750 0.245
34.1390 6.135 0.253
34.1595 6.563 0.261
34.1800 6.885 0.268
34.2004 8.198 0.292
34.2209 8.219 0.293
34.2413 8.438 0.296
34.2618 8.521 0.298
34.2823 7.750 0.284
34.3027 8.292 0.294
34.3232 8.635 0.300
34.3437 8.042 0.289
34.3641 7.542 0.280
34.3846 7.615 0.282
34.4050 7.729 0.284
34.4255 8.021 0.289
34.4460 7.792 0.285
34.4664 7.667 0.283
34.4869 8.083 0.290
34.5074 8.406 0.296
34.5278 8.146 0.291
34.5483 8.198 0.292
34.5687 8.083 0.290
34.5892 7.365 0.277
34.6097 7.406 0.278
34.6301 7.135 0.273
34.6506 6.698 0.264
34.6711 6.594 0.262
34.6915 6.240 0.255
34.7120 6.229 0.255
34.7325 6.146 0.253
34.7529 6.167 0.253
34.7734 5.948 0.249
34.7938 5.854 0.247
34.8143 6.063 0.251
34.8348 6.229 0.255
34.8552 6.260 0.255
34.8757 5.969 0.249
34.8962 6.271 0.256
34.9166 6.240 0.255
34.9371 7.438 0.278
34.9575 8.604 0.299
34.9780 9.354 0.312
34.9985 8.833 0.303
35.0189 7.969 0.288
35.0394 7.938 0.288
35.0599 8.313 0.294
35.0803 8.365 0.295
35.1008 7.344 0.277
35.1212 7.083 0.272
35.1417 6.604 0.262
35.1622 6.344 0.257
35.1826 5.958 0.249
35.2031 5.979 0.250
35.2236 6.240 0.255
35.2440 6.427 0.259
35.2645 5.938 0.249
35.2849 5.917 0.248
35.3054 5.760 0.245
35.3259 5.521 0.240
35.3463 5.844 0.247
35.3668 5.927 0.248
35.3873 5.875 0.247
35.4077 5.646 0.243
35.4282 5.813 0.246
35.4486 6.083 0.252
35.4691 5.625 0.242
35.4896 5.990 0.250
35.5100 6.000 0.250
35.5305 5.833 0.247
35.5510 5.927 0.248
35.5714 6.104 0.252
35.5919 6.135 0.253
35.6124 5.813 0.246
35.6328 6.083 0.252
35.6533 6.083 0.252
35.6737 5.885 0.248
35.6942 5.740 0.245
35.7147 6.042 0.251
35.7351 6.167 0.253
35.7556 6.344 0.257
35.7761 6.750 0.265
35.7965 6.646 0.263
35.8170 6.177 0.254
35.8374 6.438 0.259
35.8579 6.323 0.257
35.8784 6.792 0.266
35.8988 6.490 0.260
35.9193 6.896 0.268
35.9398 7.031 0.271
35.9602 7.260 0.275
35.9807 7.750 0.284
36.0011 8.104 0.291
36.0216 8.865 0.304
36.0421 8.896 0.304
36.0625 9.656 0.317
36.0830 10.188 0.326
36.1035 9.896 0.321
36.1239 9.885 0.321
36.1444 10.542 0.331
36.1648 11.240 0.342
36.1853 10.479 0.330
36.2058 10.083 0.324
36.2262 10.823 0.336
36.2467 9.969 0.322
36.2672 11.125 0.340
36.2876 10.375 0.329
36.3081 11.646 0.348
36.3285 11.104 0.340
36.3490 11.781 0.350
36.3695 12.573 0.362
36.3899 12.510 0.361
36.4104 12.573 0.362
36.4309 14.010 0.382
36.4513 14.656 0.391
36.4718 14.990 0.395
36.4923 14.677 0.391
36.5127 15.396 0.400
36.5332 15.396 0.400
36.5536 16.385 0.413
36.5741 17.292 0.424
36.5946 18.854 0.443
36.6150 21.938 0.478
36.6355 20.708 0.464
36.6560 19.438 0.450
36.6764 17.396 0.426
36.6969 18.458 0.438
36.7173 18.583 0.440
36.7378 16.375 0.413
36.7583 14.948 0.395
36.7787 14.542 0.389
36.7992 14.135 0.384
36.8197 13.208 0.371
36.8401 13.563 0.376
36.8606 13.344 0.373
36.8810 13.740 0.378
36.9015 13.729 0.378
36.9220 14.667 0.391
36.9424 14.604 0.390
36.9629 14.542 0.389
36.9834 15.188 0.398
37.0038 16.354 0.413
37.0243 16.656 0.417
37.0447 19.208 0.447
37.0652 20.896 0.467
37.0857 24.010 0.500
37.1061 23.146 0.491
37.1266 21.448 0.473
37.1471 18.948 0.444
37.1675 18.167 0.435
37.1880 18.104 0.434
37.2084 16.885 0.419
37.2289 15.719 0.405
37.2494 12.938 0.367
37.2698 12.740 0.364
37.2903 12.896 0.367
37.3108 11.396 0.345
37.3312 11.115 0.340
37.3517 11.438 0.345
37.3722 10.781 0.335
37.3926 11.031 0.339
37.4131 10.938 0.338
37.4335 10.708 0.334
37.4540 10.740 0.334
37.4745 11.292 0.343
37.4949 11.490 0.346
37.5154 11.323 0.343
37.5359 12.177 0.356
37.5563 12.708 0.364
37.5768 14.031 0.382
37.5972 14.396 0.387
37.6177 14.573 0.390
37.6382 14.219 0.385
37.6586 14.792 0.393
37.6791 15.333 0.400
37.6996 14.823 0.393
37.7200 14.167 0.384
37.7405 13.469 0.375
37.7609 12.438 0.360
37.7814 12.646 0.363
37.8019 12.563 0.362
37.8223 12.156 0.356
37.8428 11.760 0.350
37.8633 11.104 0.340
37.8837 10.938 0.338
37.9042 11.052 0.339
37.9246 10.677 0.333
37.9451 10.802 0.335
37.9656 11.833 0.351
37.9860 12.198 0.356
38.0065 13.656 0.377
38.0270 14.896 0.394
38.0474 15.396 0.400
38.0679 14.510 0.389
38.0884 13.958 0.381
38.1088 13.510 0.375
38.1293 13.896 0.380
38.1497 13.802 0.379
38.1702 12.250 0.357
38.1907 11.885 0.352
38.2111 10.885 0.337
38.2316 10.563 0.332
38.2521 10.583 0.332
38.2725 10.563 0.332
38.2930 10.990 0.338
38.3134 10.042 0.323
38.3339 9.938 0.322
38.3544 9.094 0.308
38.3748 9.823 0.320
38.3953 10.552 0.332
38.4158 10.052 0.324
38.4362 10.323 0.328
38.4567 10.990 0.338
38.4771 11.490 0.346
38.4976 11.531 0.347
38.5181 11.167 0.341
38.5385 11.208 0.342
38.5590 10.417 0.329
38.5795 11.510 0.346
38.5999 10.177 0.326
38.6204 10.406 0.329
38.6408 9.531 0.315
38.6613 9.500 0.315
38.6818 9.510 0.315
38.7022 9.521 0.315
38.7227 8.917 0.305
38.7432 9.771 0.319
38.7636 10.479 0.330
38.7841 10.125 0.325
38.8045 10.063 0.324
38.8250 10.260 0.327
38.8455 9.219 0.310
38.8659 9.417 0.313
38.8864 9.542 0.315
38.9069 9.563 0.316
38.9273 9.323 0.312
38.9478 8.656 0.300
38.9683 8.792 0.303
38.9887 8.594 0.299
39.0092 8.469 0.297
39.0296 7.729 0.284
39.0501 8.177 0.292
39.0706 8.646 0.300
39.0910 7.875 0.286
39.1115 8.365 0.295
39.1320 8.083 0.290
39.1524 8.552 0.298
39.1729 7.833 0.286
39.1933 8.427 0.296
39.2138 8.396 0.296
39.2343 8.552 0.298
39.2547 8.333 0.295
39.2752 8.750 0.302
39.2957 8.635 0.300
39.3161 8.188 0.292
39.3366 8.656 0.300
39.3570 8.292 0.294
39.3775 8.240 0.293
39.3980 8.313 0.294
39.4184 8.281 0.294
39.4389 8.198 0.292
39.4594 8.188 0.292
39.4798 8.219 0.293
39.5003 8.802 0.303
39.5207 7.698 0.283
39.5412 8.646 0.300
39.5617 8.073 0.290
39.5821 8.240 0.293
39.6026 7.927 0.287
39.6231 7.948 0.288
39.6435 8.250 0.293
39.6640 7.802 0.285
39.6844 8.708 0.301
39.7049 7.865 0.286
39.7254 8.313 0.294
39.7458 8.729 0.302
39.7663 9.021 0.307
39.7868 9.302 0.311
39.8072 10.260 0.327
39.8277 10.031 0.323
39.8482 10.000 0.323
39.8686 9.625 0.317
39.8891 9.448 0.314
39.9095 9.490 0.314
39.9300 9.281 0.311
39.9505 8.802 0.303
39.9709 8.708 0.301
39.9914 8.615 0.300
40.0119 8.813 0.303
40.0323 8.500 0.298
40.0528 8.594 0.299
40.0732 9.083 0.308
40.0937 9.604 0.316
40.1142 9.948 0.322
40.1346 10.313 0.328
40.1551 9.896 0.321
40.1756 10.313 0.328
40.1960 11.292 0.343
40.2165 12.240 0.357
40.2369 14.656 0.391
40.2574 15.594 0.403
40.2779 17.271 0.424
40.2983 16.333 0.412
40.3188 15.250 0.399
40.3393 12.948 0.367
40.3597 13.281 0.372
40.3802 12.896 0.367
40.4006 13.208 0.371
40.4211 11.500 0.346
40.4416 9.073 0.307
40.4620 8.531 0.298
40.4825 8.604 0.299
40.5030 8.438 0.296
40.5234 7.708 0.283
40.5439 7.500 0.280
40.5643 7.750 0.284
40.5848 7.458 0.279
40.6053 6.979 0.270
40.6257 7.250 0.275
40.6462 7.885 0.287
40.6667 7.323 0.276
40.6871 7.042 0.271
40.7076 7.396 0.278
40.7281 7.104 0.272
40.7485 7.344 0.277
40.7690 7.146 0.273
40.7894 8.583 0.299
40.8099 9.813 0.320
40.8304 9.865 0.321
40.8508 9.823 0.320
40.8713 8.729 0.302
40.8918 8.917 0.305
40.9122 8.542 0.298
40.9327 9.031 0.307
40.9531 8.823 0.303
40.9736 8.677 0.301
40.9941 8.510 0.298
41.0145 8.135 0.291
41.0350 8.313 0.294
41.0555 9.104 0.308
41.0759 9.010 0.306
41.0964 10.375 0.329
41.1168 11.479 0.346
41.1373 12.229 0.357
41.1578 12.250 0.357
41.1782 10.990 0.338
41.1987 10.615 0.333
41.2192 9.948 0.322
41.2396 10.427 0.330
41.2601 9.865 0.321
41.2805 9.979 0.322
41.3010 9.333 0.312
41.3215 8.219 0.293
41.3419 8.000 0.289
41.3624 7.844 0.286
41.3829 7.635 0.282
41.4033 7.698 0.283
41.4238 7.271 0.275
41.4442 6.990 0.270
41.4647 7.302 0.276
41.4852 6.833 0.267
41.5056 7.240 0.275
41.5261 6.823 0.267
41.5466 6.979 0.270
41.5670 6.542 0.261
41.5875 7.083 0.272
41.6080 7.229 0.274
41.6284 7.313 0.276
41.6489 7.156 0.273
41.6693 6.833 0.267
41.6898 6.885 0.268
41.7103 6.906 0.268
41.7307 6.740 0.265
41.7512 6.771 0.266
41.7717 6.552 0.261
41.7921 6.969 0.269
41.8126 7.115 0.272
41.8330 6.667 0.264
41.8535 7.063 0.271
41.8740 7.031 0.271
41.8944 7.531 0.280
41.9149 7.698 0.283
41.9354 7.083 0.272
41.9558 7.094 0.272
41.9763 7.167 0.273
41.9967 7.219 0.274
42.0172 7.208 0.274
42.0377 7.313 0.276
42.0581 6.802 0.266
42.0786 7.031 0.271
42.0991 6.625 0.263
42.1195 6.854 0.267
42.1400 6.979 0.270
42.1604 6.833 0.267
42.1809 6.677 0.264
42.2014 7.094 0.272
42.2218 7.063 0.271
42.2423 6.417 0.259
42.2628 7.323 0.276
42.2832 7.427 0.278
42.3037 7.583 0.281
42.3242 7.510 0.280
42.3446 8.146 0.291
42.3651 8.458 0.297
42.3855 8.115 0.291
42.4060 8.344 0.295
42.4265 8.240 0.293
42.4469 7.792 0.285
42.4674 8.250 0.293
42.4879 8.115 0.291
42.5083 7.438 0.278
42.5288 7.260 0.275
42.5492 7.188 0.274
42.5697 7.177 0.273
42.5902 7.896 0.287
42.6106 7.635 0.282
42.6311 7.260 0.275
42.6516 7.771 0.285
42.6720 7.365 0.277
42.6925 8.052 0.290
42.7129 7.760 0.284
42.7334 7.510 0.280
42.7539 7.135 0.273
42.7743 7.177 0.273
42.7948 7.313 0.276
42.8153 7.354 0.277
42.8357 6.906 0.268
42.8562 7.115 0.272
42.8766 7.208 0.274
42.8971 7.073 0.271
42.9176 7.500 0.280
42.9380 6.792 0.266
42.9585 6.667 0.264
42.9790 6.813 0.266
42.9994 7.510 0.280
43.0199 7.146 0.273
43.0403 7.313 0.276
43.0608 6.917 0.268
43.0813 7.760 0.284
43.1017 8.073 0.290
43.1222 7.396 0.278
43.1427 7.698 0.283
43.1631 8.219 0.293
43.1836 8.552 0.298
43.2041 8.708 0.301
43.2245 8.792 0.303
43.2450 9.688 0.318
43.2654 9.750 0.319
43.2859 9.333 0.312
43.3064 9.948 0.322
43.3268 9.281 0.311
43.3473 10.292 0.327
43.3678 9.969 0.322
43.3882 10.010 0.323
43.4087 9.448 0.314
43.4291 9.604 0.316
43.4496 9.979 0.322
43.4701 10.198 0.326
43.4905 10.510 0.331
43.5110 10.333 0.328
43.5315 10.927 0.337
43.5519 11.073 0.340
43.5724 12.250 0.357
43.5928 13.167 0.370
43.6133 14.760 0.392
43.6338 15.802 0.406
43.6542 16.542 0.415
43.6747 15.146 0.397
43.6952 13.344 0.373
43.7156 13.615 0.377
43.7361 12.208 0.357
43.7565 12.948 0.367
43.7770 11.813 0.351
43.7975 11.573 0.347
43.8179 10.156 0.325
43.8384 10.156 0.325
43.8589 8.844 0.304
43.8793 8.427 0.296
43.8998 8.177 0.292
43.9202 8.510 0.298
43.9407 8.417 0.296
43.9612 7.604 0.281
43.9816 8.604 0.299
44.0021 8.031 0.289
44.0226 7.708 0.283
44.0430 7.990 0.288
44.0635 7.781 0.285
44.0840 7.896 0.287
44.1044 7.333 0.276
44.1249 7.469 0.279
44.1453 7.302 0.276
44.1658 7.083 0.272
44.1863 7.292 0.276
44.2067 7.354 0.277
44.2272 6.927 0.269
44.2477 6.917 0.268
44.2681 7.083 0.272
44.2886 7.323 0.276
44.3090 6.927 0.269
44.3295 6.938 0.269
44.3500 7.073 0.271
44.3704 6.781 0.266
44.3909 6.906 0.268
44.4114 7.354 0.277
44.4318 6.927 0.269
44.4523 7.021 0.270
44.4727 7.094 0.272
44.4932 7.427 0.278
44.5137 6.698 0.264
44.5341 6.510 0.260
44.5546 6.021 0.250
44.5751 6.792 0.266
44.5955 7.052 0.271
44.6160 6.969 0.269
44.6364 6.208 0.254
44.6569 7.083 0.272
44.6774 6.802 0.266
44.6978 6.292 0.256
44.7183 6.542 0.261
44.7388 7.250 0.275
44.7592 6.729 0.265
44.7797 6.677 0.264
44.8001 6.896 0.268
44.8206 6.688 0.264
44.8411 6.875 0.268
44.8615 6.771 0.266
44.8820 6.469 0.260
44.9025 6.135 0.253
44.9229 6.646 0.263
44.9434 6.115 0.252
44.9639 6.958 0.269
44.9843 7.031 0.271
45.0048 6.896 0.268
45.0252 6.719 0.265
45.0457 6.698 0.264
45.0662 6.552 0.261
45.0866 6.656 0.263
45.1071 7.073 0.271
45.1276 6.875 0.268
45.1480 6.583 0.262
45.1685 7.500 0.280
45.1889 7.854 0.286
45.2094 7.917 0.287
45.2299 7.625 0.282
45.2503 7.927 0.287
45.2708 8.333 0.295
45.2913 8.271 0.294
45.3117 7.927 0.287
45.3322 7.635 0.282
45.3526 7.635 0.282
45.3731 7.823 0.285
45.3936 7.677 0.283
45.4140 7.229 0.274
45.4345 6.365 0.257
45.4550 7.510 0.280
45.4754 6.625 0.263
45.4959 6.948 0.269
45.5163 6.292 0.256
45.5368 6.656 0.263
45.5573 6.833 0.267
45.5777 6.198 0.254
45.5982 6.073 0.252
45.6187 6.344 0.257
45.6391 6.781 0.266
45.6596 6.115 0.252
45.6800 6.198 0.254
45.7005 6.063 0.251
45.7210 5.990 0.250
45.7414 6.344 0.257
45.7619 6.250 0.255
45.7824 6.406 0.258
45.8028 6.323 0.257
45.8233 6.604 0.262
45.8438 6.396 0.258
45.8642 6.333 0.257
45.8847 6.177 0.254
45.9051 6.323 0.257
45.9256 6.219 0.255
45.9461 6.604 0.262
45.9665 6.250 0.255
45.9870 5.625 0.242
46.0075 5.885 0.248
46.0279 6.031 0.251
46.0484 6.135 0.253
46.0688 5.740 0.245
46.0893 6.260 0.255
46.1098 5.927 0.248
46.1302 5.917 0.248
46.1507 5.719 0.244
46.1712 5.719 0.244
46.1916 6.188 0.254
46.2121 6.000 0.250
46.2325 6.021 0.250
46.2530 6.198 0.254
46.2735 5.823 0.246
46.2939 6.406 0.258
46.3144 5.771 0.245
46.3349 6.229 0.255
46.3553 6.344 0.257
46.3758 5.823 0.246
46.3962 6.292 0.256
46.4167 6.010 0.250
46.4372 6.354 0.257
46.4576 6.635 0.263
46.4781 7.021 0.270
46.4986 6.490 0.260
46.5190 7.104 0.272
46.5395 8.052 0.290
46.5600 7.365 0.277
46.5804 7.365 0.277
46.6009 6.958 0.269
46.6213 7.490 0.279
46.6418 7.927 0.287
46.6623 7.656 0.282
46.6827 7.260 0.275
46.7032 6.917 0.268
46.7237 6.844 0.267
46.7441 6.292 0.256
46.7646 6.917 0.268
46.7850 6.146 0.253
46.8055 5.938 0.249
46.8260 6.448 0.259
46.8464 5.979 0.250
46.8669 6.021 0.250
46.8874 5.708 0.244
46.9078 5.844 0.247
46.9283 5.927 0.248
46.9487 6.552 0.261
46.9692 6.323 0.257
46.9897 6.281 0.256
47.0101 6.177 0.254
47.0306 5.823 0.246
47.0511 6.021 0.250
47.0715 6.010 0.250
47.0920 5.948 0.249
47.1124 6.219 0.255
47.1329 6.281 0.256
47.1534 6.292 0.256
47.1738 6.198 0.254
47.1943 6.177 0.254
47.2148 6.688 0.264
47.2352 6.479 0.260
47.2557 6.354 0.257
47.2761 6.406 0.258
47.2966 6.125 0.253
47.3171 6.115 0.252
47.3375 6.708 0.264
47.3580 6.521 0.261
47.3785 7.052 0.271
47.3989 6.927 0.269
47.4194 7.031 0.271
47.4399 7.010 0.270
47.4603 6.958 0.269
47.4808 7.490 0.279
47.5012 7.927 0.287
47.5217 8.281 0.294
47.5422 9.010 0.306
47.5626 9.469 0.314
47.5831 10.854 0.336
47.6036 11.875 0.352
47.6240 13.052 0.369
47.6445 13.438 0.374
47.6649 11.500 0.346
47.6854 10.438 0.330
47.7059 9.865 0.321
47.7263 9.865 0.321
47.7468 10.229 0.326
47.7673 9.938 0.322
47.7877 8.646 0.300
47.8082 8.542 0.298
47.8286 7.583 0.281
47.8491 7.063 0.271
47.8696 6.698 0.264
47.8900 6.417 0.259
47.9105 5.927 0.248
47.9310 6.042 0.251
47.9514 6.177 0.254
47.9719 5.813 0.246
47.9923 6.229 0.255
48.0128 5.906 0.248
48.0333 5.938 0.249
48.0537 5.531 0.240
48.0742 5.427 0.238
48.0947 5.552 0.240
48.1151 5.385 0.237
48.1356 5.875 0.247
48.1560 5.354 0.236
48.1765 5.521 0.240
48.1970 5.260 0.234
48.2174 5.500 0.239
48.2379 5.646 0.243
48.2584 5.917 0.248
48.2788 6.115 0.252
48.2993 5.854 0.247
48.3198 6.240 0.255
48.3402 6.198 0.254
48.3607 6.490 0.260
48.3811 6.573 0.262
48.4016 6.406 0.258
48.4221 6.156 0.253
48.4425 6.083 0.252
48.4630 6.375 0.258
48.4835 6.167 0.253
48.5039 6.031 0.251
48.5244 6.083 0.252
48.5448 6.125 0.253
48.5653 6.198 0.254
48.5858 5.646 0.243
48.6062 5.708 0.244
48.6267 5.792 0.246
48.6472 5.740 0.245
48.6676 5.563 0.241
48.6881 5.865 0.247
48.7085 6.396 0.258
48.7290 5.865 0.247
48.7495 6.448 0.259
48.7699 5.781 0.245
48.7904 5.792 0.246
48.8109 5.375 0.237
48.8313 5.865 0.247
48.8518 5.542 0.240
48.8722 5.479 0.239
48.8927 5.604 0.242
48.9132 5.990 0.250
48.9336 5.271 0.234
48.9541 5.229 0.233
48.9746 5.667 0.243
48.9950 5.281 0.235
49.0155 5.458 0.238
49.0359 5.635 0.242
49.0564 5.750 0.245
49.0769 5.917 0.248
49.0973 5.906 0.248
49.1178 5.563 0.241
49.1383 5.979 0.250
49.1587 5.583 0.241
49.1792 5.448 0.238
49.1997 5.625 0.242
49.2201 5.542 0.240
49.2406 6.115 0.252
49.2610 5.927 0.248
49.2815 6.250 0.255
49.3020 6.073 0.252
49.3224 6.146 0.253
49.3429 6.146 0.253
49.3634 5.875 0.247
49.3838 6.438 0.259
49.4043 5.729 0.244
49.4247 6.531 0.261
49.4452 6.646 0.263
49.4657 7.281 0.275
49.4861 6.438 0.259
49.5066 7.021 0.270
49.5271 7.646 0.282
49.5475 7.438 0.278
49.5680 8.396 0.296
49.5884 7.948 0.288
49.6089 7.823 0.285
49.6294 7.979 0.288
49.6498 7.354 0.277
49.6703 7.396 0.278
49.6908 7.760 0.284
49.7112 8.177 0.292
49.7317 8.063 0.290
49.7521 8.292 0.294
49.7726 8.083 0.290
49.7931 8.594 0.299
49.8135 10.021 0.323
49.8340 10.792 0.335
49.8545 12.104 0.355
49.8749 12.490 0.361
49.8954 12.031 0.354
49.9158 11.281 0.343
49.9363 10.729 0.334
49.9568 10.375 0.329
49.9772 10.458 0.330
49.9977 10.302 0.328
50.0182 10.448 0.330
50.0386 9.510 0.315
50.0591 8.719 0.301
50.0796 8.938 0.305
50.1000 8.260 0.293
50.1205 8.302 0.294
50.1409 8.344 0.295
50.1614 7.365 0.277
50.1819 8.313 0.294
50.2023 8.052 0.290
50.2228 8.198 0.292
50.2433 8.260 0.293
50.2637 8.135 0.291
50.2842 7.719 0.284
50.3046 8.021 0.289
50.3251 7.219 0.274
50.3456 7.250 0.275
50.3660 7.823 0.285
50.3865 7.771 0.285
50.4070 7.094 0.272
50.4274 7.083 0.272
50.4479 7.260 0.275
50.4683 7.354 0.277
50.4888 7.031 0.271
50.5093 6.594 0.262
50.5297 6.938 0.269
50.5502 6.323 0.257
50.5707 7.052 0.271
50.5911 7.094 0.272
50.6116 6.927 0.269
50.6320 6.969 0.269
50.6525 5.927 0.248
50.6730 6.563 0.261
50.6934 5.979 0.250
50.7139 6.438 0.259
50.7344 6.479 0.260
50.7548 6.031 0.251
50.7753 5.750 0.245
50.7958 6.385 0.258
50.8162 6.219 0.255
50.8367 6.406 0.258
50.8571 6.646 0.263
50.8776 6.490 0.260
50.8981 7.031 0.271
50.9185 8.135 0.291
50.9390 7.885 0.287
50.9595 8.885 0.304
50.9799 8.625 0.300
51.0004 8.406 0.296
51.0208 7.979 0.288
51.0413 7.719 0.284
51.0618 7.073 0.271
51.0822 7.094 0.272
51.1027 7.750 0.284
51.1232 7.625 0.282
51.1436 7.031 0.271
51.1641 6.490 0.260
51.1845 6.188 0.254
51.2050 6.438 0.259
51.2255 5.844 0.247
51.2459 5.875 0.247
51.2664 5.958 0.249
51.2869 5.792 0.246
51.3073 5.917 0.248
51.3278 6.188 0.254
51.3482 5.646 0.243
51.3687 5.375 0.237
51.3892 5.802 0.246
51.4096 5.979 0.250
51.4301 5.125 0.231
51.4506 5.760 0.245
51.4710 5.469 0.239
51.4915 5.823 0.246
51.5119 5.396 0.237
51.5324 5.333 0.236
51.5529 5.313 0.235
51.5733 6.167 0.253
51.5938 5.594 0.241
51.6143 5.906 0.248
51.6347 5.833 0.247
51.6552 6.573 0.262
51.6757 5.927 0.248
51.6961 6.000 0.250
51.7166 6.271 0.256
51.7370 6.156 0.253
51.7575 6.135 0.253
51.7780 5.844 0.247
51.7984 5.635 0.242
51.8189 5.250 0.234
51.8394 5.479 0.239
51.8598 5.333 0.236
51.8803 5.302 0.235
51.9007 5.833 0.247
51.9212 5.427 0.238
51.9417 5.594 0.241
51.9621 5.552 0.240
51.9826 4.885 0.226
52.0031 4.802 0.224
52.0235 5.188 0.232
52.0440 4.948 0.227
52.0644 5.115 0.231
52.0849 5.292 0.235
52.1054 5.604 0.242
52.1258 4.948 0.227
52.1463 4.865 0.225
52.1668 4.313 0.212
52.1872 4.865 0.225
52.2077 4.906 0.226
52.2281 4.802 0.224
52.2486 5.063 0.230
52.2691 4.885 0.226
52.2895 5.302 0.235
52.3100 4.708 0.221
52.3305 4.667 0.220
52.3509 4.938 0.227
52.3714 4.938 0.227
52.3918 5.125 0.231
52.4123 5.281 0.235
52.4328 5.146 0.232
52.4532 4.948 0.227
52.4737 4.927 0.227
52.4942 5.063 0.230
52.5146 5.292 0.235
52.5351 5.094 0.230
52.5556 4.750 0.222
52.5760 5.031 0.229
52.5965 5.021 0.229
52.6169 4.563 0.218
52.6374 4.885 0.226
52.6579 4.490 0.216
52.6783 4.771 0.223
52.6988 4.542 0.218
52.7193 4.667 0.220
52.7397 4.438 0.215
52.7602 4.802 0.224
52.7806 4.365 0.213
52.8011 4.677 0.221
52.8216 4.781 0.223
52.8420 4.760 0.223
52.8625 4.260 0.211
52.8830 4.688 0.221
52.9034 4.677 0.221
52.9239 4.542 0.218
52.9443 4.583 0.219
52.9648 4.917 0.226
52.9853 4.208 0.209
53.0057 4.125 0.207
53.0262 5.021 0.229
53.0467 4.625 0.219
53.0671 4.698 0.221
53.0876 4.583 0.219
53.1080 4.344 0.213
53.1285 4.417 0.214
53.1490 4.073 0.206
53.1694 4.823 0.224
53.1899 4.688 0.221
53.2104 5.177 0.232
53.2308 4.990 0.228
53.2513 4.729 0.222
53.2717 4.385 0.214
53.2922 4.646 0.220
53.3127 4.635 0.220
53.3331 4.542 0.218
53.3536 4.521 0.217
53.3741 4.177 0.209
53.3945 4.677 0.221
53.4150 4.375 0.213
53.4355 4.271 0.211
53.4559 4.156 0.208
53.4764 4.490 0.216
53.4968 3.917 0.202
53.5173 4.729 0.222
53.5378 4.542 0.218
53.5582 4.250 0.210
53.5787 4.010 0.204
53.5992 4.354 0.213
53.6196 3.583 0.193
53.6401 4.417 0.214
53.6605 4.406 0.214
53.6810 4.219 0.210
53.7015 4.479 0.216
53.7219 4.906 0.226
53.7424 4.677 0.221
53.7629 4.167 0.208
53.7833 4.865 0.225
53.8038 4.240 0.210
53.8242 4.250 0.210
53.8447 4.375 0.213
53.8652 4.135 0.208
53.8856 4.198 0.209
53.9061 4.198 0.209
53.9266 4.313 0.212
53.9470 4.219 0.210
53.9675 4.104 0.207
53.9879 4.323 0.212
54.0084 4.875 0.225
54.0289 4.542 0.218
54.0493 4.438 0.215
54.0698 4.219 0.210
54.0903 4.615 0.219
54.1107 4.802 0.224
54.1312 4.740 0.222
54.1516 5.135 0.231
54.1721 4.146 0.208
54.1926 5.125 0.231
54.2130 4.417 0.214
54.2335 4.531 0.217
54.2540 5.375 0.237
54.2744 4.823 0.224
54.2949 4.792 0.223
54.3154 4.792 0.223
54.3358 5.104 0.231
54.3563 4.490 0.216
54.3767 4.458 0.216
54.3972 4.594 0.219
54.4177 4.563 0.218
54.4381 4.250 0.210
54.4586 4.646 0.220
54.4791 4.281 0.211
54.4995 4.292 0.211
54.5200 4.302 0.212
54.5404 4.042 0.205
54.5609 4.885 0.226
54.5814 4.510 0.217
54.6018 4.729 0.222
54.6223 4.385 0.214
54.6428 4.281 0.211
54.6632 4.167 0.208
54.6837 4.698 0.221
54.7041 4.552 0.218
54.7246 4.313 0.212
54.7451 4.240 0.210
54.7655 4.000 0.204
54.7860 4.292 0.211
54.8065 3.906 0.202
54.8269 4.167 0.208
54.8474 3.917 0.202
54.8678 4.323 0.212
54.8883 4.521 0.217
54.9088 4.552 0.218
54.9292 4.490 0.216
54.9497 4.740 0.222
54.9702 4.688 0.221
54.9906 4.438 0.215
55.0111 5.104 0.231
55.0316 5.115 0.231
55.0520 5.531 0.240
55.0725 5.510 0.240
55.0929 6.729 0.265
55.1134 7.250 0.275
55.1339 8.167 0.292
55.1543 9.365 0.312
55.1748 11.438 0.345
55.1953 13.531 0.375
55.2157 13.385 0.373
55.2362 12.323 0.358
55.2566 11.198 0.342
55.2771 10.708 0.334
55.2976 10.448 0.330
55.3180 10.656 0.333
55.3385 10.396 0.329
55.3590 9.969 0.322
55.3794 9.583 0.316
55.3999 8.479 0.297
55.4203 7.521 0.280
55.4408 6.771 0.266
55.4613 6.469 0.260
55.4817 5.625 0.242
55.5022 5.313 0.235
55.5227 5.031 0.229
55.5431 4.500 0.217
55.5636 4.625 0.219
55.5840 4.094 0.207
55.6045 4.313 0.212
55.6250 4.313 0.212
55.6454 4.073 0.206
55.6659 4.573 0.218
55.6864 4.146 0.208
55.7068 4.219 0.210
55.7273 4.365 0.213
55.7477 4.427 0.215
55.7682 4.531 0.217
55.7887 4.656 0.220
55.8091 4.531 0.217
55.8296 4.604 0.219
55.8501 5.167 0.232
55.8705 4.531 0.217
55.8910 4.969 0.228
55.9115 4.906 0.226
55.9319 4.896 0.226
55.9524 5.042 0.229
55.9728 5.177 0.232
55.9933 5.125 0.231
56.0138 5.104 0.231
56.0342 5.323 0.235
56.0547 5.073 0.230
56.0752 5.229 0.233
56.0956 5.854 0.247
56.1161 6.385 0.258
56.1365 6.865 0.267
56.1570 7.625 0.282
56.1775 8.865 0.304
56.1979 9.542 0.315
56.2184 10.677 0.333
56.2389 9.323 0.312
56.2593 9.021 0.307
56.2798 7.948 0.288
56.3002 7.083 0.272
56.3207 7.146 0.273
56.3412 7.271 0.275
56.3616 7.156 0.273
56.3821 6.875 0.268
56.4026 6.438 0.259
56.4230 6.302 0.256
56.4435 5.552 0.240
56.4639 4.885 0.226
56.4844 4.719 0.222
56.5049 4.854 0.225
56.5253 4.323 0.212
56.5458 4.448 0.215
56.5663 4.375 0.213
56.5867 4.125 0.207
56.6072 4.229 0.210
56.6276 3.979 0.204
56.6481 4.240 0.210
56.6686 4.177 0.209
56.6890 3.969 0.203
56.7095 4.354 0.213
56.7300 4.427 0.215
56.7504 4.510 0.217
56.7709 4.031 0.205
56.7914 3.927 0.202
56.8118 3.938 0.203
56.8323 3.948 0.203
56.8527 3.927 0.202
56.8732 3.927 0.202
56.8937 4.042 0.205
56.9141 4.188 0.209
56.9346 4.094 0.207
56.9551 4.323 0.212
56.9755 3.760 0.198
56.9960 3.771 0.198
57.0164 4.354 0.213
57.0369 4.354 0.213
57.0574 3.771 0.198
57.0778 4.000 0.204
57.0983 4.219 0.210
57.1188 3.948 0.203
57.1392 3.552 0.192
57.1597 3.719 0.197
57.1801 3.677 0.196
57.2006 3.396 0.188
57.2211 3.927 0.202
57.2415 3.719 0.197
57.2620 3.458 0.190
57.2825 3.708 0.197
57.3029 3.583 0.193
57.3234 3.344 0.187
57.3438 3.552 0.192
57.3643 3.813 0.199
57.3848 3.948 0.203
57.4052 4.260 0.211
57.4257 4.010 0.204
57.4462 3.708 0.197
57.4666 3.885 0.201
57.4871 4.188 0.209
57.5075 3.979 0.204
57.5280 4.229 0.210
57.5485 4.271 0.211
57.5689 3.615 0.194
57.5894 4.323 0.212
57.6099 4.021 0.205
57.6303 4.531 0.217
57.6508 4.135 0.208
57.6713 4.365 0.213
57.6917 4.042 0.205
57.7122 4.385 0.214
57.7326 4.313 0.212
57.7531 4.802 0.224
57.7736 4.604 0.219
57.7940 5.219 0.233
57.8145 5.240 0.234
57.8350 5.813 0.246
57.8554 6.323 0.257
57.8759 6.875 0.268
57.8963 7.188 0.274
57.9168 7.917 0.287
57.9373 7.479 0.279
57.9577 7.542 0.280
57.9782 7.260 0.275
57.9987 5.958 0.249
58.0191 6.427 0.259
58.0396 5.979 0.250
58.0600 6.281 0.256
58.0805 6.000 0.250
58.1010 6.073 0.252
58.1214 5.719 0.244
58.1419 5.021 0.229
58.1624 4.917 0.226
58.1828 4.948 0.227
58.2033 5.031 0.229
58.2237 4.646 0.220
58.2442 4.813 0.224
58.2647 4.396 0.214
58.2851 4.583 0.219
58.3056 4.052 0.205
58.3261 4.625 0.219
58.3465 4.417 0.214
58.3670 4.198 0.209
58.3874 4.021 0.205
58.4079 4.333 0.212
58.4284 4.271 0.211
58.4488 4.177 0.209
58.4693 3.875 0.201
58.4898 3.990 0.204
58.5102 4.240 0.210
58.5307 4.698 0.221
58.5512 4.229 0.210
58.5716 3.969 0.203
58.5921 3.740 0.197
58.6125 3.854 0.200
58.6330 3.833 0.200
58.6535 4.063 0.206
58.6739 3.906 0.202
58.6944 4.010 0.204
58.7149 3.927 0.202
58.7353 4.260 0.211
58.7558 4.302 0.212
58.7762 4.229 0.210
58.7967 4.177 0.209
58.8172 4.010 0.204
58.8376 4.281 0.211
58.8581 4.625 0.219
58.8786 4.250 0.210
58.8990 4.458 0.216
58.9195 4.740 0.222
58.9399 4.125 0.207
58.9604 4.385 0.214
58.9809 4.510 0.217
59.0013 4.260 0.211
59.0218 4.406 0.214
59.0423 4.552 0.218
59.0627 4.365 0.213
59.0832 4.719 0.222
59.1036 5.000 0.228
59.1241 4.594 0.219
59.1446 5.104 0.231
59.1650 5.625 0.242
59.1855 5.688 0.243
59.2060 5.229 0.233
59.2264 5.531 0.240
59.2469 5.323 0.235
59.2674 4.917 0.226
59.2878 4.729 0.222
59.3083 4.615 0.219
59.3287 4.802 0.224
59.3492 4.563 0.218
59.3697 4.656 0.220
59.3901 4.823 0.224
59.4106 4.448 0.215
59.4311 4.073 0.206
59.4515 3.813 0.199
59.4720 4.063 0.206
59.4924 4.385 0.214
59.5129 3.948 0.203
59.5334 3.417 0.189
59.5538 3.917 0.202
59.5743 4.135 0.208
59.5948 4.677 0.221
59.6152 4.156 0.208
59.6357 3.958 0.203
59.6561 4.063 0.206
59.6766 4.021 0.205
59.6971 3.885 0.201
59.7175 3.906 0.202
59.7380 4.458 0.216
59.7585 4.240 0.210
59.7789 4.292 0.211
59.7994 4.479 0.216
59.8198 4.625 0.219
59.8403 4.979 0.228
59.8608 4.865 0.225
59.8812 5.635 0.242
59.9017 5.302 0.235
59.9222 5.458 0.238
59.9426 4.802 0.224
59.9631 4.604 0.219
59.9835 4.323 0.212
60.0040 4.688 0.221
60.0245 4.323 0.212
60.0449 4.438 0.215
60.0654 4.615 0.219
60.0859 4.510 0.217
60.1063 4.615 0.219
60.1268 3.948 0.203
60.1473 4.177 0.209
60.1677 3.792 0.199
60.1882 3.688 0.196
60.2086 3.469 0.190
60.2291 3.385 0.188
60.2496 3.896 0.201
60.2700 3.531 0.192
60.2905 3.615 0.194
60.3110 3.573 0.193
60.3314 3.458 0.190
60.3519 3.521 0.192
60.3723 3.833 0.200
60.3928 3.365 0.187
60.4133 3.594 0.193
60.4337 3.354 0.187
60.4542 3.573 0.193
60.4747 3.333 0.186
60.4951 3.573 0.193
60.5156 3.479 0.190
60.5360 3.260 0.184
60.5565 3.292 0.185
60.5770 3.750 0.198
60.5974 3.490 0.191
60.6179 3.448 0.190
60.6384 3.365 0.187
60.6588 3.656 0.195
60.6793 3.417 0.189
60.6997 3.250 0.184
60.7202 3.250 0.184
60.7407 4.052 0.205
60.7611 4.156 0.208
60.7816 3.542 0.192
60.8021 3.542 0.192
60.8225 3.833 0.200
60.8430 3.646 0.195
60.8634 3.521 0.192
60.8839 3.688 0.196
60.9044 3.542 0.192
60.9248 3.792 0.199
60.9453 3.417 0.189
60.9658 3.948 0.203
60.9862 3.594 0.193
61.0067 3.594 0.193
61.0272 3.542 0.192
61.0476 3.583 0.193
61.0681 3.396 0.188
61.0885 3.354 0.187
61.1090 3.802 0.199
61.1295 3.510 0.191
61.1499 3.375 0.188
61.1704 3.448 0.190
61.1909 4.000 0.204
61.2113 3.583 0.193
61.2318 3.573 0.193
61.2522 3.646 0.195
61.2727 3.615 0.194
61.2932 3.573 0.193
61.3136 3.490 0.191
61.3341 3.594 0.193
61.3546 3.958 0.203
61.3750 3.771 0.198
61.3955 3.479 0.190
61.4159 3.906 0.202
61.4364 3.604 0.194
61.4569 3.521 0.192
61.4773 3.479 0.190
61.4978 3.302 0.185
61.5183 3.354 0.187
61.5387 3.604 0.194
61.5592 3.740 0.197
61.5796 3.688 0.196
61.6001 3.167 0.182
61.6206 3.438 0.189
61.6410 3.313 0.186
61.6615 3.438 0.189
61.6820 3.417 0.189
61.7024 3.490 0.191
61.7229 3.146 0.181
61.7433 3.531 0.192
61.7638 3.313 0.186
61.7843 3.219 0.183
61.8047 3.417 0.189
61.8252 3.385 0.188
61.8457 3.323 0.186
61.8661 3.198 0.183
61.8866 3.583 0.193
61.9071 3.677 0.196
61.9275 3.552 0.192
61.9480 3.250 0.184
61.9684 3.333 0.186
61.9889 3.281 0.185
62.0094 3.458 0.190
62.0298 3.354 0.187
62.0503 3.719 0.197
62.0708 3.854 0.200
62.0912 4.010 0.204
62.1117 3.865 0.201
62.1321 4.021 0.205
62.1526 3.948 0.203
62.1731 3.927 0.202
62.1935 3.938 0.203
62.2140 4.229 0.210
62.2345 3.854 0.200
62.2549 3.385 0.188
62.2754 3.656 0.195
62.2958 3.573 0.193
62.3163 4.010 0.204
62.3368 3.583 0.193
62.3572 3.427 0.189
62.3777 3.438 0.189
62.3982 3.563 0.193
62.4186 3.500 0.191
62.4391 3.354 0.187
62.4595 3.021 0.177
62.4800 3.490 0.191
62.5005 3.250 0.184
62.5209 3.208 0.183
62.5414 2.906 0.174
62.5619 3.010 0.177
62.5823 3.406 0.188
62.6028 3.323 0.186
62.6232 3.229 0.183
62.6437 3.021 0.177
62.6642 3.094 0.180
62.6846 3.104 0.180
62.7051 3.156 0.181
62.7256 3.188 0.182
62.7460 2.823 0.171
62.7665 3.083 0.179
62.7870 2.917 0.174
62.8074 3.031 0.178
62.8279 3.198 0.183
62.8483 2.948 0.175
62.8688 3.104 0.180
62.8893 3.385 0.188
62.9097 3.438 0.189
62.9302 2.917 0.174
62.9507 3.115 0.180
62.9711 3.031 0.178
62.9916 3.083 0.179
63.0120 3.188 0.182
63.0325 3.094 0.180
63.0530 2.990 0.176
63.0734 3.573 0.193
63.0939 3.167 0.182
63.1144 3.198 0.183
63.1348 3.031 0.178
63.1553 3.365 0.187
63.1757 3.479 0.190
63.1962 3.135 0.181
63.2167 3.458 0.190
63.2371 2.938 0.175
63.2576 2.896 0.174
63.2781 3.146 0.181
63.2985 3.177 0.182
63.3190 3.313 0.186
63.3394 3.271 0.185
63.3599 3.615 0.194
63.3804 3.396 0.188
63.4008 3.375 0.188
63.4213 3.313 0.186
63.4418 3.615 0.194
63.4622 3.635 0.195
63.4827 3.500 0.191
63.5032 3.615 0.194
63.5236 3.802 0.199
63.5441 3.563 0.193
63.5645 3.781 0.198
63.5850 3.708 0.197
63.6055 3.771 0.198
63.6259 3.646 0.195
63.6464 4.333 0.212
63.6669 4.042 0.205
63.6873 3.573 0.193
63.7078 4.365 0.213
63.7282 3.948 0.203
63.7487 3.885 0.201
63.7692 4.073 0.206
63.7896 4.563 0.218
63.8101 4.365 0.213
63.8306 4.646 0.220
63.8510 4.427 0.215
63.8715 4.073 0.206
63.8919 4.563 0.218
63.9124 4.667 0.220
63.9329 4.177 0.209
63.9533 4.833 0.224
63.9738 4.740 0.222
63.9943 4.490 0.216
64.0147 4.250 0.210
64.0352 4.510 0.217
64.0556 4.427 0.215
64.0761 4.354 0.213
64.0966 4.250 0.210
64.1170 4.198 0.209
64.1375 3.896 0.201
64.1580 4.333 0.212
64.1784 4.146 0.208
64.1989 3.698 0.196
64.2193 4.365 0.213
64.2398 4.104 0.207
64.2603 3.781 0.198
64.2807 3.438 0.189
64.3012 3.688 0.196
64.3217 4.125 0.207
64.3421 4.000 0.204
64.3626 3.531 0.192
64.3831 4.125 0.207
64.4035 4.385 0.214
64.4240 3.823 0.200
64.4444 3.969 0.203
64.4649 3.865 0.201
64.4854 4.219 0.210
64.5058 3.708 0.197
64.5263 4.104 0.207
64.5468 4.042 0.205
64.5672 4.917 0.226
64.5877 4.406 0.214
64.6081 4.573 0.218
64.6286 5.719 0.244
64.6491 5.875 0.247
64.6695 6.010 0.250
64.6900 6.042 0.251
64.7105 5.583 0.241
64.7309 5.615 0.242
64.7514 5.979 0.250
64.7718 5.104 0.231
64.7923 5.688 0.243
64.8128 5.250 0.234
64.8332 5.458 0.238
64.8537 4.969 0.228
64.8742 4.823 0.224
64.8946 4.781 0.223
64.9151 4.823 0.224
64.9355 4.198 0.209
64.9560 4.260 0.211
64.9765 4.313 0.212
64.9969 3.906 0.202
65.0174 3.958 0.203
65.0379 3.875 0.201
65.0583 3.083 0.179
65.0788 3.760 0.198
65.0992 3.281 0.185
65.1197 3.375 0.188
65.1402 3.354 0.187
65.1606 3.479 0.190
65.1811 3.531 0.192
65.2016 3.510 0.191
65.2220 3.177 0.182
65.2425 3.000 0.177
65.2630 3.417 0.189
65.2834 3.021 0.177
65.3039 3.406 0.188
65.3243 3.385 0.188
65.3448 3.219 0.183
65.3653 3.313 0.186
65.3857 3.146 0.181
65.4062 3.604 0.194
65.4267 3.250 0.184
65.4471 3.177 0.182
65.4676 3.208 0.183
65.4880 3.490 0.191
65.5085 3.615 0.194
65.5290 4.271 0.211
65.5494 4.208 0.209
65.5699 4.615 0.219
65.5904 4.417 0.214
65.6108 4.500 0.217
65.6313 4.802 0.224
65.6517 4.427 0.215
65.6722 4.000 0.204
65.6927 4.177 0.209
65.7131 4.135 0.208
65.7336 3.781 0.198
65.7541 3.927 0.202
65.7745 3.979 0.204
65.7950 4.385 0.214
65.8154 3.948 0.203
65.8359 3.917 0.202
65.8564 3.917 0.202
65.8768 3.750 0.198
65.8973 3.646 0.195
65.9178 3.865 0.201
65.9382 3.698 0.196
65.9587 3.750 0.198
65.9791 3.490 0.191
65.9996 3.958 0.203
66.0201 3.583 0.193
66.0405 3.635 0.195
66.0610 3.833 0.200
66.0815 3.604 0.194
66.1019 3.615 0.194
66.1224 3.615 0.194
66.1429 3.604 0.194
66.1633 3.604 0.194
66.1838 3.479 0.190
66.2042 3.615 0.194
66.2247 3.750 0.198
66.2452 3.719 0.197
66.2656 3.875 0.201
66.2861 3.438 0.189
66.3066 3.854 0.200
66.3270 3.792 0.199
66.3475 3.917 0.202
66.3679 4.042 0.205
66.3884 4.219 0.210
66.4089 3.969 0.203
66.4293 3.771 0.198
66.4498 3.656 0.195
66.4703 3.781 0.198
66.4907 3.646 0.195
66.5112 3.458 0.190
66.5316 3.792 0.199
66.5521 3.594 0.193
66.5726 3.510 0.191
66.5930 3.344 0.187
66.6135 3.833 0.200
66.6340 3.417 0.189
66.6544 3.469 0.190
66.6749 3.740 0.197
66.6953 3.573 0.193
66.7158 3.552 0.192
66.7363 3.781 0.198
66.7567 3.583 0.193
66.7772 3.365 0.187
66.7977 3.542 0.192
66.8181 3.302 0.185
66.8386 3.552 0.192
66.8590 3.729 0.197
66.8795 3.083 0.179
66.9000 3.948 0.203
66.9204 4.000 0.204
66.9409 3.458 0.190
66.9614 4.063 0.206
66.9818 3.948 0.203
67.0023 3.677 0.196
67.0228 4.417 0.214
67.0432 4.448 0.215
67.0637 4.479 0.216
67.0841 5.802 0.246
67.1046 5.271 0.234
67.1251 6.167 0.253
67.1455 6.333 0.257
67.1660 6.542 0.261
67.1865 6.417 0.259
67.2069 5.854 0.247
67.2274 5.865 0.247
67.2478 4.844 0.225
67.2683 5.125 0.231
67.2888 5.260 0.234
67.3092 5.229 0.233
67.3297 5.167 0.232
67.3502 5.479 0.239
67.3706 5.260 0.234
67.3911 4.885 0.226
67.4115 4.500 0.217
67.4320 3.802 0.199
67.4525 4.458 0.216
67.4729 4.250 0.210
67.4934 4.083 0.206
67.5139 4.156 0.208
67.5343 3.469 0.190
67.5548 3.729 0.197
67.5752 3.458 0.190
67.5957 3.563 0.193
67.6162 3.531 0.192
67.6366 3.385 0.188
67.6571 3.323 0.186
67.6776 3.406 0.188
67.6980 3.260 0.184
67.7185 3.698 0.196
67.7389 3.469 0.190
67.7594 3.708 0.197
67.7799 3.740 0.197
67.8003 3.771 0.198
67.8208 3.542 0.192
67.8413 3.510 0.191
67.8617 3.667 0.195
67.8822 3.583 0.193
67.9027 3.531 0.192
67.9231 3.385 0.188
67.9436 3.313 0.186
67.9640 3.646 0.195
67.9845 3.406 0.188
68.0050 3.104 0.180
68.0254 3.583 0.193
68.0459 3.781 0.198
68.0664 3.313 0.186
68.0868 3.906 0.202
68.1073 3.740 0.197
68.1277 3.813 0.199
68.1482 3.781 0.198
68.1687 3.875 0.201
68.1891 3.427 0.189
68.2096 3.656 0.195
68.2301 3.385 0.188
68.2505 3.792 0.199
68.2710 4.052 0.205
68.2914 3.823 0.200
68.3119 4.302 0.212
68.3324 4.427 0.215
68.3528 4.375 0.213
68.3733 3.990 0.204
68.3938 4.063 0.206
68.4142 4.406 0.214
68.4347 3.750 0.198
68.4551 3.583 0.193
68.4756 3.938 0.203
68.4961 3.531 0.192
68.5165 3.552 0.192
68.5370 3.781 0.198
68.5575 3.719 0.197
68.5779 4.010 0.204
68.5984 4.073 0.206
68.6189 3.938 0.203
68.6393 3.958 0.203
68.6598 3.583 0.193
68.6802 3.521 0.192
68.7007 3.542 0.192
68.7212 3.531 0.192
68.7416 3.260 0.184
68.7621 3.552 0.192
68.7826 3.531 0.192
68.8030 3.500 0.191
68.8235 3.427 0.189
68.8439 3.698 0.196
68.8644 3.677 0.196
68.8849 3.896 0.201
68.9053 3.948 0.203
68.9258 3.792 0.199
68.9463 4.135 0.208
68.9667 3.917 0.202
68.9872 4.563 0.218
69.0076 4.271 0.211
69.0281 4.063 0.206
69.0486 4.313 0.212
69.0690 3.927 0.202
69.0895 3.260 0.184
69.1100 3.427 0.189
69.1304 3.646 0.195
69.1509 3.552 0.192
69.1713 3.615 0.194
69.1918 4.167 0.208
69.2123 3.750 0.198
69.2327 3.729 0.197
69.2532 3.771 0.198
69.2737 3.458 0.190
69.2941 3.302 0.185
69.3146 3.427 0.189
69.3350 3.271 0.185
69.3555 3.156 0.181
69.3760 3.208 0.183
69.3964 3.448 0.190
69.4169 2.885 0.173
69.4374 3.354 0.187
69.4578 2.885 0.173
69.4783 3.177 0.182
69.4988 3.125 0.180
69.5192 3.073 0.179
69.5397 3.208 0.183
69.5601 3.052 0.178
69.5806 2.906 0.174
69.6011 3.031 0.178
69.6215 2.813 0.171
69.6420 2.813 0.171
69.6625 2.677 0.167
69.6829 2.906 0.174
69.7034 2.521 0.162
69.7238 3.052 0.178
69.7443 2.833 0.172
69.7648 2.844 0.172
69.7852 3.135 0.181
69.8057 2.438 0.159
69.8262 2.729 0.169
69.8466 2.844 0.172
69.8671 2.802 0.171
69.8875 2.865 0.173
69.9080 3.010 0.177
69.9285 3.094 0.180
69.9489 2.917 0.174
69.9694 2.615 0.165
69.9899 2.958 0.176
70.0103 2.646 0.166
70.0308 2.760 0.170
70.0512 2.844 0.172
70.0717 2.792 0.171
70.0922 3.021 0.177
70.1126 3.010 0.177
70.1331 2.802 0.171
70.1536 3.031 0.178
70.1740 2.844 0.172
70.1945 2.563 0.163
70.2149 3.115 0.180
70.2354 2.917 0.174
70.2559 2.698 0.168
70.2763 3.000 0.177
70.2968 3.156 0.181
70.3173 3.010 0.177
70.3377 2.896 0.174
70.3582 2.698 0.168
70.3787 2.719 0.168
70.3991 3.240 0.184
70.4196 2.740 0.169
70.4400 2.844 0.172
70.4605 2.771 0.170
70.4810 3.135 0.181
70.5014 2.667 0.167
70.5219 3.052 0.178
70.5424 2.865 0.173
70.5628 2.740 0.169
70.5833 2.656 0.166
70.6037 2.708 0.168
70.6242 3.042 0.178
70.6447 2.677 0.167
70.6651 2.750 0.169
70.6856 2.635 0.166
70.7061 2.708 0.168
70.7265 2.594 0.164
70.7470 2.667 0.167
70.7674 2.469 0.160
70.7879 2.865 0.173
70.8084 2.552 0.163
70.8288 2.729 0.169
70.8493 2.458 0.160
70.8698 2.719 0.168
70.8902 2.615 0.165
70.9107 2.979 0.176
70.9311 2.927 0.175
70.9516 2.760 0.170
70.9721 2.521 0.162
70.9925 3.083 0.179
71.0130 2.917 0.174
71.0335 2.844 0.172
71.0539 2.760 0.170
71.0744 2.479 0.161
71.0948 2.500 0.161
71.1153 2.854 0.172
71.1358 2.833 0.172
71.1562 2.854 0.172
71.1767 2.667 0.167
71.1972 2.771 0.170
71.2176 2.406 0.158
71.2381 2.677 0.167
71.2586 2.708 0.168
71.2790 2.510 0.162
71.2995 2.719 0.168
71.3199 2.781 0.170
71.3404 2.458 0.160
71.3609 2.813 0.171
71.3813 2.656 0.166
71.4018 2.792 0.171
71.4223 2.740 0.169
71.4427 2.510 0.162
71.4632 2.365 0.157
71.4836 2.604 0.165
71.5041 2.479 0.161
71.5246 2.458 0.160
71.5450 2.542 0.163
71.5655 2.510 0.162
71.5860 2.344 0.156
71.6064 2.625 0.165
71.6269 2.625 0.165
71.6473 2.750 0.169
71.6678 2.531 0.162
71.6883 2.500 0.161
71.7087 2.344 0.156
71.7292 2.823 0.171
71.7497 2.760 0.170
71.7701 2.885 0.173
71.7906 3.135 0.181
71.8110 2.490 0.161
71.8315 2.635 0.166
71.8520 2.802 0.171
71.8724 2.625 0.165
71.8929 2.719 0.168
71.9134 2.760 0.170
71.9338 2.479 0.161
71.9543 2.438 0.159
71.9747 2.823 0.171
71.9952 2.552 0.163
72.0157 2.469 0.160
72.0361 2.740 0.169
72.0566 2.563 0.163
72.0771 2.563 0.163
72.0975 2.573 0.164
72.1180 2.490 0.161
72.1385 2.615 0.165
72.1589 2.521 0.162
72.1794 2.552 0.163
72.1998 2.656 0.166
72.2203 2.719 0.168
72.2408 2.646 0.166
72.2612 2.542 0.163
72.2817 2.531 0.162
72.3022 2.438 0.159
72.3226 2.865 0.173
72.3431 2.635 0.166
72.3635 2.656 0.166
72.3840 2.427 0.159
72.4045 2.531 0.162
72.4249 2.333 0.156
72.4454 2.635 0.166
72.4659 2.542 0.163
72.4863 2.323 0.156
72.5068 2.448 0.160
72.5272 2.573 0.164
72.5477 2.458 0.160
72.5682 2.323 0.156
72.5886 2.521 0.162
72.6091 2.448 0.160
72.6296 2.719 0.168
72.6500 2.719 0.168
72.6705 2.896 0.174
72.6909 2.510 0.162
72.7114 2.375 0.157
72.7319 2.604 0.165
72.7523 2.667 0.167
72.7728 2.823 0.171
72.7933 2.604 0.165
72.8137 2.552 0.163
72.8342 2.656 0.166
72.8547 2.625 0.165
72.8751 2.604 0.165
72.8956 3.073 0.179
72.9160 2.708 0.168
72.9365 3.031 0.178
72.9570 2.667 0.167
72.9774 2.438 0.159
72.9979 2.615 0.165
73.0184 2.708 0.168
73.0388 2.875 0.173
73.0593 2.719 0.168
73.0797 2.542 0.163
73.1002 2.698 0.168
73.1207 2.792 0.171
73.1411 2.563 0.163
73.1616 2.250 0.153
73.1821 2.656 0.166
73.2025 2.260 0.153
73.2230 1.802 0.137
73.2434 2.281 0.154
73.2639 2.281 0.154
73.2844 2.219 0.152
73.3048 2.292 0.155
73.3253 2.177 0.151
73.3458 2.552 0.163
73.3662 2.438 0.159
73.3867 2.615 0.165
73.4071 2.146 0.150
73.4276 2.229 0.152
73.4481 2.219 0.152
73.4685 2.208 0.152
73.4890 1.833 0.138
73.5095 2.458 0.160
73.5299 2.292 0.155
73.5504 2.219 0.152
73.5708 2.240 0.153
73.5913 2.135 0.149
73.6118 2.406 0.158
73.6322 2.271 0.154
73.6527 2.313 0.155
73.6732 2.438 0.159
73.6936 2.406 0.158
73.7141 2.302 0.155
73.7346 2.021 0.145
73.7550 2.427 0.159
73.7755 2.667 0.167
73.7959 2.323 0.156
73.8164 2.635 0.166
73.8369 2.427 0.159
73.8573 2.271 0.154
73.8778 2.167 0.150
73.8983 2.469 0.160
73.9187 2.510 0.162
73.9392 2.396 0.158
73.9596 2.583 0.164
73.9801 2.375 0.157
74.0006 2.281 0.154
74.0210 2.479 0.161
74.0415 2.698 0.168
74.0620 2.510 0.162
74.0824 2.490 0.161
74.1029 2.667 0.167
74.1233 2.375 0.157
74.1438 2.458 0.160
74.1643 2.625 0.165
74.1847 2.438 0.159
74.2052 2.510 0.162
74.2257 2.552 0.163
74.2461 2.552 0.163
74.2666 2.604 0.165
74.2870 2.250 0.153
74.3075 2.271 0.154
74.3280 2.510 0.162
74.3484 2.354 0.157
74.3689 2.302 0.155
74.3894 1.958 0.143
74.4098 2.073 0.147
74.4303 2.521 0.162
74.4507 2.333 0.156
74.4712 2.313 0.155
74.4917 2.146 0.150
74.5121 2.448 0.160
74.5326 2.396 0.158
74.5531 2.135 0.149
74.5735 2.188 0.151
74.5940 2.208 0.152
74.6145 2.448 0.160
74.6349 2.240 0.153
74.6554 2.292 0.155
74.6758 2.167 0.150
74.6963 2.156 0.150
74.7168 2.083 0.147
74.7372 2.073 0.147
74.7577 2.219 0.152
74.7782 2.208 0.152
74.7986 1.896 0.141
74.8191 2.396 0.158
74.8395 2.365 0.157
74.8600 2.115 0.148
74.8805 2.302 0.155
74.9009 2.531 0.162
74.9214 2.198 0.151
74.9419 2.115 0.148
74.9623 2.198 0.151
74.9828 2.438 0.159
75.0032 2.031 0.145
75.0237 2.115 0.148
75.0442 2.208 0.152
75.0646 2.292 0.155
75.0851 2.021 0.145
75.1056 2.135 0.149
75.1260 2.542 0.163
75.1465 2.542 0.163
75.1669 2.156 0.150
75.1874 2.260 0.153
75.2079 2.281 0.154
75.2283 2.115 0.148
75.2488 2.281 0.154
75.2693 2.313 0.155
75.2897 2.208 0.152
75.3102 2.438 0.159
75.3306 2.094 0.148
75.3511 2.219 0.152
75.3716 2.146 0.150
75.3920 2.219 0.152
75.4125 2.365 0.157
75.4330 2.573 0.164
75.4534 2.438 0.159
75.4739 2.490 0.161
75.4944 2.865 0.173
75.5148 2.510 0.162
75.5353 2.271 0.154
75.5557 2.510 0.162
75.5762 2.656 0.166
75.5967 2.677 0.167
75.6171 2.458 0.160
75.6376 2.396 0.158
75.6581 2.813 0.171
75.6785 2.719 0.168
75.6990 3.052 0.178
75.7194 3.073 0.179
75.7399 2.813 0.171
75.7604 3.125 0.180
75.7808 3.271 0.185
75.8013 3.625 0.194
75.8218 3.760 0.198
75.8422 3.438 0.189
75.8627 3.292 0.185
75.8831 3.323 0.186
75.9036 2.927 0.175
75.9241 3.292 0.185
75.9445 2.990 0.176
75.9650 3.021 0.177
75.9855 3.010 0.177
76.0059 2.927 0.175
76.0264 3.094 0.180
76.0468 2.948 0.175
76.0673 2.875 0.173
76.0878 2.958 0.176
76.1082 2.958 0.176
76.1287 2.677 0.167
76.1492 2.656 0.166
76.1696 2.667 0.167
76.1901 2.240 0.153
76.2105 2.250 0.153
76.2310 2.667 0.167
76.2515 2.521 0.162
76.2719 2.240 0.153
76.2924 2.438 0.159
76.3129 2.146 0.150
76.3333 2.438 0.159
76.3538 2.469 0.160
76.3743 2.490 0.161
76.3947 2.469 0.160
76.4152 2.490 0.161
76.4356 2.615 0.165
76.4561 2.156 0.150
76.4766 2.313 0.155
76.4970 2.271 0.154
76.5175 2.438 0.159
76.5380 2.604 0.165
76.5584 2.313 0.155
76.5789 2.573 0.164
76.5993 2.365 0.157
76.6198 2.490 0.161
76.6403 2.438 0.159
76.6607 2.208 0.152
76.6812 2.417 0.159
76.7017 2.542 0.163
76.7221 2.208 0.152
76.7426 2.208 0.152
76.7630 2.250 0.153
76.7835 2.198 0.151
76.8040 2.323 0.156
76.8244 2.146 0.150
76.8449 2.438 0.159
76.8654 2.240 0.153
76.8858 2.125 0.149
76.9063 2.177 0.151
76.9267 2.469 0.160
76.9472 2.354 0.157
76.9677 2.167 0.150
76.9881 2.260 0.153
77.0086 2.240 0.153
77.0291 2.542 0.163
77.0495 2.521 0.162
77.0700 2.250 0.153
77.0905 2.271 0.154
77.1109 2.344 0.156
77.1314 2.469 0.160
77.1518 2.281 0.154
77.1723 2.240 0.153
77.1928 2.313 0.155
77.2132 2.708 0.168
77.2337 2.667 0.167
77.2542 2.896 0.174
77.2746 2.719 0.168
77.2951 2.438 0.159
77.3155 2.521 0.162
77.3360 3.021 0.177
77.3565 2.271 0.154
77.3769 2.573 0.164
77.3974 2.688 0.167
77.4179 2.750 0.169
77.4383 2.771 0.170
77.4588 2.708 0.168
77.4792 2.406 0.158
77.4997 3.156 0.181
77.5202 2.917 0.174
77.5406 3.198 0.183
77.5611 2.969 0.176
77.5816 2.708 0.168
77.6020 3.104 0.180
77.6225 2.771 0.170
77.6429 3.302 0.185
77.6634 2.500 0.161
77.6839 2.896 0.174
77.7043 2.958 0.176
77.7248 2.771 0.170
77.7453 2.990 0.176
77.7657 2.531 0.162
77.7862 2.740 0.169
77.8066 3.094 0.180
77.8271 2.781 0.170
77.8476 2.594 0.164
77.8680 2.708 0.168
77.8885 2.604 0.165
77.9090 2.719 0.168
77.9294 2.740 0.169
77.9499 2.458 0.160
77.9704 2.844 0.172
77.9908 2.740 0.169
78.0113 2.750 0.169
78.0317 2.823 0.171
78.0522 2.688 0.167
78.0727 2.604 0.165
78.0931 2.552 0.163
78.1136 2.500 0.161
78.1341 2.469 0.160
78.1545 2.833 0.172
78.1750 2.385 0.158
78.1954 2.583 0.164
78.2159 2.177 0.151
78.2364 2.385 0.158
78.2568 2.167 0.150
78.2773 2.969 0.176
78.2978 2.615 0.165
78.3182 2.781 0.170
78.3387 2.698 0.168
78.3591 2.823 0.171
78.3796 2.563 0.163
78.4001 2.823 0.171
78.4205 2.823 0.171
78.4410 2.667 0.167
78.4615 2.833 0.172
78.4819 2.760 0.170
78.5024 2.688 0.167
78.5228 2.479 0.161
78.5433 2.500 0.161
78.5638 2.573 0.164
78.5842 2.479 0.161
78.6047 2.417 0.159
78.6252 2.490 0.161
78.6456 2.729 0.169
78.6661 2.688 0.167
78.6865 2.563 0.163
78.7070 2.531 0.162
78.7275 2.667 0.167
78.7479 2.833 0.172
78.7684 2.448 0.160
78.7889 2.552 0.163
78.8093 2.302 0.155
78.8298 2.729 0.169
78.8503 2.625 0.165
78.8707 2.552 0.163
78.8912 2.656 0.166
78.9116 2.667 0.167
78.9321 2.875 0.173
78.9526 2.375 0.157
78.9730 2.740 0.169
78.9935 2.323 0.156
79.0140 2.594 0.164
79.0344 2.604 0.165
79.0549 2.656 0.166
79.0753 2.740 0.169
79.0958 2.406 0.158
79.1163 2.469 0.160
79.1367 2.281 0.154
79.1572 2.240 0.153
79.1777 2.469 0.160
79.1981 2.708 0.168
79.2186 2.604 0.165
79.2390 2.292 0.155
79.2595 2.615 0.165
79.2800 2.302 0.155
79.3004 2.406 0.158
79.3209 2.604 0.165
79.3414 2.646 0.166
79.3618 2.510 0.162
79.3823 2.250 0.153
79.4027 2.521 0.162
79.4232 2.448 0.160
79.4437 2.667 0.167
79.4641 2.313 0.155
79.4846 2.573 0.164
79.5051 2.594 0.164
79.5255 2.490 0.161
79.5460 2.792 0.171
79.5664 2.719 0.168
79.5869 2.583 0.164
79.6074 2.958 0.176
79.6278 2.656 0.166
79.6483 2.750 0.169
79.6688 2.635 0.166
79.6892 3.021 0.177
79.7097 2.833 0.172
79.7302 2.406 0.158
79.7506 2.458 0.160
79.7711 2.740 0.169
79.7915 2.719 0.168
79.8120 2.938 0.175
79.8325 2.781 0.170
79.8529 2.760 0.170
79.8734 2.625 0.165
79.8939 2.760 0.170
79.9143 2.344 0.156
79.9348 2.385 0.158
79.9552 2.500 0.161
79.9757 2.708 0.168
79.9962 2.542 0.163
