'Id: "" Comment: "" Operator: "Lab Manager" Anode: "Cu" Scantype: "Locked Coupled" TimePerStep: "96" X: "0" Y: "0" Z: "0" 
5.0000 19.854 0.455
5.0205 20.823 0.466
5.0409 20.875 0.466
5.0614 21.052 0.468
5.0819 20.125 0.458
5.1023 20.865 0.466
5.1228 20.594 0.463
5.1432 19.719 0.453
5.1637 20.656 0.464
5.1842 20.031 0.457
5.2046 20.948 0.467
5.2251 19.958 0.456
5.2456 20.906 0.467
5.2660 20.052 0.457
5.2865 20.021 0.457
5.3069 20.469 0.462
5.3274 21.281 0.471
5.3479 19.740 0.453
5.3683 20.323 0.460
5.3888 19.646 0.452
5.4093 20.094 0.458
5.4297 20.063 0.457
5.4502 20.750 0.465
5.4706 20.729 0.465
5.4911 20.031 0.457
5.5116 19.823 0.454
5.5320 19.729 0.453
5.5525 19.885 0.455
5.5730 19.625 0.452
5.5934 19.990 0.456
5.6139 19.917 0.455
5.6343 19.760 0.454
5.6548 19.250 0.448
5.6753 19.625 0.452
5.6957 19.677 0.453
5.7162 18.646 0.441
5.7367 19.167 0.447
5.7571 19.844 0.455
5.7776 18.927 0.444
5.7980 19.281 0.448
5.8185 19.010 0.445
5.8390 19.313 0.449
5.8594 18.698 0.441
5.8799 18.740 0.442
5.9004 18.979 0.445
5.9208 18.979 0.445
5.9413 18.260 0.436
5.9618 19.917 0.455
5.9822 18.146 0.435
6.0027 18.979 0.445
6.0231 18.281 0.436
6.0436 18.625 0.440
6.0641 18.781 0.442
6.0845 18.896 0.444
6.1050 18.115 0.434
6.1255 18.198 0.435
6.1459 19.104 0.446
6.1664 18.073 0.434
6.1868 18.417 0.438
6.2073 18.125 0.435
6.2278 18.469 0.439
6.2482 17.594 0.428
6.2687 18.948 0.444
6.2892 18.656 0.441
6.3096 18.719 0.442
6.3301 19.323 0.449
6.3505 18.083 0.434
6.3710 18.573 0.440
6.3915 17.833 0.431
6.4119 17.781 0.430
6.4324 18.823 0.443
6.4529 17.896 0.432
6.4733 17.969 0.433
6.4938 18.833 0.443
6.5142 18.052 0.434
6.5347 18.115 0.434
6.5552 18.292 0.437
6.5756 18.146 0.435
6.5961 18.583 0.440
6.6166 18.885 0.444
6.6370 18.375 0.438
6.6575 18.490 0.439
6.6779 18.969 0.445
6.6984 18.365 0.437
6.7189 18.385 0.438
6.7393 17.677 0.429
6.7598 17.927 0.432
6.7803 18.219 0.436
6.8007 19.354 0.449
6.8212 18.771 0.442
6.8417 18.281 0.436
6.8621 17.771 0.430
6.8826 17.313 0.425
6.9030 18.354 0.437
6.9235 18.385 0.438
6.9440 18.969 0.445
6.9644 18.365 0.437
6.9849 18.469 0.439
7.0054 17.281 0.424
7.0258 18.083 0.434
7.0463 19.406 0.450
7.0667 18.365 0.437
7.0872 18.688 0.441
7.1077 17.792 0.430
7.1281 18.333 0.437
7.1486 18.385 0.438
7.1691 17.719 0.430
7.1895 17.677 0.429
7.2100 17.875 0.432
7.2304 17.896 0.432
7.2509 18.510 0.439
7.2714 17.698 0.429
7.2918 17.854 0.431
7.3123 17.854 0.431
7.3328 18.646 0.441
7.3532 18.885 0.444
7.3737 18.010 0.433
7.3941 17.844 0.431
7.4146 18.177 0.435
7.4351 18.146 0.435
7.4555 18.594 0.440
7.4760 18.094 0.434
7.4965 18.542 0.439
7.5169 18.552 0.440
7.5374 18.156 0.435
7.5579 19.417 0.450
7.5783 18.719 0.442
7.5988 18.052 0.434
7.6192 17.823 0.431
7.6397 17.719 0.430
7.6602 18.521 0.439
7.6806 18.698 0.441
7.7011 19.208 0.447
7.7216 18.531 0.439
7.7420 18.698 0.441
7.7625 18.740 0.442
7.7829 18.917 0.444
7.8034 18.781 0.442
7.8239 18.198 0.435
7.8443 18.833 0.443
7.8648 18.156 0.435
7.8853 18.115 0.434
7.9057 18.781 0.442
7.9262 19.333 0.449
7.9466 18.750 0.442
7.9671 18.406 0.438
7.9876 19.104 0.446
8.0080 18.313 0.437
8.0285 17.792 0.430
8.0490 19.313 0.449
8.0694 18.458 0.438
8.0899 19.083 0.446
8.1103 19.094 0.446
8.1308 18.427 0.438
8.1513 19.063 0.446
8.1717 18.406 0.438
8.1922 18.583 0.440
8.2127 19.479 0.450
8.2331 18.875 0.443
8.2536 19.177 0.447
8.2740 19.292 0.448
8.2945 19.385 0.449
8.3150 19.458 0.450
8.3354 18.479 0.439
8.3559 18.771 0.442
8.3764 18.510 0.439
8.3968 18.448 0.438
8.4173 19.156 0.447
8.4378 19.167 0.447
8.4582 19.250 0.448
8.4787 19.073 0.446
8.4991 18.219 0.436
8.5196 19.656 0.452
8.5401 19.365 0.449
8.5605 19.094 0.446
8.5810 18.781 0.442
8.6015 18.990 0.445
8.6219 18.740 0.442
8.6424 18.896 0.444
8.6628 20.000 0.456
8.6833 19.313 0.449
8.7038 18.667 0.441
8.7242 19.813 0.454
8.7447 18.938 0.444
8.7652 18.823 0.443
8.7856 19.198 0.447
8.8061 18.938 0.444
8.8265 19.573 0.452
8.8470 19.760 0.454
8.8675 19.073 0.446
8.8879 21.260 0.471
8.9084 20.646 0.464
8.9289 21.406 0.472
8.9493 21.229 0.470
8.9698 20.823 0.466
8.9902 21.323 0.471
9.0107 20.708 0.464
9.0312 20.563 0.463
9.0516 21.875 0.477
9.0721 22.385 0.483
9.0926 22.854 0.488
9.1130 23.656 0.496
9.1335 24.615 0.506
9.1539 25.531 0.516
9.1744 25.823 0.519
9.1949 30.083 0.560
9.2153 31.958 0.577
9.2358 36.667 0.618
9.2563 40.281 0.648
9.2767 43.771 0.675
9.2972 47.271 0.702
9.3177 44.531 0.681
9.3381 39.604 0.642
9.3586 37.135 0.622
9.3790 34.698 0.601
9.3995 34.083 0.596
9.4200 33.875 0.594
9.4404 34.094 0.596
9.4609 33.385 0.590
9.4814 33.885 0.594
9.5018 35.458 0.608
9.5223 35.948 0.612
9.5427 38.729 0.635
9.5632 43.104 0.670
9.5837 44.615 0.682
9.6041 47.979 0.707
9.6246 50.990 0.729
9.6451 56.104 0.764
9.6655 58.802 0.783
9.6860 63.906 0.816
9.7064 71.490 0.863
9.7269 80.729 0.917
9.7474 96.760 1.004
9.7678 120.375 1.120
9.7883 151.792 1.257
9.8088 203.302 1.455
9.8292 276.490 1.697
9.8497 379.125 1.987
9.8701 527.385 2.344
9.8906 664.969 2.632
9.9111 548.771 2.391
9.9315 305.771 1.785
9.9520 139.083 1.204
9.9725 80.625 0.916
9.9929 61.677 0.802
10.0134 51.802 0.735
10.0338 47.458 0.703
10.0543 43.031 0.670
10.0748 39.969 0.645
10.0952 39.604 0.642
10.1157 36.625 0.618
10.1362 33.490 0.591
10.1566 29.948 0.559
10.1771 28.531 0.545
10.1976 26.719 0.528
10.2180 25.646 0.517
10.2385 26.490 0.525
10.2589 25.500 0.515
10.2794 23.521 0.495
10.2999 25.094 0.511
10.3203 23.313 0.493
10.3408 23.698 0.497
10.3613 23.250 0.492
10.3817 22.677 0.486
10.4022 22.458 0.484
10.4226 22.354 0.483
10.4431 22.583 0.485
10.4636 22.177 0.481
10.4840 21.531 0.474
10.5045 22.052 0.479
10.5250 21.594 0.474
10.5454 22.438 0.483
10.5659 20.208 0.459
10.5863 20.604 0.463
10.6068 21.021 0.468
10.6273 20.281 0.460
10.6477 20.479 0.462
10.6682 20.135 0.458
10.6887 20.229 0.459
10.7091 20.000 0.456
10.7296 20.104 0.458
10.7500 20.156 0.458
10.7705 19.594 0.452
10.7910 19.323 0.449
10.8114 19.656 0.452
10.8319 19.229 0.448
10.8524 18.250 0.436
10.8728 19.125 0.446
10.8933 18.469 0.439
10.9137 17.792 0.430
10.9342 17.573 0.428
10.9547 18.698 0.441
10.9751 17.760 0.430
10.9956 17.667 0.429
11.0161 17.635 0.429
11.0365 17.198 0.423
11.0570 17.667 0.429
11.0775 17.083 0.422
11.0979 18.073 0.434
11.1184 17.188 0.423
11.1388 16.885 0.419
11.1593 17.510 0.427
11.1798 17.146 0.423
11.2002 17.531 0.427
11.2207 17.615 0.428
11.2412 15.792 0.406
11.2616 16.938 0.420
11.2821 17.208 0.423
11.3025 16.042 0.409
11.3230 15.958 0.408
11.3435 17.042 0.421
11.3639 15.792 0.406
11.3844 16.781 0.418
11.4049 16.542 0.415
11.4253 15.635 0.404
11.4458 15.583 0.403
11.4662 15.813 0.406
11.4867 16.156 0.410
11.5072 15.583 0.403
11.5276 15.104 0.397
11.5481 15.177 0.398
11.5686 14.958 0.395
11.5890 16.167 0.410
11.6095 15.021 0.396
11.6299 15.156 0.397
11.6504 15.490 0.402
11.6709 15.177 0.398
11.6913 15.333 0.400
11.7118 15.250 0.399
11.7323 14.948 0.395
11.7527 15.646 0.404
11.7732 15.542 0.402
11.7937 14.760 0.392
11.8141 14.740 0.392
11.8346 14.938 0.394
11.8550 14.104 0.383
11.8755 14.885 0.394
11.8960 14.000 0.382
11.9164 15.125 0.397
11.9369 14.042 0.382
11.9574 14.094 0.383
11.9778 14.271 0.386
11.9983 14.208 0.385
12.0187 14.427 0.388
12.0392 13.698 0.378
12.0597 14.208 0.385
12.0801 13.917 0.381
12.1006 13.813 0.379
12.1211 14.365 0.387
12.1415 13.427 0.374
12.1620 13.896 0.380
12.1824 13.896 0.380
12.2029 13.406 0.374
12.2234 13.552 0.376
12.2438 13.302 0.372
12.2643 13.979 0.382
12.2848 13.802 0.379
12.3052 13.104 0.369
12.3257 13.219 0.371
12.3461 13.188 0.371
12.3666 13.344 0.373
12.3871 13.344 0.373
12.4075 13.104 0.369
12.4280 12.698 0.364
12.4485 13.219 0.371
12.4689 13.198 0.371
12.4894 13.760 0.379
12.5098 13.583 0.376
12.5303 12.990 0.368
12.5508 13.563 0.376
12.5712 12.927 0.367
12.5917 13.031 0.368
12.6122 12.656 0.363
12.6326 12.292 0.358
12.6531 12.958 0.367
12.6736 12.417 0.360
12.6940 12.771 0.365
12.7145 12.427 0.360
12.7349 12.333 0.358
12.7554 11.979 0.353
12.7759 12.490 0.361
12.7963 12.823 0.365
12.8168 13.000 0.368
12.8373 12.438 0.360
12.8577 12.542 0.361
12.8782 12.073 0.355
12.8986 12.802 0.365
12.9191 12.219 0.357
12.9396 12.188 0.356
12.9600 12.375 0.359
12.9805 12.229 0.357
13.0010 12.271 0.358
13.0214 11.417 0.345
13.0419 11.313 0.343
13.0623 12.385 0.359
13.0828 11.375 0.344
13.1033 11.552 0.347
13.1237 11.417 0.345
13.1442 11.667 0.349
13.1647 11.719 0.349
13.1851 11.635 0.348
13.2056 11.531 0.347
13.2260 11.469 0.346
13.2465 11.896 0.352
13.2670 11.698 0.349
13.2874 11.073 0.340
13.3079 11.438 0.345
13.3284 11.135 0.341
13.3488 11.292 0.343
13.3693 10.958 0.338
13.3897 10.594 0.332
13.4102 11.313 0.343
13.4307 11.531 0.347
13.4511 11.135 0.341
13.4716 11.635 0.348
13.4921 11.135 0.341
13.5125 11.240 0.342
13.5330 11.844 0.351
13.5535 11.094 0.340
13.5739 10.042 0.323
13.5944 10.500 0.331
13.6148 11.052 0.339
13.6353 11.052 0.339
13.6558 10.969 0.338
13.6762 10.844 0.336
13.6967 10.688 0.334
13.7172 10.854 0.336
13.7376 10.281 0.327
13.7581 10.750 0.335
13.7785 10.802 0.335
13.7990 11.198 0.342
13.8195 10.292 0.327
13.8399 10.698 0.334
13.8604 10.229 0.326
13.8809 10.563 0.332
13.9013 9.958 0.322
13.9218 10.969 0.338
13.9422 10.854 0.336
13.9627 10.510 0.331
13.9832 10.479 0.330
14.0036 10.188 0.326
14.0241 10.646 0.333
14.0446 10.104 0.324
14.0650 10.844 0.336
14.0855 10.552 0.332
14.1059 10.531 0.331
14.1264 9.792 0.319
14.1469 10.563 0.332
14.1673 10.083 0.324
14.1878 10.635 0.333
14.2083 9.917 0.321
14.2287 9.625 0.317
14.2492 10.031 0.323
14.2696 10.677 0.333
14.2901 10.073 0.324
14.3106 10.281 0.327
14.3310 10.219 0.326
14.3515 10.219 0.326
14.3720 10.260 0.327
14.3924 9.969 0.322
14.4129 9.563 0.316
14.4334 10.031 0.323
14.4538 9.917 0.321
14.4743 9.979 0.322
14.4947 10.083 0.324
14.5152 9.740 0.319
14.5357 10.677 0.333
14.5561 9.531 0.315
14.5766 9.844 0.320
14.5971 9.635 0.317
14.6175 9.667 0.317
14.6380 9.813 0.320
14.6584 9.406 0.313
14.6789 10.354 0.328
14.6994 10.302 0.328
14.7198 9.938 0.322
14.7403 10.010 0.323
14.7608 10.010 0.323
14.7812 9.490 0.314
14.8017 9.604 0.316
14.8221 9.990 0.323
14.8426 9.656 0.317
14.8631 9.719 0.318
14.8835 9.198 0.310
14.9040 8.979 0.306
14.9245 9.510 0.315
14.9449 10.177 0.326
14.9654 9.573 0.316
14.9858 9.115 0.308
15.0063 9.385 0.313
15.0268 9.615 0.316
15.0472 8.969 0.306
15.0677 9.229 0.310
15.0882 9.688 0.318
15.1086 9.417 0.313
15.1291 9.750 0.319
15.1495 8.969 0.306
15.1700 8.740 0.302
15.1905 8.969 0.306
15.2109 9.458 0.314
15.2314 9.333 0.312
15.2519 9.188 0.309
15.2723 9.208 0.310
15.2928 9.438 0.314
15.3133 9.250 0.310
15.3337 9.563 0.316
15.3542 9.708 0.318
15.3746 8.781 0.302
15.3951 9.313 0.311
15.4156 9.281 0.311
15.4360 9.083 0.308
15.4565 8.646 0.300
15.4770 8.792 0.303
15.4974 8.854 0.304
15.5179 8.990 0.306
15.5383 9.188 0.309
15.5588 9.104 0.308
15.5793 8.771 0.302
15.5997 9.073 0.307
15.6202 8.635 0.300
15.6407 8.906 0.305
15.6611 8.604 0.299
15.6816 9.010 0.306
15.7020 9.083 0.308
15.7225 8.917 0.305
15.7430 9.188 0.309
15.7634 9.229 0.310
15.7839 8.865 0.304
15.8044 9.104 0.308
15.8248 8.594 0.299
15.8453 9.208 0.310
15.8657 8.854 0.304
15.8862 8.604 0.299
15.9067 9.313 0.311
15.9271 8.667 0.300
15.9476 9.333 0.312
15.9681 9.583 0.316
15.9885 8.938 0.305
16.0090 9.135 0.308
16.0295 9.115 0.308
16.0499 8.490 0.297
16.0704 8.771 0.302
16.0908 8.490 0.297
16.1113 8.438 0.296
16.1318 8.354 0.295
16.1522 8.344 0.295
16.1727 8.531 0.298
16.1932 8.188 0.292
16.2136 8.177 0.292
16.2341 8.594 0.299
16.2545 8.354 0.295
16.2750 8.563 0.299
16.2955 8.635 0.300
16.3159 8.510 0.298
16.3364 8.969 0.306
16.3569 8.021 0.289
16.3773 8.813 0.303
16.3978 8.083 0.290
16.4182 8.010 0.289
16.4387 8.854 0.304
16.4592 8.167 0.292
16.4796 8.219 0.293
16.5001 8.896 0.304
16.5206 8.354 0.295
16.5410 8.885 0.304
16.5615 7.865 0.286
16.5819 8.219 0.293
16.6024 8.896 0.304
16.6229 8.250 0.293
16.6433 8.406 0.296
16.6638 8.719 0.301
16.6843 9.000 0.306
16.7047 8.188 0.292
16.7252 8.146 0.291
16.7456 8.042 0.289
16.7661 8.240 0.293
16.7866 7.875 0.286
16.8070 8.719 0.301
16.8275 8.073 0.290
16.8480 8.292 0.294
16.8684 8.375 0.295
16.8889 8.938 0.305
16.9094 8.052 0.290
16.9298 8.406 0.296
16.9503 8.396 0.296
16.9707 7.271 0.275
16.9912 8.333 0.295
17.0117 8.323 0.294
17.0321 8.010 0.289
17.0526 8.156 0.291
17.0731 8.146 0.291
17.0935 8.240 0.293
17.1140 8.469 0.297
17.1344 7.740 0.284
17.1549 8.354 0.295
17.1754 8.469 0.297
17.1958 8.323 0.294
17.2163 8.396 0.296
17.2368 8.344 0.295
17.2572 8.990 0.306
17.2777 8.792 0.303
17.2981 9.219 0.310
17.3186 9.625 0.317
17.3391 9.646 0.317
17.3595 9.010 0.306
17.3800 9.781 0.319
17.4005 9.688 0.318
17.4209 9.208 0.310
17.4414 10.094 0.324
17.4618 10.344 0.328
17.4823 10.573 0.332
17.5028 10.625 0.333
17.5232 10.844 0.336
17.5437 10.115 0.325
17.5642 10.406 0.329
17.5846 9.635 0.317
17.6051 9.188 0.309
17.6255 9.344 0.312
17.6460 8.854 0.304
17.6665 9.010 0.306
17.6869 9.667 0.317
17.7074 9.208 0.310
17.7279 9.010 0.306
17.7483 9.135 0.308
17.7688 9.604 0.316
17.7893 10.021 0.323
17.8097 10.469 0.330
17.8302 10.813 0.336
17.8506 10.594 0.332
17.8711 10.604 0.332
17.8916 11.146 0.341
17.9120 11.385 0.344
17.9325 11.177 0.341
17.9530 11.917 0.352
17.9734 12.375 0.359
17.9939 12.958 0.367
18.0143 14.042 0.382
18.0348 15.635 0.404
18.0553 17.406 0.426
18.0757 18.604 0.440
18.0962 20.115 0.458
18.1167 18.885 0.444
18.1371 18.135 0.435
18.1576 18.094 0.434
18.1780 18.844 0.443
18.1985 22.031 0.479
18.2190 25.208 0.512
18.2394 32.344 0.580
18.2599 40.354 0.648
18.2804 50.156 0.723
18.3008 55.948 0.763
18.3213 55.604 0.761
18.3417 48.229 0.709
18.3622 42.479 0.665
18.3827 35.458 0.608
18.4031 29.396 0.553
18.4236 27.750 0.538
18.4441 24.979 0.510
18.4645 24.813 0.508
18.4850 24.906 0.509
18.5054 24.906 0.509
18.5259 25.042 0.511
18.5464 25.083 0.511
18.5668 24.198 0.502
18.5873 24.875 0.509
18.6078 25.104 0.511
18.6282 25.521 0.516
18.6487 24.844 0.509
18.6692 23.271 0.492
18.6896 22.948 0.489
18.7101 20.979 0.467
18.7305 21.521 0.473
18.7510 21.229 0.470
18.7715 20.938 0.467
18.7919 20.875 0.466
18.8124 19.927 0.456
18.8329 18.844 0.443
18.8533 18.115 0.434
18.8738 16.302 0.412
18.8942 14.656 0.391
18.9147 14.240 0.385
18.9352 13.740 0.378
18.9556 13.031 0.368
18.9761 12.167 0.356
18.9966 12.240 0.357
19.0170 12.052 0.354
19.0375 11.448 0.345
19.0579 11.656 0.348
19.0784 11.917 0.352
19.0989 11.469 0.346
19.1193 11.198 0.342
19.1398 11.615 0.348
19.1603 11.365 0.344
19.1807 11.458 0.345
19.2012 11.042 0.339
19.2216 11.573 0.347
19.2421 11.729 0.350
19.2626 11.240 0.342
19.2830 11.958 0.353
19.3035 11.615 0.348
19.3240 12.167 0.356
19.3444 11.354 0.344
19.3649 11.969 0.353
19.3853 12.219 0.357
19.4058 12.188 0.356
19.4263 11.885 0.352
19.4467 12.948 0.367
19.4672 13.052 0.369
19.4877 13.146 0.370
19.5081 14.302 0.386
19.5286 15.052 0.396
19.5491 14.823 0.393
19.5695 17.063 0.422
19.5900 16.813 0.418
19.6104 18.021 0.433
19.6309 19.021 0.445
19.6514 20.469 0.462
19.6718 23.135 0.491
19.6923 24.698 0.507
19.7128 28.854 0.548
19.7332 34.677 0.601
19.7537 43.844 0.676
19.7741 58.156 0.778
19.7946 84.698 0.939
19.8151 127.240 1.151
19.8355 176.417 1.356
19.8560 158.000 1.283
19.8765 116.969 1.104
19.8969 100.010 1.021
19.9174 58.135 0.778
19.9378 34.865 0.603
19.9583 26.667 0.527
19.9788 22.490 0.484
19.9992 20.875 0.466
20.0197 19.490 0.451
20.0402 18.385 0.438
20.0606 18.094 0.434
20.0811 17.865 0.431
20.1015 16.813 0.418
20.1220 16.729 0.417
20.1425 17.490 0.427
20.1629 17.031 0.421
20.1834 17.885 0.432
20.2039 19.250 0.448
20.2243 21.667 0.475
20.2448 24.781 0.508
20.2653 28.813 0.548
20.2857 30.292 0.562
20.3062 31.729 0.575
20.3266 29.438 0.554
20.3471 27.792 0.538
20.3676 24.302 0.503
20.3880 21.573 0.474
20.4085 20.490 0.462
20.4290 20.292 0.460
20.4494 20.375 0.461
20.4699 20.969 0.467
20.4903 20.094 0.458
20.5108 22.115 0.480
20.5313 21.708 0.476
20.5517 20.323 0.460
20.5722 20.260 0.459
20.5927 17.365 0.425
20.6131 15.917 0.407
20.6336 15.167 0.397
20.6540 12.969 0.368
20.6745 12.479 0.361
20.6950 12.344 0.359
20.7154 11.958 0.353
20.7359 11.719 0.349
20.7564 10.740 0.334
20.7768 10.365 0.329
20.7973 10.229 0.326
20.8177 10.094 0.324
20.8382 11.000 0.339
20.8587 10.031 0.323
20.8791 10.135 0.325
20.8996 10.135 0.325
20.9201 10.021 0.323
20.9405 10.313 0.328
20.9610 9.448 0.314
20.9814 9.479 0.314
21.0019 10.104 0.324
21.0224 10.750 0.335
21.0428 9.969 0.322
21.0633 10.240 0.327
21.0838 10.323 0.328
21.1042 9.948 0.322
21.1247 10.167 0.325
21.1452 10.031 0.323
21.1656 10.385 0.329
21.1861 9.885 0.321
21.2065 10.250 0.327
21.2270 9.708 0.318
21.2475 9.958 0.322
21.2679 9.625 0.317
21.2884 9.313 0.311
21.3089 10.115 0.325
21.3293 9.844 0.320
21.3498 9.969 0.322
21.3702 9.729 0.318
21.3907 10.490 0.331
21.4112 10.375 0.329
21.4316 10.271 0.327
21.4521 10.594 0.332
21.4726 9.948 0.322
21.4930 9.896 0.321
21.5135 9.813 0.320
21.5339 9.958 0.322
21.5544 9.865 0.321
21.5749 10.135 0.325
21.5953 9.688 0.318
21.6158 10.104 0.324
21.6363 9.750 0.319
21.6567 9.760 0.319
21.6772 9.750 0.319
21.6976 10.552 0.332
21.7181 10.208 0.326
21.7386 10.333 0.328
21.7590 10.615 0.333
21.7795 9.552 0.315
21.8000 10.271 0.327
21.8204 10.177 0.326
21.8409 10.198 0.326
21.8613 9.948 0.322
21.8818 10.490 0.331
21.9023 10.146 0.325
21.9227 10.167 0.325
21.9432 10.979 0.338
21.9637 11.708 0.349
21.9841 11.729 0.350
22.0046 11.781 0.350
22.0251 13.052 0.369
22.0455 13.990 0.382
22.0660 15.750 0.405
22.0864 17.719 0.430
22.1069 22.260 0.482
22.1274 28.500 0.545
22.1478 39.094 0.638
22.1683 52.688 0.741
22.1888 64.885 0.822
22.2092 59.823 0.789
22.2297 51.781 0.734
22.2501 45.031 0.685
22.2706 33.677 0.592
22.2911 25.688 0.517
22.3115 20.573 0.463
22.3320 17.573 0.428
22.3525 16.292 0.412
22.3729 16.000 0.408
22.3934 13.979 0.382
22.4138 13.115 0.370
22.4343 13.385 0.373
22.4548 11.833 0.351
22.4752 11.667 0.349
22.4957 11.510 0.346
22.5162 10.979 0.338
22.5366 10.042 0.323
22.5571 10.281 0.327
22.5775 10.260 0.327
22.5980 9.979 0.322
22.6185 9.438 0.314
22.6389 9.948 0.322
22.6594 9.104 0.308
22.6799 9.427 0.313
22.7003 9.042 0.307
22.7208 9.208 0.310
22.7412 9.531 0.315
22.7617 9.354 0.312
22.7822 9.323 0.312
22.8026 9.188 0.309
22.8231 8.552 0.298
22.8436 8.875 0.304
22.8640 8.927 0.305
22.8845 8.521 0.298
22.9050 9.010 0.306
22.9254 8.781 0.302
22.9459 8.844 0.304
22.9663 8.656 0.300
22.9868 8.490 0.297
23.0073 8.250 0.293
23.0277 8.458 0.297
23.0482 8.333 0.295
23.0687 8.177 0.292
23.0891 8.167 0.292
23.1096 8.052 0.290
23.1300 7.719 0.284
23.1505 7.802 0.285
23.1710 8.115 0.291
23.1914 8.479 0.297
23.2119 8.188 0.292
23.2324 8.240 0.293
23.2528 8.344 0.295
23.2733 7.948 0.288
23.2937 7.979 0.288
23.3142 7.750 0.284
23.3347 7.406 0.278
23.3551 7.979 0.288
23.3756 8.240 0.293
23.3961 8.573 0.299
23.4165 7.979 0.288
23.4370 7.896 0.287
23.4574 7.688 0.283
23.4779 8.198 0.292
23.4984 8.115 0.291
23.5188 8.271 0.294
23.5393 8.448 0.297
23.5598 8.271 0.294
23.5802 8.042 0.289
23.6007 8.677 0.301
23.6211 9.000 0.306
23.6416 9.625 0.317
23.6621 9.042 0.307
23.6825 8.927 0.305
23.7030 9.021 0.307
23.7235 9.073 0.307
23.7439 9.219 0.310
23.7644 8.667 0.300
23.7849 7.990 0.288
23.8053 7.990 0.288
23.8258 7.865 0.286
23.8462 8.010 0.289
23.8667 7.323 0.276
23.8872 8.063 0.290
23.9076 7.979 0.288
23.9281 7.781 0.285
23.9486 7.781 0.285
23.9690 7.646 0.282
23.9895 7.844 0.286
24.0099 7.542 0.280
24.0304 7.344 0.277
24.0509 7.740 0.284
24.0713 8.042 0.289
24.0918 7.875 0.286
24.1123 7.604 0.281
24.1327 7.833 0.286
24.1532 7.542 0.280
24.1736 8.135 0.291
24.1941 7.708 0.283
24.2146 7.583 0.281
24.2350 8.073 0.290
24.2555 8.396 0.296
24.2760 9.771 0.319
24.2964 10.948 0.338
24.3169 11.156 0.341
24.3373 12.781 0.365
24.3578 11.896 0.352
24.3783 10.563 0.332
24.3987 9.896 0.321
24.4192 8.927 0.305
24.4397 8.135 0.291
24.4601 7.833 0.286
24.4806 8.021 0.289
24.5011 7.521 0.280
24.5215 7.271 0.275
24.5420 7.469 0.279
24.5624 7.833 0.286
24.5829 6.979 0.270
24.6034 7.240 0.275
24.6238 7.469 0.279
24.6443 7.938 0.288
24.6648 7.083 0.272
24.6852 6.771 0.266
24.7057 6.500 0.260
24.7261 7.344 0.277
24.7466 6.760 0.265
24.7671 6.948 0.269
24.7875 7.240 0.275
24.8080 6.927 0.269
24.8285 7.104 0.272
24.8489 6.990 0.270
24.8694 7.146 0.273
24.8898 6.813 0.266
24.9103 7.240 0.275
24.9308 6.594 0.262
24.9512 7.010 0.270
24.9717 7.167 0.273
24.9922 6.813 0.266
25.0126 7.052 0.271
25.0331 7.135 0.273
25.0535 6.563 0.261
25.0740 7.333 0.276
25.0945 7.354 0.277
25.1149 7.052 0.271
25.1354 6.833 0.267
25.1559 6.854 0.267
25.1763 6.979 0.270
25.1968 6.719 0.265
25.2172 7.073 0.271
25.2377 6.938 0.269
25.2582 6.938 0.269
25.2786 6.750 0.265
25.2991 6.250 0.255
25.3196 6.833 0.267
25.3400 6.177 0.254
25.3605 6.292 0.256
25.3810 6.938 0.269
25.4014 6.333 0.257
25.4219 6.792 0.266
25.4423 6.490 0.260
25.4628 6.760 0.265
25.4833 6.406 0.258
25.5037 6.521 0.261
25.5242 6.927 0.269
25.5447 6.542 0.261
25.5651 6.375 0.258
25.5856 6.010 0.250
25.6060 6.385 0.258
25.6265 6.635 0.263
25.6470 7.365 0.277
25.6674 6.688 0.264
25.6879 6.625 0.263
25.7084 6.510 0.260
25.7288 6.729 0.265
25.7493 6.573 0.262
25.7697 6.677 0.264
25.7902 7.375 0.277
25.8107 6.573 0.262
25.8311 7.156 0.273
25.8516 7.031 0.271
25.8721 6.750 0.265
25.8925 6.594 0.262
25.9130 6.792 0.266
25.9334 6.583 0.262
25.9539 6.615 0.262
25.9744 6.667 0.264
25.9948 6.594 0.262
26.0153 6.938 0.269
26.0358 6.781 0.266
26.0562 6.865 0.267
26.0767 6.958 0.269
26.0971 7.156 0.273
26.1176 6.844 0.267
26.1381 6.594 0.262
26.1585 7.396 0.278
26.1790 6.854 0.267
26.1995 6.646 0.263
26.2199 6.938 0.269
26.2404 7.000 0.270
26.2609 7.125 0.272
26.2813 6.750 0.265
26.3018 6.865 0.267
26.3222 7.083 0.272
26.3427 6.427 0.259
26.3632 7.063 0.271
26.3836 7.573 0.281
26.4041 7.635 0.282
26.4246 7.010 0.270
26.4450 7.885 0.287
26.4655 7.813 0.285
26.4859 7.948 0.288
26.5064 8.458 0.297
26.5269 8.344 0.295
26.5473 8.542 0.298
26.5678 8.167 0.292
26.5883 8.094 0.290
26.6087 8.188 0.292
26.6292 8.208 0.292
26.6496 8.021 0.289
26.6701 8.365 0.295
26.6906 7.479 0.279
26.7110 7.698 0.283
26.7315 7.448 0.279
26.7520 8.188 0.292
26.7724 7.813 0.285
26.7929 8.521 0.298
26.8133 8.896 0.304
26.8338 9.177 0.309
26.8543 9.281 0.311
26.8747 10.021 0.323
26.8952 9.573 0.316
26.9157 9.823 0.320
26.9361 9.615 0.316
26.9566 9.031 0.307
26.9770 8.875 0.304
26.9975 8.448 0.297
27.0180 8.188 0.292
27.0384 7.615 0.282
27.0589 7.708 0.283
27.0794 7.188 0.274
27.0998 7.448 0.279
27.1203 7.229 0.274
27.1408 6.781 0.266
27.1612 7.365 0.277
27.1817 7.135 0.273
27.2021 6.365 0.257
27.2226 7.031 0.271
27.2431 6.885 0.268
27.2635 6.771 0.266
27.2840 6.167 0.253
27.3045 6.469 0.260
27.3249 7.010 0.270
27.3454 6.823 0.267
27.3658 6.771 0.266
27.3863 6.760 0.265
27.4068 6.542 0.261
27.4272 6.813 0.266
27.4477 6.708 0.264
27.4682 7.406 0.278
27.4886 6.906 0.268
27.5091 7.250 0.275
27.5295 6.823 0.267
27.5500 6.344 0.257
27.5705 7.010 0.270
27.5909 7.177 0.273
27.6114 6.948 0.269
27.6319 7.573 0.281
27.6523 6.729 0.265
27.6728 7.281 0.275
27.6932 7.740 0.284
27.7137 7.938 0.288
27.7342 7.208 0.274
27.7546 7.938 0.288
27.7751 7.333 0.276
27.7956 7.844 0.286
27.8160 7.854 0.286
27.8365 8.281 0.294
27.8569 8.115 0.291
27.8774 8.385 0.296
27.8979 8.792 0.303
27.9183 8.688 0.301
27.9388 8.854 0.304
27.9593 8.875 0.304
27.9797 8.854 0.304
28.0002 9.500 0.315
28.0207 8.885 0.304
28.0411 9.375 0.313
28.0616 9.073 0.307
28.0820 8.156 0.291
28.1025 8.135 0.291
28.1230 7.813 0.285
28.1434 6.948 0.269
28.1639 7.385 0.277
28.1844 7.104 0.272
28.2048 6.854 0.267
28.2253 6.896 0.268
28.2457 7.000 0.270
28.2662 6.688 0.264
28.2867 6.719 0.265
28.3071 6.802 0.266
28.3276 6.833 0.267
28.3481 6.500 0.260
28.3685 6.677 0.264
28.3890 6.115 0.252
28.4094 6.417 0.259
28.4299 6.833 0.267
28.4504 7.135 0.273
28.4708 6.594 0.262
28.4913 7.094 0.272
28.5118 6.896 0.268
28.5322 6.740 0.265
28.5527 6.896 0.268
28.5731 6.875 0.268
28.5936 7.469 0.279
28.6141 7.135 0.273
28.6345 6.792 0.266
28.6550 7.333 0.276
28.6755 7.771 0.285
28.6959 7.844 0.286
28.7164 8.031 0.289
28.7368 7.948 0.288
28.7573 8.188 0.292
28.7778 7.885 0.287
28.7982 8.208 0.292
28.8187 7.865 0.286
28.8392 7.885 0.287
28.8596 7.969 0.288
28.8801 7.646 0.282
28.9006 7.146 0.273
28.9210 6.135 0.253
28.9415 6.563 0.261
28.9619 6.792 0.266
28.9824 6.375 0.258
29.0029 6.344 0.257
29.0233 6.198 0.254
29.0438 6.365 0.257
29.0643 5.698 0.244
29.0847 5.958 0.249
29.1052 6.146 0.253
29.1256 6.250 0.255
29.1461 5.938 0.249
29.1666 6.083 0.252
29.1870 5.979 0.250
29.2075 6.333 0.257
29.2280 6.479 0.260
29.2484 6.635 0.263
29.2689 6.708 0.264
29.2893 6.885 0.268
29.3098 6.333 0.257
29.3303 6.188 0.254
29.3507 6.802 0.266
29.3712 6.313 0.256
29.3917 6.313 0.256
29.4121 6.583 0.262
29.4326 6.292 0.256
29.4530 6.604 0.262
29.4735 5.792 0.246
29.4940 6.375 0.258
29.5144 6.427 0.259
29.5349 5.958 0.249
29.5554 5.927 0.248
29.5758 5.885 0.248
29.5963 5.583 0.241
29.6168 6.104 0.252
29.6372 6.010 0.250
29.6577 5.979 0.250
29.6781 6.198 0.254
29.6986 6.198 0.254
29.7191 6.458 0.259
29.7395 6.823 0.267
29.7600 6.313 0.256
29.7805 5.771 0.245
29.8009 5.990 0.250
29.8214 6.052 0.251
29.8418 5.698 0.244
29.8623 6.188 0.254
29.8828 6.354 0.257
29.9032 6.573 0.262
29.9237 6.115 0.252
29.9442 6.500 0.260
29.9646 5.594 0.241
29.9851 6.385 0.258
30.0055 5.677 0.243
30.0260 6.063 0.251
30.0465 5.802 0.246
30.0669 6.427 0.259
30.0874 6.063 0.251
30.1079 6.125 0.253
30.1283 6.792 0.266
30.1488 6.510 0.260
30.1692 6.052 0.251
30.1897 5.906 0.248
30.2102 6.146 0.253
30.2306 6.167 0.253
30.2511 6.094 0.252
30.2716 6.198 0.254
30.2920 5.969 0.249
30.3125 5.823 0.246
30.3329 5.927 0.248
30.3534 5.615 0.242
30.3739 5.979 0.250
30.3943 5.906 0.248
30.4148 5.969 0.249
30.4353 6.208 0.254
30.4557 5.854 0.247
30.4762 6.375 0.258
30.4967 5.521 0.240
30.5171 6.281 0.256
30.5376 6.354 0.257
30.5580 6.448 0.259
30.5785 5.906 0.248
30.5990 6.000 0.250
30.6194 5.979 0.250
30.6399 5.792 0.246
30.6604 6.240 0.255
30.6808 6.750 0.265
30.7013 7.010 0.270
30.7217 6.625 0.263
30.7422 7.198 0.274
30.7627 6.990 0.270
30.7831 7.135 0.273
30.8036 7.510 0.280
30.8241 7.781 0.285
30.8445 8.271 0.294
30.8650 8.188 0.292
30.8854 9.313 0.311
30.9059 10.583 0.332
30.9264 12.979 0.368
30.9468 17.458 0.426
30.9673 24.865 0.509
30.9878 36.990 0.621
31.0082 53.833 0.749
31.0287 61.146 0.798
31.0491 53.479 0.746
31.0696 43.469 0.673
31.0901 42.417 0.665
31.1105 38.542 0.634
31.1310 27.719 0.537
31.1515 19.635 0.452
31.1719 14.354 0.387
31.1924 12.063 0.354
31.2128 10.448 0.330
31.2333 9.740 0.319
31.2538 8.948 0.305
31.2742 9.063 0.307
31.2947 7.854 0.286
31.3152 7.490 0.279
31.3356 7.094 0.272
31.3561 6.969 0.269
31.3766 6.677 0.264
31.3970 6.781 0.266
31.4175 6.385 0.258
31.4379 6.417 0.259
31.4584 6.198 0.254
31.4789 6.635 0.263
31.4993 6.167 0.253
31.5198 6.573 0.262
31.5403 6.292 0.256
31.5607 6.438 0.259
31.5812 6.563 0.261
31.6016 6.135 0.253
31.6221 6.135 0.253
31.6426 6.115 0.252
31.6630 5.990 0.250
31.6835 6.260 0.255
31.7040 6.594 0.262
31.7244 6.740 0.265
31.7449 6.458 0.259
31.7653 6.906 0.268
31.7858 6.729 0.265
31.8063 6.396 0.258
31.8267 6.875 0.268
31.8472 6.781 0.266
31.8677 7.073 0.271
31.8881 7.354 0.277
31.9086 7.208 0.274
31.9290 7.458 0.279
31.9495 7.042 0.271
31.9700 7.854 0.286
31.9904 7.906 0.287
32.0109 7.354 0.277
32.0314 8.125 0.291
32.0518 8.260 0.293
32.0723 9.052 0.307
32.0927 9.458 0.314
32.1132 9.781 0.319
32.1337 10.115 0.325
32.1541 9.573 0.316
32.1746 9.823 0.320
32.1951 9.229 0.310
32.2155 9.490 0.314
32.2360 8.958 0.305
32.2565 8.490 0.297
32.2769 8.885 0.304
32.2974 8.406 0.296
32.3178 8.635 0.300
32.3383 8.698 0.301
32.3588 8.365 0.295
32.3792 8.281 0.294
32.3997 8.552 0.298
32.4202 8.042 0.289
32.4406 8.750 0.302
32.4611 9.354 0.312
32.4815 9.875 0.321
32.5020 10.406 0.329
32.5225 10.594 0.332
32.5429 12.458 0.360
32.5634 14.781 0.392
32.5839 18.198 0.435
32.6043 21.885 0.477
32.6248 26.271 0.523
32.6452 24.479 0.505
32.6657 20.990 0.468
32.6862 18.323 0.437
32.7066 18.073 0.434
32.7271 16.063 0.409
32.7476 12.844 0.366
32.7680 10.406 0.329
32.7885 8.760 0.302
32.8089 8.771 0.302
32.8294 7.885 0.287
32.8499 7.354 0.277
32.8703 7.469 0.279
32.8908 6.854 0.267
32.9113 6.563 0.261
32.9317 7.104 0.272
32.9522 6.677 0.264
32.9726 6.625 0.263
32.9931 6.885 0.268
33.0136 6.938 0.269
33.0340 6.531 0.261
33.0545 6.354 0.257
33.0750 6.729 0.265
33.0954 6.365 0.257
33.1159 6.333 0.257
33.1364 6.125 0.253
33.1568 6.271 0.256
33.1773 5.917 0.248
33.1977 6.354 0.257
33.2182 6.260 0.255
33.2387 6.500 0.260
33.2591 6.229 0.255
33.2796 6.510 0.260
33.3001 5.552 0.240
33.3205 6.021 0.250
33.3410 5.760 0.245
33.3614 6.021 0.250
33.3819 6.135 0.253
33.4024 5.906 0.248
33.4228 5.823 0.246
33.4433 6.177 0.254
33.4638 6.146 0.253
33.4842 5.729 0.244
33.5047 5.740 0.245
33.5251 6.177 0.254
33.5456 5.479 0.239
33.5661 5.510 0.240
33.5865 5.302 0.235
33.6070 5.646 0.243
33.6275 6.219 0.255
33.6479 5.677 0.243
33.6684 5.323 0.235
33.6888 5.823 0.246
33.7093 6.042 0.251
33.7298 5.646 0.243
33.7502 5.688 0.243
33.7707 6.073 0.252
33.7912 5.792 0.246
33.8116 5.896 0.248
33.8321 5.750 0.245
33.8526 6.042 0.251
33.8730 6.427 0.259
33.8935 6.250 0.255
33.9139 5.115 0.231
33.9344 5.688 0.243
33.9549 5.885 0.248
33.9753 5.792 0.246
33.9958 5.906 0.248
34.0163 6.010 0.250
34.0367 5.646 0.243
34.0572 5.771 0.245
34.0776 5.177 0.232
34.0981 5.865 0.247
34.1186 5.260 0.234
34.1390 5.635 0.242
34.1595 5.667 0.243
34.1800 5.542 0.240
34.2004 5.500 0.239
34.2209 5.750 0.245
34.2413 5.406 0.237
34.2618 5.521 0.240
34.2823 5.552 0.240
34.3027 5.208 0.233
34.3232 5.375 0.237
34.3437 5.448 0.238
34.3641 5.375 0.237
34.3846 5.927 0.248
34.4050 5.823 0.246
34.4255 5.865 0.247
34.4460 6.010 0.250
34.4664 5.313 0.235
34.4869 5.552 0.240
34.5074 5.323 0.235
34.5278 5.573 0.241
34.5483 5.292 0.235
34.5687 5.479 0.239
34.5892 5.594 0.241
34.6097 5.833 0.247
34.6301 5.438 0.238
34.6506 5.740 0.245
34.6711 5.875 0.247
34.6915 5.438 0.238
34.7120 5.208 0.233
34.7325 5.688 0.243
34.7529 5.417 0.238
34.7734 5.240 0.234
34.7938 5.406 0.237
34.8143 5.521 0.240
34.8348 5.365 0.236
34.8552 5.375 0.237
34.8757 5.281 0.235
34.8962 4.969 0.228
34.9166 5.604 0.242
34.9371 5.396 0.237
34.9575 5.542 0.240
34.9780 5.406 0.237
34.9985 5.385 0.237
35.0189 5.219 0.233
35.0394 5.115 0.231
35.0599 5.250 0.234
35.0803 5.427 0.238
35.1008 5.854 0.247
35.1212 5.292 0.235
35.1417 5.979 0.250
35.1622 5.917 0.248
35.1826 5.677 0.243
35.2031 5.438 0.238
35.2236 5.688 0.243
35.2440 6.073 0.252
35.2645 6.188 0.254
35.2849 5.938 0.249
35.3054 5.604 0.242
35.3259 5.573 0.241
35.3463 5.188 0.232
35.3668 5.604 0.242
35.3873 5.823 0.246
35.4077 6.083 0.252
35.4282 5.979 0.250
35.4486 6.198 0.254
35.4691 5.646 0.243
35.4896 5.740 0.245
35.5100 5.646 0.243
35.5305 6.156 0.253
35.5510 5.854 0.247
35.5714 6.240 0.255
35.5919 6.198 0.254
35.6124 6.146 0.253
35.6328 6.000 0.250
35.6533 6.052 0.251
35.6737 6.135 0.253
35.6942 6.073 0.252
35.7147 6.438 0.259
35.7351 6.500 0.260
35.7556 6.573 0.262
35.7761 6.135 0.253
35.7965 6.167 0.253
35.8170 6.375 0.258
35.8374 6.615 0.262
35.8579 5.844 0.247
35.8784 6.865 0.267
35.8988 7.156 0.273
35.9193 6.740 0.265
35.9398 7.896 0.287
35.9602 7.500 0.280
35.9807 7.844 0.286
36.0011 8.615 0.300
36.0216 8.229 0.293
36.0421 8.823 0.303
36.0625 9.271 0.311
36.0830 9.656 0.317
36.1035 10.688 0.334
36.1239 11.729 0.350
36.1444 11.458 0.345
36.1648 11.125 0.340
36.1853 11.229 0.342
36.2058 11.250 0.342
36.2262 10.938 0.338
36.2467 11.260 0.342
36.2672 11.031 0.339
36.2876 11.833 0.351
36.3081 11.427 0.345
36.3285 11.802 0.351
36.3490 11.521 0.346
36.3695 12.354 0.359
36.3899 12.760 0.365
36.4104 14.010 0.382
36.4309 14.635 0.390
36.4513 15.094 0.397
36.4718 15.552 0.402
36.4923 16.875 0.419
36.5127 18.115 0.434
36.5332 19.510 0.451
36.5536 23.938 0.499
36.5741 28.750 0.547
36.5946 34.615 0.600
36.6150 36.469 0.616
36.6355 31.510 0.573
36.6560 26.969 0.530
36.6764 25.927 0.520
36.6969 25.792 0.518
36.7173 22.938 0.489
36.7378 19.823 0.454
36.7583 16.427 0.414
36.7787 15.677 0.404
36.7992 14.385 0.387
36.8197 14.573 0.390
36.8401 13.958 0.381
36.8606 13.979 0.382
36.8810 14.729 0.392
36.9015 14.521 0.389
36.9220 15.385 0.400
36.9424 15.708 0.405
36.9629 17.427 0.426
36.9834 19.917 0.455
37.0038 23.729 0.497
37.0243 28.052 0.541
37.0447 33.375 0.590
37.0652 41.833 0.660
37.0857 45.010 0.685
37.1061 40.063 0.646
37.1266 35.646 0.609
37.1471 31.823 0.576
37.1675 31.083 0.569
37.1880 28.917 0.549
37.2084 23.677 0.497
37.2289 19.302 0.448
37.2494 15.479 0.402
37.2698 12.854 0.366
37.2903 12.438 0.360
37.3108 11.667 0.349
37.3312 11.167 0.341
37.3517 10.573 0.332
37.3722 9.979 0.322
37.3926 9.813 0.320
37.4131 9.635 0.317
37.4335 9.625 0.317
37.4540 9.844 0.320
37.4745 9.896 0.321
37.4949 10.125 0.325
37.5154 9.573 0.316
37.5359 10.104 0.324
37.5563 10.833 0.336
37.5768 11.094 0.340
37.5972 10.865 0.336
37.6177 12.219 0.357
37.6382 12.094 0.355
37.6586 13.177 0.370
37.6791 13.167 0.370
37.6996 13.646 0.377
37.7200 12.740 0.364
37.7405 11.969 0.353
37.7609 12.125 0.355
37.7814 10.792 0.335
37.8019 10.760 0.335
37.8223 10.677 0.333
37.8428 10.406 0.329
37.8633 10.573 0.332
37.8837 10.073 0.324
37.9042 10.385 0.329
37.9246 10.365 0.329
37.9451 11.406 0.345
37.9656 12.583 0.362
37.9860 14.417 0.388
38.0065 16.948 0.420
38.0270 18.510 0.439
38.0474 17.906 0.432
38.0679 16.510 0.415
38.0884 15.896 0.407
38.1088 15.167 0.397
38.1293 14.427 0.388
38.1497 13.458 0.374
38.1702 12.865 0.366
38.1907 10.948 0.338
38.2111 10.688 0.334
38.2316 10.854 0.336
38.2521 9.969 0.322
38.2725 10.135 0.325
38.2930 10.271 0.327
38.3134 10.083 0.324
38.3339 9.938 0.322
38.3544 10.365 0.329
38.3748 10.896 0.337
38.3953 11.750 0.350
38.4158 12.979 0.368
38.4362 14.542 0.389
38.4567 16.396 0.413
38.4771 16.719 0.417
38.4976 15.135 0.397
38.5181 13.302 0.372
38.5385 13.313 0.372
38.5590 13.219 0.371
38.5795 12.521 0.361
38.5999 11.396 0.345
38.6204 9.875 0.321
38.6408 8.865 0.304
38.6613 8.740 0.302
38.6818 8.385 0.296
38.7022 8.229 0.293
38.7227 7.802 0.285
38.7432 7.646 0.282
38.7636 7.073 0.271
38.7841 7.188 0.274
38.8045 7.281 0.275
38.8250 7.208 0.274
38.8455 7.063 0.271
38.8659 6.510 0.260
38.8864 7.073 0.271
38.9069 7.344 0.277
38.9273 7.385 0.277
38.9478 7.104 0.272
38.9683 7.365 0.277
38.9887 7.354 0.277
39.0092 7.333 0.276
39.0296 7.135 0.273
39.0501 6.865 0.267
39.0706 7.365 0.277
39.0910 7.490 0.279
39.1115 7.469 0.279
39.1320 7.208 0.274
39.1524 7.271 0.275
39.1729 7.677 0.283
39.1933 7.458 0.279
39.2138 7.323 0.276
39.2343 7.875 0.286
39.2547 8.375 0.295
39.2752 7.813 0.285
39.2957 7.792 0.285
39.3161 8.260 0.293
39.3366 8.604 0.299
39.3570 8.760 0.302
39.3775 8.583 0.299
39.3980 8.646 0.300
39.4184 8.573 0.299
39.4389 8.740 0.302
39.4594 8.708 0.301
39.4798 8.469 0.297
39.5003 8.542 0.298
39.5207 8.698 0.301
39.5412 8.417 0.296
39.5617 8.156 0.291
39.5821 8.583 0.299
39.6026 8.542 0.298
39.6231 8.844 0.304
39.6435 9.167 0.309
39.6640 9.625 0.317
39.6844 9.646 0.317
39.7049 9.656 0.317
39.7254 10.135 0.325
39.7458 10.417 0.329
39.7663 11.948 0.353
39.7868 14.156 0.384
39.8072 14.938 0.394
39.8277 14.115 0.383
39.8482 13.188 0.371
39.8686 12.271 0.358
39.8891 11.885 0.352
39.9095 11.667 0.349
39.9300 11.510 0.346
39.9505 10.667 0.333
39.9709 9.500 0.315
39.9914 9.417 0.313
40.0119 9.031 0.307
40.0323 9.583 0.316
40.0528 9.292 0.311
40.0732 9.010 0.306
40.0937 9.719 0.318
40.1142 9.250 0.310
40.1346 9.448 0.314
40.1551 9.500 0.315
40.1756 9.594 0.316
40.1960 9.792 0.319
40.2165 10.635 0.333
40.2369 11.406 0.345
40.2574 11.927 0.352
40.2779 12.990 0.368
40.2983 13.510 0.375
40.3188 12.146 0.356
40.3393 10.865 0.336
40.3597 11.094 0.340
40.3802 11.396 0.345
40.4006 11.531 0.347
40.4211 11.271 0.343
40.4416 10.063 0.324
40.4620 9.594 0.316
40.4825 9.198 0.310
40.5030 9.927 0.322
40.5234 9.333 0.312
40.5439 9.990 0.323
40.5643 10.146 0.325
40.5848 9.719 0.318
40.6053 8.938 0.305
40.6257 9.552 0.315
40.6462 9.344 0.312
40.6667 9.094 0.308
40.6871 9.135 0.308
40.7076 8.729 0.302
40.7281 9.104 0.308
40.7485 8.844 0.304
40.7690 7.969 0.288
40.7894 8.125 0.291
40.8099 7.698 0.283
40.8304 7.917 0.287
40.8508 7.344 0.277
40.8713 7.240 0.275
40.8918 7.729 0.284
40.9122 7.479 0.279
40.9327 7.510 0.280
40.9531 7.542 0.280
40.9736 8.229 0.293
40.9941 8.417 0.296
41.0145 8.208 0.292
41.0350 9.427 0.313
41.0555 9.896 0.321
41.0759 11.135 0.341
41.0964 13.573 0.376
41.1168 14.625 0.390
41.1373 15.490 0.402
41.1578 15.385 0.400
41.1782 13.552 0.376
41.1987 12.833 0.366
41.2192 12.563 0.362
41.2396 12.260 0.357
41.2601 11.844 0.351
41.2805 10.917 0.337
41.3010 9.198 0.310
41.3215 8.677 0.301
41.3419 8.146 0.291
41.3624 7.719 0.284
41.3829 7.385 0.277
41.4033 7.698 0.283
41.4238 6.542 0.261
41.4442 6.625 0.263
41.4647 6.979 0.270
41.4852 6.917 0.268
41.5056 6.875 0.268
41.5261 7.156 0.273
41.5466 7.396 0.278
41.5670 7.177 0.273
41.5875 7.292 0.276
41.6080 7.573 0.281
41.6284 7.698 0.283
41.6489 7.813 0.285
41.6693 7.625 0.282
41.6898 7.688 0.283
41.7103 8.010 0.289
41.7307 7.688 0.283
41.7512 6.781 0.266
41.7717 7.083 0.272
41.7921 7.156 0.273
41.8126 7.490 0.279
41.8330 7.052 0.271
41.8535 7.125 0.272
41.8740 6.146 0.253
41.8944 6.427 0.259
41.9149 6.531 0.261
41.9354 6.406 0.258
41.9558 6.542 0.261
41.9763 6.156 0.253
41.9967 6.438 0.259
42.0172 6.042 0.251
42.0377 6.219 0.255
42.0581 6.146 0.253
42.0786 6.083 0.252
42.0991 6.323 0.257
42.1195 6.146 0.253
42.1400 5.677 0.243
42.1604 6.125 0.253
42.1809 5.927 0.248
42.2014 5.969 0.249
42.2218 5.875 0.247
42.2423 6.156 0.253
42.2628 6.146 0.253
42.2832 6.375 0.258
42.3037 6.406 0.258
42.3242 6.313 0.256
42.3446 6.510 0.260
42.3651 6.719 0.265
42.3855 6.729 0.265
42.4060 6.302 0.256
42.4265 6.188 0.254
42.4469 6.094 0.252
42.4674 6.417 0.259
42.4879 6.417 0.259
42.5083 6.698 0.264
42.5288 6.469 0.260
42.5492 6.604 0.262
42.5697 6.375 0.258
42.5902 6.198 0.254
42.6106 6.208 0.254
42.6311 6.698 0.264
42.6516 6.656 0.263
42.6720 6.396 0.258
42.6925 6.302 0.256
42.7129 6.823 0.267
42.7334 6.198 0.254
42.7539 6.417 0.259
42.7743 6.896 0.268
42.7948 6.417 0.259
42.8153 6.229 0.255
42.8357 6.521 0.261
42.8562 5.813 0.246
42.8766 6.229 0.255
42.8971 6.250 0.255
42.9176 6.417 0.259
42.9380 6.698 0.264
42.9585 6.292 0.256
42.9790 6.229 0.255
42.9994 6.927 0.269
43.0199 6.583 0.262
43.0403 6.563 0.261
43.0608 7.021 0.270
43.0813 7.438 0.278
43.1017 6.677 0.264
43.1222 6.667 0.264
43.1427 8.031 0.289
43.1631 7.854 0.286
43.1836 9.000 0.306
43.2041 9.115 0.308
43.2245 10.000 0.323
43.2450 9.573 0.316
43.2654 9.333 0.312
43.2859 9.167 0.309
43.3064 9.260 0.311
43.3268 9.531 0.315
43.3473 9.823 0.320
43.3678 9.448 0.314
43.3882 9.042 0.307
43.4087 8.969 0.306
43.4291 10.177 0.326
43.4496 9.938 0.322
43.4701 10.354 0.328
43.4905 11.354 0.344
43.5110 11.781 0.350
43.5315 12.719 0.364
43.5519 14.927 0.394
43.5724 16.719 0.417
43.5928 19.990 0.456
43.6133 24.667 0.507
43.6338 25.792 0.518
43.6542 25.031 0.511
43.6747 21.667 0.475
43.6952 18.177 0.435
43.7156 18.063 0.434
43.7361 17.427 0.426
43.7565 18.385 0.438
43.7770 15.365 0.400
43.7975 13.938 0.381
43.8179 11.010 0.339
43.8384 10.479 0.330
43.8589 9.302 0.311
43.8793 8.323 0.294
43.8998 7.854 0.286
43.9202 7.781 0.285
43.9407 7.427 0.278
43.9612 7.750 0.284
43.9816 7.813 0.285
44.0021 7.823 0.285
44.0226 7.510 0.280
44.0430 7.635 0.282
44.0635 7.792 0.285
44.0840 8.031 0.289
44.1044 7.938 0.288
44.1249 8.823 0.303
44.1453 8.219 0.293
44.1658 8.573 0.299
44.1863 8.042 0.289
44.2067 8.667 0.300
44.2272 8.656 0.300
44.2477 8.094 0.290
44.2681 7.438 0.278
44.2886 7.333 0.276
44.3090 7.563 0.281
44.3295 7.885 0.287
44.3500 6.958 0.269
44.3704 7.615 0.282
44.3909 6.438 0.259
44.4114 6.781 0.266
44.4318 6.427 0.259
44.4523 6.135 0.253
44.4727 6.094 0.252
44.4932 6.552 0.261
44.5137 6.010 0.250
44.5341 6.875 0.268
44.5546 6.333 0.257
44.5751 6.552 0.261
44.5955 6.010 0.250
44.6160 6.906 0.268
44.6364 6.781 0.266
44.6569 6.844 0.267
44.6774 6.417 0.259
44.6978 6.490 0.260
44.7183 7.375 0.277
44.7388 6.417 0.259
44.7592 6.063 0.251
44.7797 6.552 0.261
44.8001 6.740 0.265
44.8206 7.333 0.276
44.8411 6.875 0.268
44.8615 7.167 0.273
44.8820 6.625 0.263
44.9025 7.031 0.271
44.9229 7.115 0.272
44.9434 7.188 0.274
44.9639 7.646 0.282
44.9843 7.302 0.276
45.0048 7.729 0.284
45.0252 7.177 0.273
45.0457 7.750 0.284
45.0662 7.385 0.277
45.0866 7.604 0.281
45.1071 8.125 0.291
45.1276 8.448 0.297
45.1480 8.552 0.298
45.1685 9.115 0.308
45.1889 9.708 0.318
45.2094 10.719 0.334
45.2299 11.458 0.345
45.2503 12.083 0.355
45.2708 11.917 0.352
45.2913 10.865 0.336
45.3117 10.479 0.330
45.3322 9.448 0.314
45.3526 10.177 0.326
45.3731 10.427 0.330
45.3936 10.167 0.325
45.4140 9.198 0.310
45.4345 8.135 0.291
45.4550 8.677 0.301
45.4754 8.198 0.292
45.4959 7.552 0.280
45.5163 7.719 0.284
45.5368 7.292 0.276
45.5573 7.073 0.271
45.5777 6.896 0.268
45.5982 6.792 0.266
45.6187 6.656 0.263
45.6391 6.594 0.262
45.6596 5.979 0.250
45.6800 5.781 0.245
45.7005 6.240 0.255
45.7210 6.281 0.256
45.7414 5.979 0.250
45.7619 6.094 0.252
45.7824 5.229 0.233
45.8028 5.052 0.229
45.8233 5.188 0.232
45.8438 5.542 0.240
45.8642 5.094 0.230
45.8847 5.208 0.233
45.9051 5.583 0.241
45.9256 5.063 0.230
45.9461 4.906 0.226
45.9665 5.229 0.233
45.9870 5.427 0.238
46.0075 4.990 0.228
46.0279 4.896 0.226
46.0484 5.406 0.237
46.0688 5.167 0.232
46.0893 5.219 0.233
46.1098 4.948 0.227
46.1302 5.219 0.233
46.1507 5.438 0.238
46.1712 5.458 0.238
46.1916 5.260 0.234
46.2121 5.448 0.238
46.2325 4.802 0.224
46.2530 4.729 0.222
46.2735 5.146 0.232
46.2939 5.292 0.235
46.3144 5.729 0.244
46.3349 5.281 0.235
46.3553 4.542 0.218
46.3758 4.656 0.220
46.3962 4.729 0.222
46.4167 4.792 0.223
46.4372 4.969 0.228
46.4576 4.833 0.224
46.4781 4.490 0.216
46.4986 5.146 0.232
46.5190 5.156 0.232
46.5395 5.073 0.230
46.5600 5.240 0.234
46.5804 4.760 0.223
46.6009 5.063 0.230
46.6213 5.125 0.231
46.6418 5.021 0.229
46.6623 5.094 0.230
46.6827 4.948 0.227
46.7032 4.771 0.223
46.7237 5.125 0.231
46.7441 4.688 0.221
46.7646 4.531 0.217
46.7850 4.573 0.218
46.8055 4.833 0.224
46.8260 4.781 0.223
46.8464 4.906 0.226
46.8669 5.177 0.232
46.8874 5.156 0.232
46.9078 4.760 0.223
46.9283 4.906 0.226
46.9487 5.198 0.233
46.9692 4.896 0.226
46.9897 5.042 0.229
47.0101 4.823 0.224
47.0306 4.771 0.223
47.0511 5.208 0.233
47.0715 5.156 0.232
47.0920 5.260 0.234
47.1124 5.260 0.234
47.1329 5.240 0.234
47.1534 5.615 0.242
47.1738 5.219 0.233
47.1943 5.573 0.241
47.2148 5.490 0.239
47.2352 5.698 0.244
47.2557 5.719 0.244
47.2761 5.865 0.247
47.2966 6.229 0.255
47.3171 6.250 0.255
47.3375 6.990 0.270
47.3580 6.563 0.261
47.3785 6.854 0.267
47.3989 7.510 0.280
47.4194 7.219 0.274
47.4399 7.323 0.276
47.4603 6.917 0.268
47.4808 7.635 0.282
47.5012 7.813 0.285
47.5217 8.448 0.297
47.5422 8.646 0.300
47.5626 10.052 0.324
47.5831 11.052 0.339
47.6036 11.635 0.348
47.6240 12.271 0.358
47.6445 11.000 0.339
47.6649 10.333 0.328
47.6854 9.677 0.317
47.7059 9.281 0.311
47.7263 8.385 0.296
47.7468 8.469 0.297
47.7673 8.313 0.294
47.7877 7.938 0.288
47.8082 7.177 0.273
47.8286 6.865 0.267
47.8491 6.563 0.261
47.8696 6.042 0.251
47.8900 5.885 0.248
47.9105 5.594 0.241
47.9310 5.542 0.240
47.9514 5.521 0.240
47.9719 6.167 0.253
47.9923 5.344 0.236
48.0128 5.448 0.238
48.0333 5.031 0.229
48.0537 5.510 0.240
48.0742 5.521 0.240
48.0947 4.750 0.222
48.1151 5.500 0.239
48.1356 5.406 0.237
48.1560 5.448 0.238
48.1765 5.073 0.230
48.1970 5.177 0.232
48.2174 5.260 0.234
48.2379 5.510 0.240
48.2584 6.146 0.253
48.2788 5.750 0.245
48.2993 6.135 0.253
48.3198 6.708 0.264
48.3402 7.125 0.272
48.3607 6.625 0.263
48.3811 7.198 0.274
48.4016 6.365 0.257
48.4221 6.333 0.257
48.4425 6.052 0.251
48.4630 6.448 0.259
48.4835 6.271 0.256
48.5039 5.688 0.243
48.5244 5.896 0.248
48.5448 5.635 0.242
48.5653 6.094 0.252
48.5858 5.656 0.243
48.6062 5.667 0.243
48.6267 5.271 0.234
48.6472 5.698 0.244
48.6676 6.406 0.258
48.6881 6.917 0.268
48.7085 6.979 0.270
48.7290 7.271 0.275
48.7495 6.885 0.268
48.7699 5.865 0.247
48.7904 5.865 0.247
48.8109 5.760 0.245
48.8313 5.531 0.240
48.8518 6.188 0.254
48.8722 5.740 0.245
48.8927 5.979 0.250
48.9132 4.813 0.224
48.9336 5.042 0.229
48.9541 4.542 0.218
48.9746 4.667 0.220
48.9950 4.823 0.224
49.0155 4.969 0.228
49.0359 4.677 0.221
49.0564 4.844 0.225
49.0769 4.823 0.224
49.0973 5.042 0.229
49.1178 4.667 0.220
49.1383 4.552 0.218
49.1587 4.896 0.226
49.1792 4.740 0.222
49.1997 4.729 0.222
49.2201 4.823 0.224
49.2406 4.438 0.215
49.2610 4.708 0.221
49.2815 4.521 0.217
49.3020 4.948 0.227
49.3224 4.844 0.225
49.3429 5.125 0.231
49.3634 4.917 0.226
49.3838 4.635 0.220
49.4043 4.813 0.224
49.4247 5.250 0.234
49.4452 4.865 0.225
49.4657 5.354 0.236
49.4861 5.167 0.232
49.5066 5.031 0.229
49.5271 5.458 0.238
49.5475 5.771 0.245
49.5680 5.563 0.241
49.5884 6.156 0.253
49.6089 6.500 0.260
49.6294 6.375 0.258
49.6498 6.135 0.253
49.6703 6.719 0.265
49.6908 7.167 0.273
49.7112 8.469 0.297
49.7317 8.104 0.291
49.7521 9.260 0.311
49.7726 10.427 0.330
49.7931 12.417 0.360
49.8135 14.094 0.383
49.8340 16.854 0.419
49.8545 18.104 0.434
49.8749 17.448 0.426
49.8954 16.281 0.412
49.9158 13.792 0.379
49.9363 13.177 0.370
49.9568 12.990 0.368
49.9772 13.188 0.371
49.9977 12.865 0.366
50.0182 11.604 0.348
50.0386 10.427 0.330
50.0591 9.563 0.316
50.0796 9.333 0.312
50.1000 7.750 0.284
50.1205 8.000 0.289
50.1409 7.969 0.288
50.1614 8.760 0.302
50.1819 9.948 0.322
50.2023 10.406 0.329
50.2228 9.656 0.317
50.2433 8.573 0.299
50.2637 7.635 0.282
50.2842 8.167 0.292
50.3046 7.490 0.279
50.3251 8.167 0.292
50.3456 8.302 0.294
50.3660 7.479 0.279
50.3865 6.917 0.268
50.4070 6.958 0.269
50.4274 7.031 0.271
50.4479 7.115 0.272
50.4683 6.656 0.263
50.4888 7.156 0.273
50.5093 7.052 0.271
50.5297 6.958 0.269
50.5502 7.063 0.271
50.5707 6.594 0.262
50.5911 6.333 0.257
50.6116 6.854 0.267
50.6320 6.604 0.262
50.6525 6.896 0.268
50.6730 6.615 0.262
50.6934 6.052 0.251
50.7139 6.521 0.261
50.7344 6.521 0.261
50.7548 6.563 0.261
50.7753 5.708 0.244
50.7958 5.917 0.248
50.8162 5.875 0.247
50.8367 5.813 0.246
50.8571 5.771 0.245
50.8776 6.083 0.252
50.8981 6.010 0.250
50.9185 6.146 0.253
50.9390 6.510 0.260
50.9595 6.417 0.259
50.9799 7.219 0.274
51.0004 6.896 0.268
51.0208 6.573 0.262
51.0413 6.406 0.258
51.0618 6.177 0.254
51.0822 6.083 0.252
51.1027 6.021 0.250
51.1232 6.010 0.250
51.1436 6.073 0.252
51.1641 6.250 0.255
51.1845 5.792 0.246
51.2050 5.656 0.243
51.2255 6.219 0.255
51.2459 6.281 0.256
51.2664 6.219 0.255
51.2869 6.031 0.251
51.3073 6.271 0.256
51.3278 6.115 0.252
51.3482 5.938 0.249
51.3687 6.354 0.257
51.3892 6.052 0.251
51.4096 5.677 0.243
51.4301 5.688 0.243
51.4506 5.781 0.245
51.4710 5.635 0.242
51.4915 5.479 0.239
51.5119 5.354 0.236
51.5324 5.479 0.239
51.5529 5.708 0.244
51.5733 5.417 0.238
51.5938 5.927 0.248
51.6143 6.042 0.251
51.6347 6.313 0.256
51.6552 6.417 0.259
51.6757 7.281 0.275
51.6961 6.698 0.264
51.7166 6.688 0.264
51.7370 6.438 0.259
51.7575 5.854 0.247
51.7780 5.896 0.248
51.7984 5.708 0.244
51.8189 5.833 0.247
51.8394 5.979 0.250
51.8598 5.448 0.238
51.8803 5.094 0.230
51.9007 5.354 0.236
51.9212 4.823 0.224
51.9417 4.792 0.223
51.9621 4.927 0.227
51.9826 5.000 0.228
52.0031 5.031 0.229
52.0235 5.240 0.234
52.0440 5.573 0.241
52.0644 5.063 0.230
52.0849 5.563 0.241
52.1054 5.375 0.237
52.1258 5.948 0.249
52.1463 5.885 0.248
52.1668 5.917 0.248
52.1872 5.865 0.247
52.2077 6.344 0.257
52.2281 6.021 0.250
52.2486 6.000 0.250
52.2691 5.760 0.245
52.2895 5.990 0.250
52.3100 5.802 0.246
52.3305 5.885 0.248
52.3509 6.719 0.265
52.3714 5.781 0.245
52.3918 5.802 0.246
52.4123 5.615 0.242
52.4328 5.552 0.240
52.4532 5.271 0.234
52.4737 5.115 0.231
52.4942 5.094 0.230
52.5146 5.010 0.228
52.5351 5.552 0.240
52.5556 5.260 0.234
52.5760 5.156 0.232
52.5965 5.000 0.228
52.6169 4.781 0.223
52.6374 4.479 0.216
52.6579 4.240 0.210
52.6783 4.292 0.211
52.6988 4.375 0.213
52.7193 4.458 0.216
52.7397 4.448 0.215
52.7602 4.813 0.224
52.7806 4.604 0.219
52.8011 4.729 0.222
52.8216 4.583 0.219
52.8420 4.302 0.212
52.8625 5.229 0.233
52.8830 4.719 0.222
52.9034 4.604 0.219
52.9239 4.604 0.219
52.9443 4.813 0.224
52.9648 4.833 0.224
52.9853 5.094 0.230
53.0057 4.875 0.225
53.0262 5.146 0.232
53.0467 5.010 0.228
53.0671 4.906 0.226
53.0876 5.156 0.232
53.1080 5.385 0.237
53.1285 5.250 0.234
53.1490 5.438 0.238
53.1694 5.313 0.235
53.1899 5.500 0.239
53.2104 5.615 0.242
53.2308 5.688 0.243
53.2513 5.479 0.239
53.2717 5.438 0.238
53.2922 5.104 0.231
53.3127 5.188 0.232
53.3331 4.979 0.228
53.3536 5.146 0.232
53.3741 5.063 0.230
53.3945 4.698 0.221
53.4150 4.656 0.220
53.4355 4.667 0.220
53.4559 4.760 0.223
53.4764 4.375 0.213
53.4968 4.479 0.216
53.5173 4.000 0.204
53.5378 4.406 0.214
53.5582 4.240 0.210
53.5787 4.167 0.208
53.5992 4.365 0.213
53.6196 4.250 0.210
53.6401 4.031 0.205
53.6605 4.438 0.215
53.6810 4.292 0.211
53.7015 3.979 0.204
53.7219 4.313 0.212
53.7424 4.073 0.206
53.7629 4.052 0.205
53.7833 4.073 0.206
53.8038 4.260 0.211
53.8242 4.250 0.210
53.8447 4.208 0.209
53.8652 4.219 0.210
53.8856 4.500 0.217
53.9061 4.260 0.211
53.9266 4.500 0.217
53.9470 4.156 0.208
53.9675 4.198 0.209
53.9879 4.000 0.204
54.0084 4.156 0.208
54.0289 4.646 0.220
54.0493 4.406 0.214
54.0698 4.594 0.219
54.0903 4.792 0.223
54.1107 5.281 0.235
54.1312 5.667 0.243
54.1516 5.615 0.242
54.1721 5.667 0.243
54.1926 5.313 0.235
54.2130 5.292 0.235
54.2335 5.198 0.233
54.2540 5.271 0.234
54.2744 5.719 0.244
54.2949 5.448 0.238
54.3154 5.646 0.243
54.3358 5.833 0.247
54.3563 5.229 0.233
54.3767 5.385 0.237
54.3972 5.823 0.246
54.4177 5.781 0.245
54.4381 5.594 0.241
54.4586 5.521 0.240
54.4791 5.844 0.247
54.4995 5.583 0.241
54.5200 5.250 0.234
54.5404 5.073 0.230
54.5609 5.385 0.237
54.5814 4.927 0.227
54.6018 4.865 0.225
54.6223 5.240 0.234
54.6428 4.875 0.225
54.6632 4.781 0.223
54.6837 4.865 0.225
54.7041 4.458 0.216
54.7246 4.958 0.227
54.7451 4.719 0.222
54.7655 4.865 0.225
54.7860 4.927 0.227
54.8065 4.573 0.218
54.8269 4.323 0.212
54.8474 4.510 0.217
54.8678 4.708 0.221
54.8883 5.042 0.229
54.9088 4.792 0.223
54.9292 4.656 0.220
54.9497 4.917 0.226
54.9702 5.156 0.232
54.9906 5.177 0.232
55.0111 5.802 0.246
55.0316 6.010 0.250
55.0520 6.677 0.264
55.0725 7.521 0.280
55.0929 8.938 0.305
55.1134 10.531 0.331
55.1339 13.125 0.370
55.1543 16.708 0.417
55.1748 17.917 0.432
55.1953 18.510 0.439
55.2157 15.583 0.403
55.2362 13.167 0.370
55.2566 11.875 0.352
55.2771 12.208 0.357
55.2976 12.802 0.365
55.3180 13.573 0.376
55.3385 12.750 0.364
55.3590 11.510 0.346
55.3794 10.063 0.324
55.3999 8.375 0.295
55.4203 7.938 0.288
55.4408 7.625 0.282
55.4613 6.260 0.255
55.4817 6.177 0.254
55.5022 5.875 0.247
55.5227 5.844 0.247
55.5431 5.552 0.240
55.5636 6.031 0.251
55.5840 5.969 0.249
55.6045 5.115 0.231
55.6250 5.740 0.245
55.6454 5.792 0.246
55.6659 5.125 0.231
55.6864 5.302 0.235
55.7068 4.927 0.227
55.7273 5.156 0.232
55.7477 5.448 0.238
55.7682 5.583 0.241
55.7887 5.823 0.246
55.8091 5.469 0.239
55.8296 6.042 0.251
55.8501 6.125 0.253
55.8705 6.438 0.259
55.8910 6.104 0.252
55.9115 5.792 0.246
55.9319 5.615 0.242
55.9524 5.802 0.246
55.9728 5.802 0.246
55.9933 6.042 0.251
56.0138 6.073 0.252
56.0342 6.385 0.258
56.0547 6.823 0.267
56.0752 6.688 0.264
56.0956 7.521 0.280
56.1161 7.781 0.285
56.1365 8.688 0.301
56.1570 10.281 0.327
56.1775 11.146 0.341
56.1979 12.479 0.361
56.2184 12.135 0.356
56.2389 10.583 0.332
56.2593 9.031 0.307
56.2798 8.094 0.290
56.3002 7.938 0.288
56.3207 7.823 0.285
56.3412 9.021 0.307
56.3616 8.500 0.298
56.3821 7.531 0.280
56.4026 6.708 0.264
56.4230 5.729 0.244
56.4435 5.458 0.238
56.4639 4.646 0.220
56.4844 4.500 0.217
56.5049 4.333 0.212
56.5253 4.229 0.210
56.5458 3.917 0.202
56.5663 3.750 0.198
56.5867 3.969 0.203
56.6072 3.990 0.204
56.6276 3.771 0.198
56.6481 3.708 0.197
56.6686 3.510 0.191
56.6890 3.438 0.189
56.7095 3.563 0.193
56.7300 3.760 0.198
56.7504 3.896 0.201
56.7709 3.563 0.193
56.7914 3.427 0.189
56.8118 3.615 0.194
56.8323 3.719 0.197
56.8527 3.698 0.196
56.8732 3.479 0.190
56.8937 3.625 0.194
56.9141 3.896 0.201
56.9346 3.604 0.194
56.9551 3.625 0.194
56.9755 3.656 0.195
56.9960 3.833 0.200
57.0164 3.740 0.197
57.0369 3.385 0.188
57.0574 3.458 0.190
57.0778 3.542 0.192
57.0983 3.760 0.198
57.1188 3.750 0.198
57.1392 3.865 0.201
57.1597 3.542 0.192
57.1801 3.896 0.201
57.2006 3.510 0.191
57.2211 3.781 0.198
57.2415 3.990 0.204
57.2620 3.656 0.195
57.2825 4.115 0.207
57.3029 3.875 0.201
57.3234 4.167 0.208
57.3438 3.844 0.200
57.3643 4.010 0.204
57.3848 3.760 0.198
57.4052 3.906 0.202
57.4257 3.865 0.201
57.4462 3.990 0.204
57.4666 4.458 0.216
57.4871 4.135 0.208
57.5075 3.833 0.200
57.5280 4.208 0.209
57.5485 4.323 0.212
57.5689 4.135 0.208
57.5894 3.802 0.199
57.6099 3.594 0.193
57.6303 4.385 0.214
57.6508 4.333 0.212
57.6713 4.469 0.216
57.6917 4.563 0.218
57.7122 4.833 0.224
57.7326 4.969 0.228
57.7531 4.635 0.220
57.7736 5.344 0.236
57.7940 6.240 0.255
57.8145 6.188 0.254
57.8350 6.500 0.260
57.8554 7.115 0.272
57.8759 7.677 0.283
57.8963 8.875 0.304
57.9168 9.406 0.313
57.9373 9.667 0.317
57.9577 9.010 0.306
57.9782 8.229 0.293
57.9987 8.052 0.290
58.0191 7.510 0.280
58.0396 7.250 0.275
58.0600 7.313 0.276
58.0805 7.354 0.277
58.1010 6.979 0.270
58.1214 6.750 0.265
58.1419 5.708 0.244
58.1624 5.250 0.234
58.1828 5.417 0.238
58.2033 4.938 0.227
58.2237 4.771 0.223
58.2442 4.698 0.221
58.2647 4.354 0.213
58.2851 3.917 0.202
58.3056 4.688 0.221
58.3261 4.240 0.210
58.3465 3.854 0.200
58.3670 4.177 0.209
58.3874 4.198 0.209
58.4079 4.344 0.213
58.4284 4.281 0.211
58.4488 4.083 0.206
58.4693 4.021 0.205
58.4898 4.021 0.205
58.5102 4.177 0.209
58.5307 4.219 0.210
58.5512 4.313 0.212
58.5716 4.188 0.209
58.5921 4.521 0.217
58.6125 4.438 0.215
58.6330 4.385 0.214
58.6535 4.260 0.211
58.6739 4.510 0.217
58.6944 4.594 0.219
58.7149 4.438 0.215
58.7353 4.448 0.215
58.7558 4.344 0.213
58.7762 3.885 0.201
58.7967 4.240 0.210
58.8172 4.344 0.213
58.8376 4.271 0.211
58.8581 4.198 0.209
58.8786 4.542 0.218
58.8990 4.333 0.212
58.9195 4.073 0.206
58.9399 4.500 0.217
58.9604 4.115 0.207
58.9809 4.021 0.205
59.0013 4.250 0.210
59.0218 4.542 0.218
59.0423 4.344 0.213
59.0627 4.646 0.220
59.0832 5.177 0.232
59.1036 5.229 0.233
59.1241 6.083 0.252
59.1446 6.073 0.252
59.1650 6.656 0.263
59.1855 7.688 0.283
59.2060 7.865 0.286
59.2264 7.906 0.287
59.2469 7.563 0.281
59.2674 6.198 0.254
59.2878 6.063 0.251
59.3083 5.813 0.246
59.3287 5.969 0.249
59.3492 5.979 0.250
59.3697 5.958 0.249
59.3901 6.104 0.252
59.4106 5.083 0.230
59.4311 4.917 0.226
59.4515 4.604 0.219
59.4720 4.563 0.218
59.4924 3.906 0.202
59.5129 4.094 0.207
59.5334 4.271 0.211
59.5538 4.073 0.206
59.5743 3.927 0.202
59.5948 4.063 0.206
59.6152 4.396 0.214
59.6357 4.146 0.208
59.6561 3.906 0.202
59.6766 3.969 0.203
59.6971 3.896 0.201
59.7175 4.271 0.211
59.7380 4.510 0.217
59.7585 4.854 0.225
59.7789 5.438 0.238
59.7994 5.375 0.237
59.8198 5.396 0.237
59.8403 6.188 0.254
59.8608 6.833 0.267
59.8812 7.073 0.271
59.9017 7.094 0.272
59.9222 5.958 0.249
59.9426 6.083 0.252
59.9631 5.500 0.239
59.9835 5.802 0.246
60.0040 5.656 0.243
60.0245 5.510 0.240
60.0449 5.635 0.242
60.0654 6.021 0.250
60.0859 5.198 0.233
60.1063 4.865 0.225
60.1268 4.417 0.214
60.1473 4.115 0.207
60.1677 4.031 0.205
60.1882 3.813 0.199
60.2086 3.646 0.195
60.2291 3.260 0.184
60.2496 3.698 0.196
60.2700 3.719 0.197
60.2905 3.656 0.195
60.3110 3.510 0.191
60.3314 3.542 0.192
60.3519 3.427 0.189
60.3723 3.698 0.196
60.3928 3.229 0.183
60.4133 3.490 0.191
60.4337 3.240 0.184
60.4542 3.479 0.190
60.4747 3.354 0.187
60.4951 3.365 0.187
60.5156 3.500 0.191
60.5360 3.656 0.195
60.5565 3.615 0.194
60.5770 3.229 0.183
60.5974 3.667 0.195
60.6179 3.542 0.192
60.6384 3.740 0.197
60.6588 3.406 0.188
60.6793 3.552 0.192
60.6997 3.760 0.198
60.7202 3.531 0.192
60.7407 3.594 0.193
60.7611 3.448 0.190
60.7816 3.427 0.189
60.8021 3.417 0.189
60.8225 3.510 0.191
60.8430 3.458 0.190
60.8634 3.438 0.189
60.8839 3.875 0.201
60.9044 3.698 0.196
60.9248 4.042 0.205
60.9453 3.656 0.195
60.9658 3.677 0.196
60.9862 3.448 0.190
61.0067 3.385 0.188
61.0272 3.781 0.198
61.0476 3.656 0.195
61.0681 3.698 0.196
61.0885 3.427 0.189
61.1090 2.990 0.176
61.1295 3.490 0.191
61.1499 3.375 0.188
61.1704 3.344 0.187
61.1909 3.323 0.186
61.2113 3.385 0.188
61.2318 3.396 0.188
61.2522 3.719 0.197
61.2727 3.875 0.201
61.2932 3.323 0.186
61.3136 3.083 0.179
61.3341 3.115 0.180
61.3546 3.240 0.184
61.3750 3.531 0.192
61.3955 3.490 0.191
61.4159 3.563 0.193
61.4364 3.625 0.194
61.4569 3.396 0.188
61.4773 3.396 0.188
61.4978 3.615 0.194
61.5183 3.719 0.197
61.5387 3.458 0.190
61.5592 3.125 0.180
61.5796 3.104 0.180
61.6001 3.260 0.184
61.6206 3.365 0.187
61.6410 3.594 0.193
61.6615 3.406 0.188
61.6820 3.427 0.189
61.7024 3.469 0.190
61.7229 3.583 0.193
61.7433 3.010 0.177
61.7638 3.344 0.187
61.7843 3.177 0.182
61.8047 3.302 0.185
61.8252 3.344 0.187
61.8457 3.219 0.183
61.8661 3.760 0.198
61.8866 3.302 0.185
61.9071 3.323 0.186
61.9275 3.500 0.191
61.9480 3.323 0.186
61.9684 3.542 0.192
61.9889 3.615 0.194
62.0094 3.385 0.188
62.0298 3.885 0.201
62.0503 3.781 0.198
62.0708 4.240 0.210
62.0912 4.479 0.216
62.1117 4.281 0.211
62.1321 4.615 0.219
62.1526 4.854 0.225
62.1731 4.917 0.226
62.1935 4.750 0.222
62.2140 4.104 0.207
62.2345 4.354 0.213
62.2549 4.198 0.209
62.2754 4.479 0.216
62.2958 3.854 0.200
62.3163 3.896 0.201
62.3368 3.948 0.203
62.3572 3.719 0.197
62.3777 3.729 0.197
62.3982 3.448 0.190
62.4186 3.219 0.183
62.4391 3.563 0.193
62.4595 3.438 0.189
62.4800 3.365 0.187
62.5005 3.250 0.184
62.5209 3.458 0.190
62.5414 3.219 0.183
62.5619 3.083 0.179
62.5823 3.021 0.177
62.6028 3.031 0.178
62.6232 3.333 0.186
62.6437 3.344 0.187
62.6642 3.260 0.184
62.6846 2.813 0.171
62.7051 3.115 0.180
62.7256 2.958 0.176
62.7460 3.208 0.183
62.7665 3.271 0.185
62.7870 3.010 0.177
62.8074 3.573 0.193
62.8279 3.167 0.182
62.8483 2.802 0.171
62.8688 3.281 0.185
62.8893 3.281 0.185
62.9097 2.792 0.171
62.9302 3.323 0.186
62.9507 3.417 0.189
62.9711 3.083 0.179
62.9916 2.979 0.176
63.0120 2.979 0.176
63.0325 3.167 0.182
63.0530 2.677 0.167
63.0734 3.135 0.181
63.0939 2.833 0.172
63.1144 2.990 0.176
63.1348 2.990 0.176
63.1553 3.063 0.179
63.1757 3.219 0.183
63.1962 2.760 0.170
63.2167 2.781 0.170
63.2371 3.021 0.177
63.2576 3.063 0.179
63.2781 3.052 0.178
63.2985 3.177 0.182
63.3190 3.156 0.181
63.3394 3.438 0.189
63.3599 2.677 0.167
63.3804 3.365 0.187
63.4008 3.458 0.190
63.4213 3.333 0.186
63.4418 3.219 0.183
63.4622 3.313 0.186
63.4827 3.656 0.195
63.5032 3.854 0.200
63.5236 3.333 0.186
63.5441 3.406 0.188
63.5645 3.323 0.186
63.5850 3.458 0.190
63.6055 3.708 0.197
63.6259 3.750 0.198
63.6464 4.031 0.205
63.6669 4.240 0.210
63.6873 4.531 0.217
63.7078 4.469 0.216
63.7282 4.729 0.222
63.7487 5.094 0.230
63.7692 5.083 0.230
63.7896 4.698 0.221
63.8101 5.094 0.230
63.8306 5.000 0.228
63.8510 4.458 0.216
63.8715 4.802 0.224
63.8919 5.042 0.229
63.9124 5.146 0.232
63.9329 4.938 0.227
63.9533 4.510 0.217
63.9738 4.938 0.227
63.9943 4.865 0.225
64.0147 4.667 0.220
64.0352 4.594 0.219
64.0556 4.385 0.214
64.0761 4.375 0.213
64.0966 4.198 0.209
64.1170 4.208 0.209
64.1375 3.750 0.198
64.1580 4.250 0.210
64.1784 3.958 0.203
64.1989 4.146 0.208
64.2193 4.073 0.206
64.2398 4.135 0.208
64.2603 3.979 0.204
64.2807 3.896 0.201
64.3012 3.854 0.200
64.3217 3.750 0.198
64.3421 4.063 0.206
64.3626 4.052 0.205
64.3831 3.917 0.202
64.4035 4.385 0.214
64.4240 4.125 0.207
64.4444 4.250 0.210
64.4649 4.354 0.213
64.4854 5.000 0.228
64.5058 4.990 0.228
64.5263 4.990 0.228
64.5468 5.594 0.241
64.5672 5.552 0.240
64.5877 6.219 0.255
64.6081 7.219 0.274
64.6286 7.750 0.284
64.6491 8.583 0.299
64.6695 8.948 0.305
64.6900 7.333 0.276
64.7105 6.802 0.266
64.7309 5.500 0.239
64.7514 5.583 0.241
64.7718 5.594 0.241
64.7923 6.365 0.257
64.8128 6.542 0.261
64.8332 6.406 0.258
64.8537 6.042 0.251
64.8742 5.844 0.247
64.8946 5.302 0.235
64.9151 4.167 0.208
64.9355 3.948 0.203
64.9560 3.990 0.204
64.9765 3.823 0.200
64.9969 4.073 0.206
65.0174 3.917 0.202
65.0379 3.677 0.196
65.0583 3.490 0.191
65.0788 3.625 0.194
65.0992 3.563 0.193
65.1197 3.615 0.194
65.1402 3.625 0.194
65.1606 3.448 0.190
65.1811 3.323 0.186
65.2016 2.979 0.176
65.2220 3.313 0.186
65.2425 3.490 0.191
65.2630 3.510 0.191
65.2834 3.563 0.193
65.3039 3.104 0.180
65.3243 3.698 0.196
65.3448 3.021 0.177
65.3653 3.646 0.195
65.3857 3.438 0.189
65.4062 3.479 0.190
65.4267 3.531 0.192
65.4471 3.594 0.193
65.4676 3.677 0.196
65.4880 3.885 0.201
65.5085 4.031 0.205
65.5290 3.938 0.203
65.5494 4.656 0.220
65.5699 5.010 0.228
65.5904 4.604 0.219
65.6108 4.531 0.217
65.6313 4.250 0.210
65.6517 4.208 0.209
65.6722 3.854 0.200
65.6927 3.552 0.192
65.7131 3.823 0.200
65.7336 4.135 0.208
65.7541 4.177 0.209
65.7745 4.531 0.217
65.7950 3.896 0.201
65.8154 3.750 0.198
65.8359 3.646 0.195
65.8564 3.521 0.192
65.8768 3.323 0.186
65.8973 3.448 0.190
65.9178 3.583 0.193
65.9382 3.094 0.180
65.9587 3.344 0.187
65.9791 3.990 0.204
65.9996 3.625 0.194
66.0201 3.542 0.192
66.0405 3.844 0.200
66.0610 3.531 0.192
66.0815 3.646 0.195
66.1019 3.958 0.203
66.1224 4.083 0.206
66.1429 3.844 0.200
66.1633 4.063 0.206
66.1838 3.729 0.197
66.2042 3.802 0.199
66.2247 3.375 0.188
66.2452 4.083 0.206
66.2656 3.740 0.197
66.2861 3.750 0.198
66.3066 3.958 0.203
66.3270 3.656 0.195
66.3475 3.719 0.197
66.3679 3.688 0.196
66.3884 3.510 0.191
66.4089 3.365 0.187
66.4293 3.635 0.195
66.4498 3.646 0.195
66.4703 3.229 0.183
66.4907 3.375 0.188
66.5112 3.604 0.194
66.5316 3.531 0.192
66.5521 3.844 0.200
66.5726 3.823 0.200
66.5930 3.583 0.193
66.6135 3.938 0.203
66.6340 3.740 0.197
66.6544 3.708 0.197
66.6749 3.542 0.192
66.6953 3.281 0.185
66.7158 3.542 0.192
66.7363 3.583 0.193
66.7567 3.354 0.187
66.7772 3.635 0.195
66.7977 3.542 0.192
66.8181 3.479 0.190
66.8386 3.677 0.196
66.8590 3.750 0.198
66.8795 3.740 0.197
66.9000 4.021 0.205
66.9204 3.917 0.202
66.9409 4.229 0.210
66.9614 3.844 0.200
66.9818 4.313 0.212
67.0023 4.313 0.212
67.0228 5.271 0.234
67.0432 5.177 0.232
67.0637 5.479 0.239
67.0841 6.188 0.254
67.1046 6.802 0.266
67.1251 7.073 0.271
67.1455 7.698 0.283
67.1660 8.646 0.300
67.1865 8.406 0.296
67.2069 7.604 0.281
67.2274 7.281 0.275
67.2478 6.479 0.260
67.2683 6.250 0.255
67.2888 6.094 0.252
67.3092 6.208 0.254
67.3297 6.646 0.263
67.3502 6.125 0.253
67.3706 6.125 0.253
67.3911 5.948 0.249
67.4115 5.615 0.242
67.4320 5.271 0.234
67.4525 4.646 0.220
67.4729 4.073 0.206
67.4934 3.958 0.203
67.5139 4.042 0.205
67.5343 4.042 0.205
67.5548 4.073 0.206
67.5752 4.073 0.206
67.5957 3.875 0.201
67.6162 3.802 0.199
67.6366 3.833 0.200
67.6571 3.917 0.202
67.6776 3.698 0.196
67.6980 4.188 0.209
67.7185 4.052 0.205
67.7389 4.229 0.210
67.7594 3.646 0.195
67.7799 4.052 0.205
67.8003 3.885 0.201
67.8208 3.948 0.203
67.8413 3.896 0.201
67.8617 3.781 0.198
67.8822 3.906 0.202
67.9027 3.740 0.197
67.9231 3.917 0.202
67.9436 3.927 0.202
67.9640 3.604 0.194
67.9845 3.896 0.201
68.0050 3.406 0.188
68.0254 3.500 0.191
68.0459 3.813 0.199
68.0664 3.542 0.192
68.0868 3.844 0.200
68.1073 3.708 0.197
68.1277 3.385 0.188
68.1482 3.625 0.194
68.1687 3.656 0.195
68.1891 3.927 0.202
68.2096 3.823 0.200
68.2301 3.823 0.200
68.2505 3.844 0.200
68.2710 4.719 0.222
68.2914 4.260 0.211
68.3119 4.667 0.220
68.3324 5.073 0.230
68.3528 4.865 0.225
68.3733 4.885 0.226
68.3938 4.583 0.219
68.4142 4.406 0.214
68.4347 4.260 0.211
68.4551 3.906 0.202
68.4756 3.667 0.195
68.4961 4.042 0.205
68.5165 3.792 0.199
68.5370 3.844 0.200
68.5575 4.135 0.208
68.5779 3.792 0.199
68.5984 3.792 0.199
68.6189 3.604 0.194
68.6393 3.281 0.185
68.6598 3.677 0.196
68.6802 3.073 0.179
68.7007 3.469 0.190
68.7212 3.417 0.189
68.7416 3.385 0.188
68.7621 2.865 0.173
68.7826 3.344 0.187
68.8030 3.490 0.191
68.8235 4.000 0.204
68.8439 3.458 0.190
68.8644 3.510 0.191
68.8849 3.948 0.203
68.9053 3.677 0.196
68.9258 4.000 0.204
68.9463 3.906 0.202
68.9667 4.177 0.209
68.9872 4.604 0.219
69.0076 4.740 0.222
69.0281 4.625 0.219
69.0486 4.813 0.224
69.0690 4.156 0.208
69.0895 3.875 0.201
69.1100 4.219 0.210
69.1304 3.708 0.197
69.1509 3.823 0.200
69.1713 4.094 0.207
69.1918 4.458 0.216
69.2123 4.625 0.219
69.2327 4.646 0.220
69.2532 4.896 0.226
69.2737 4.792 0.223
69.2941 4.479 0.216
69.3146 3.979 0.204
69.3350 3.813 0.199
69.3555 3.750 0.198
69.3760 3.781 0.198
69.3964 3.740 0.197
69.4169 3.625 0.194
69.4374 3.969 0.203
69.4578 3.792 0.199
69.4783 3.854 0.200
69.4988 3.646 0.195
69.5192 3.125 0.180
69.5397 3.271 0.185
69.5601 3.063 0.179
69.5806 2.688 0.167
69.6011 2.885 0.173
69.6215 3.094 0.180
69.6420 3.052 0.178
69.6625 2.906 0.174
69.6829 2.542 0.163
69.7034 3.146 0.181
69.7238 3.094 0.180
69.7443 2.500 0.161
69.7648 2.646 0.166
69.7852 2.979 0.176
69.8057 2.990 0.176
69.8262 2.729 0.169
69.8466 2.969 0.176
69.8671 2.740 0.169
69.8875 2.677 0.167
69.9080 2.688 0.167
69.9285 2.844 0.172
69.9489 3.042 0.178
69.9694 3.010 0.177
69.9899 2.958 0.176
70.0103 3.198 0.183
70.0308 2.615 0.165
70.0512 2.865 0.173
70.0717 2.490 0.161
70.0922 2.813 0.171
70.1126 2.615 0.165
70.1331 2.667 0.167
70.1536 2.656 0.166
70.1740 2.813 0.171
70.1945 2.781 0.170
70.2149 2.771 0.170
70.2354 2.833 0.172
70.2559 2.708 0.168
70.2763 2.813 0.171
70.2968 2.698 0.168
70.3173 2.677 0.167
70.3377 2.917 0.174
70.3582 2.740 0.169
70.3787 2.802 0.171
70.3991 3.021 0.177
70.4196 3.469 0.190
70.4400 2.927 0.175
70.4605 3.052 0.178
70.4810 2.729 0.169
70.5014 2.885 0.173
70.5219 3.094 0.180
70.5424 2.938 0.175
70.5628 3.344 0.187
70.5833 3.219 0.183
70.6037 3.208 0.183
70.6242 3.115 0.180
70.6447 3.281 0.185
70.6651 3.323 0.186
70.6856 3.104 0.180
70.7061 3.125 0.180
70.7265 3.271 0.185
70.7470 2.958 0.176
70.7674 2.844 0.172
70.7879 2.875 0.173
70.8084 3.000 0.177
70.8288 2.771 0.170
70.8493 2.906 0.174
70.8698 3.021 0.177
70.8902 2.823 0.171
70.9107 3.063 0.179
70.9311 3.031 0.178
70.9516 3.083 0.179
70.9721 2.948 0.175
70.9925 3.031 0.178
71.0130 2.563 0.163
71.0335 3.021 0.177
71.0539 3.156 0.181
71.0744 3.281 0.185
71.0948 3.229 0.183
71.1153 3.448 0.190
71.1358 3.323 0.186
71.1562 3.021 0.177
71.1767 3.250 0.184
71.1972 2.875 0.173
71.2176 3.073 0.179
71.2381 2.875 0.173
71.2586 2.969 0.176
71.2790 3.104 0.180
71.2995 2.917 0.174
71.3199 3.000 0.177
71.3404 2.729 0.169
71.3609 3.031 0.178
71.3813 2.573 0.164
71.4018 2.917 0.174
71.4223 2.656 0.166
71.4427 2.823 0.171
71.4632 2.729 0.169
71.4836 2.646 0.166
71.5041 2.688 0.167
71.5246 2.906 0.174
71.5450 2.875 0.173
71.5655 2.469 0.160
71.5860 2.802 0.171
71.6064 2.823 0.171
71.6269 2.615 0.165
71.6473 2.698 0.168
71.6678 2.760 0.170
71.6883 2.490 0.161
71.7087 2.635 0.166
71.7292 2.760 0.170
71.7497 2.281 0.154
71.7701 2.667 0.167
71.7906 2.771 0.170
71.8110 2.583 0.164
71.8315 2.490 0.161
71.8520 2.500 0.161
71.8724 2.750 0.169
71.8929 2.271 0.154
71.9134 2.531 0.162
71.9338 2.292 0.155
71.9543 2.479 0.161
71.9747 2.771 0.170
71.9952 2.688 0.167
72.0157 2.563 0.163
72.0361 2.354 0.157
72.0566 2.542 0.163
72.0771 2.583 0.164
72.0975 2.563 0.163
72.1180 2.323 0.156
72.1385 2.583 0.164
72.1589 2.427 0.159
72.1794 2.354 0.157
72.1998 2.646 0.166
72.2203 2.427 0.159
72.2408 2.531 0.162
72.2612 2.344 0.156
72.2817 2.604 0.165
72.3022 2.729 0.169
72.3226 2.333 0.156
72.3431 2.604 0.165
72.3635 2.469 0.160
72.3840 2.427 0.159
72.4045 2.542 0.163
72.4249 2.260 0.153
72.4454 2.354 0.157
72.4659 2.375 0.157
72.4863 2.552 0.163
72.5068 2.385 0.158
72.5272 2.146 0.150
72.5477 2.438 0.159
72.5682 2.458 0.160
72.5886 2.625 0.165
72.6091 2.573 0.164
72.6296 2.500 0.161
72.6500 2.375 0.157
72.6705 2.438 0.159
72.6909 2.438 0.159
72.7114 2.708 0.168
72.7319 2.823 0.171
72.7523 2.750 0.169
72.7728 3.031 0.178
72.7933 2.833 0.172
72.8137 3.000 0.177
72.8342 3.271 0.185
72.8547 3.135 0.181
72.8751 3.219 0.183
72.8956 2.490 0.161
72.9160 2.615 0.165
72.9365 2.885 0.173
72.9570 2.813 0.171
72.9774 2.479 0.161
72.9979 2.948 0.175
73.0184 2.771 0.170
73.0388 2.656 0.166
73.0593 2.698 0.168
73.0797 2.667 0.167
73.1002 2.719 0.168
73.1207 2.396 0.158
73.1411 2.594 0.164
73.1616 2.250 0.153
73.1821 2.375 0.157
73.2025 2.052 0.146
73.2230 2.427 0.159
73.2434 2.260 0.153
73.2639 2.635 0.166
73.2844 2.260 0.153
73.3048 2.490 0.161
73.3253 2.302 0.155
73.3458 2.073 0.147
73.3662 2.406 0.158
73.3867 2.146 0.150
73.4071 2.583 0.164
73.4276 2.115 0.148
73.4481 2.208 0.152
73.4685 2.375 0.157
73.4890 2.323 0.156
73.5095 2.135 0.149
73.5299 2.229 0.152
73.5504 2.198 0.151
73.5708 2.323 0.156
73.5913 2.063 0.147
73.6118 2.323 0.156
73.6322 2.146 0.150
73.6527 2.063 0.147
73.6732 2.146 0.150
73.6936 2.302 0.155
73.7141 2.396 0.158
73.7346 2.104 0.148
73.7550 2.344 0.156
73.7755 2.271 0.154
73.7959 2.156 0.150
73.8164 2.104 0.148
73.8369 2.010 0.145
73.8573 2.458 0.160
73.8778 2.229 0.152
73.8983 2.479 0.161
73.9187 2.260 0.153
73.9392 2.542 0.163
73.9596 2.635 0.166
73.9801 2.510 0.162
74.0006 2.385 0.158
74.0210 2.333 0.156
74.0415 2.625 0.165
74.0620 2.271 0.154
74.0824 2.594 0.164
74.1029 2.500 0.161
74.1233 2.573 0.164
74.1438 2.500 0.161
74.1643 2.323 0.156
74.1847 2.458 0.160
74.2052 2.563 0.163
74.2257 2.594 0.164
74.2461 2.135 0.149
74.2666 2.302 0.155
74.2870 2.385 0.158
74.3075 2.448 0.160
74.3280 2.198 0.151
74.3484 2.313 0.155
74.3689 2.083 0.147
74.3894 2.313 0.155
74.4098 2.302 0.155
74.4303 2.260 0.153
74.4507 2.406 0.158
74.4712 2.229 0.152
74.4917 2.521 0.162
74.5121 2.198 0.151
74.5326 2.240 0.153
74.5531 2.271 0.154
74.5735 2.271 0.154
74.5940 2.281 0.154
74.6145 2.333 0.156
74.6349 2.271 0.154
74.6554 2.167 0.150
74.6758 2.490 0.161
74.6963 2.135 0.149
74.7168 2.240 0.153
74.7372 2.292 0.155
74.7577 2.156 0.150
74.7782 2.260 0.153
74.7986 2.115 0.148
74.8191 2.167 0.150
74.8395 2.281 0.154
74.8600 2.073 0.147
74.8805 2.427 0.159
74.9009 2.177 0.151
74.9214 1.990 0.144
74.9419 2.448 0.160
74.9623 2.198 0.151
74.9828 2.167 0.150
75.0032 2.260 0.153
75.0237 2.198 0.151
75.0442 2.292 0.155
75.0646 2.396 0.158
75.0851 2.260 0.153
75.1056 2.385 0.158
75.1260 2.156 0.150
75.1465 2.302 0.155
75.1669 2.365 0.157
75.1874 2.563 0.163
75.2079 2.135 0.149
75.2283 1.990 0.144
75.2488 2.365 0.157
75.2693 2.229 0.152
75.2897 2.208 0.152
75.3102 2.146 0.150
75.3306 1.938 0.142
75.3511 2.073 0.147
75.3716 2.135 0.149
75.3920 2.219 0.152
75.4125 2.417 0.159
75.4330 2.354 0.157
75.4534 2.479 0.161
75.4739 2.271 0.154
75.4944 2.427 0.159
75.5148 2.188 0.151
75.5353 2.188 0.151
75.5557 2.375 0.157
75.5762 2.323 0.156
75.5967 2.552 0.163
75.6171 2.542 0.163
75.6376 2.823 0.171
75.6581 2.740 0.169
75.6785 2.750 0.169
75.6990 3.188 0.182
75.7194 3.229 0.183
75.7399 3.302 0.185
75.7604 3.479 0.190
75.7808 4.031 0.205
75.8013 4.146 0.208
75.8218 4.250 0.210
75.8422 3.833 0.200
75.8627 3.760 0.198
75.8831 3.563 0.193
75.9036 3.469 0.190
75.9241 3.521 0.192
75.9445 3.000 0.177
75.9650 3.448 0.190
75.9855 3.438 0.189
76.0059 3.042 0.178
76.0264 3.490 0.191
76.0468 3.531 0.192
76.0673 3.323 0.186
76.0878 3.240 0.184
76.1082 3.177 0.182
76.1287 2.792 0.171
76.1492 2.865 0.173
76.1696 3.031 0.178
76.1901 2.781 0.170
76.2105 2.760 0.170
76.2310 2.708 0.168
76.2515 2.490 0.161
76.2719 2.573 0.164
76.2924 2.771 0.170
76.3129 2.510 0.162
76.3333 2.750 0.169
76.3538 2.719 0.168
76.3743 2.635 0.166
76.3947 2.438 0.159
76.4152 2.573 0.164
76.4356 2.417 0.159
76.4561 2.229 0.152
76.4766 2.250 0.153
76.4970 2.313 0.155
76.5175 2.375 0.157
76.5380 2.396 0.158
76.5584 2.292 0.155
76.5789 2.417 0.159
76.5993 2.260 0.153
76.6198 2.146 0.150
76.6403 2.094 0.148
76.6607 2.281 0.154
76.6812 2.344 0.156
76.7017 2.115 0.148
76.7221 2.188 0.151
76.7426 2.396 0.158
76.7630 2.260 0.153
76.7835 2.427 0.159
76.8040 2.323 0.156
76.8244 2.125 0.149
76.8449 2.188 0.151
76.8654 2.448 0.160
76.8858 2.344 0.156
76.9063 2.375 0.157
76.9267 2.229 0.152
76.9472 2.125 0.149
76.9677 2.281 0.154
76.9881 2.438 0.159
77.0086 2.427 0.159
77.0291 2.229 0.152
77.0495 2.271 0.154
77.0700 2.469 0.160
77.0905 2.146 0.150
77.1109 2.115 0.148
77.1314 2.083 0.147
77.1518 2.135 0.149
77.1723 2.365 0.157
77.1928 2.271 0.154
77.2132 2.448 0.160
77.2337 2.448 0.160
77.2542 2.021 0.145
77.2746 2.292 0.155
77.2951 2.427 0.159
77.3155 2.260 0.153
77.3360 2.323 0.156
77.3565 2.208 0.152
77.3769 2.354 0.157
77.3974 2.573 0.164
77.4179 2.760 0.170
77.4383 3.010 0.177
77.4588 2.500 0.161
77.4792 2.760 0.170
77.4997 3.063 0.179
77.5202 3.104 0.180
77.5406 3.208 0.183
77.5611 3.260 0.184
77.5816 3.375 0.188
77.6020 2.969 0.176
77.6225 2.906 0.174
77.6429 2.906 0.174
77.6634 3.063 0.179
77.6839 2.646 0.166
77.7043 3.177 0.182
77.7248 3.042 0.178
77.7453 3.094 0.180
77.7657 3.240 0.184
77.7862 3.188 0.182
77.8066 3.260 0.184
77.8271 3.177 0.182
77.8476 2.969 0.176
77.8680 2.917 0.174
77.8885 2.906 0.174
77.9090 2.990 0.176
77.9294 2.719 0.168
77.9499 2.813 0.171
77.9704 2.719 0.168
77.9908 2.677 0.167
78.0113 2.729 0.169
78.0317 2.844 0.172
78.0522 2.719 0.168
78.0727 2.438 0.159
78.0931 2.417 0.159
78.1136 2.333 0.156
78.1341 2.479 0.161
78.1545 2.031 0.145
78.1750 2.656 0.166
78.1954 2.448 0.160
78.2159 2.302 0.155
78.2364 2.583 0.164
78.2568 2.438 0.159
78.2773 2.438 0.159
78.2978 2.615 0.165
78.3182 2.958 0.176
78.3387 2.625 0.165
78.3591 2.646 0.166
78.3796 2.760 0.170
78.4001 2.823 0.171
78.4205 3.010 0.177
78.4410 2.948 0.175
78.4615 2.479 0.161
78.4819 2.802 0.171
78.5024 2.760 0.170
78.5228 2.656 0.166
78.5433 3.042 0.178
78.5638 2.792 0.171
78.5842 2.906 0.174
78.6047 2.781 0.170
78.6252 2.719 0.168
78.6456 2.792 0.171
78.6661 2.990 0.176
78.6865 2.740 0.169
78.7070 3.448 0.190
78.7275 2.844 0.172
78.7479 2.760 0.170
78.7684 2.813 0.171
78.7889 2.604 0.165
78.8093 2.667 0.167
78.8298 2.625 0.165
78.8503 2.781 0.170
78.8707 2.896 0.174
78.8912 2.771 0.170
78.9116 3.229 0.183
78.9321 2.823 0.171
78.9526 3.052 0.178
78.9730 3.031 0.178
78.9935 2.698 0.168
79.0140 2.875 0.173
79.0344 3.115 0.180
79.0549 2.813 0.171
79.0753 2.656 0.166
79.0958 2.969 0.176
79.1163 2.719 0.168
79.1367 2.635 0.166
79.1572 2.781 0.170
79.1777 2.750 0.169
79.1981 2.510 0.162
79.2186 3.083 0.179
79.2390 2.708 0.168
79.2595 2.927 0.175
79.2800 2.615 0.165
79.3004 2.656 0.166
79.3209 2.719 0.168
79.3414 2.781 0.170
79.3618 2.781 0.170
79.3823 2.719 0.168
79.4027 2.542 0.163
79.4232 2.938 0.175
79.4437 2.719 0.168
79.4641 2.875 0.173
79.4846 2.948 0.175
79.5051 2.958 0.176
79.5255 3.240 0.184
79.5460 2.833 0.172
79.5664 2.979 0.176
79.5869 3.031 0.178
79.6074 2.917 0.174
79.6278 2.833 0.172
79.6483 2.833 0.172
79.6688 2.688 0.167
79.6892 3.063 0.179
79.7097 2.729 0.169
79.7302 2.729 0.169
79.7506 2.958 0.176
79.7711 2.688 0.167
79.7915 2.865 0.173
79.8120 2.813 0.171
79.8325 2.719 0.168
79.8529 2.938 0.175
79.8734 2.448 0.160
79.8939 2.615 0.165
79.9143 2.771 0.170
79.9348 2.448 0.160
79.9552 2.271 0.154
79.9757 2.615 0.165
79.9962 2.438 0.159
