'Id: "" Comment: "" Operator: "Lab Manager" Anode: "Cu" Scantype: "Locked Coupled" TimePerStep: "96" X: "0" Y: "0" Z: "0" 
5.0000 26.458 0.525
5.0205 26.094 0.521
5.0409 25.427 0.515
5.0614 25.927 0.520
5.0819 26.135 0.522
5.1023 25.448 0.515
5.1228 25.292 0.513
5.1432 25.771 0.518
5.1637 25.042 0.511
5.1842 25.292 0.513
5.2046 24.646 0.507
5.2251 25.177 0.512
5.2456 25.052 0.511
5.2660 25.260 0.513
5.2865 25.344 0.514
5.3069 25.406 0.514
5.3274 25.781 0.518
5.3479 25.510 0.515
5.3683 25.177 0.512
5.3888 25.813 0.519
5.4093 25.771 0.518
5.4297 25.167 0.512
5.4502 24.802 0.508
5.4706 24.833 0.509
5.4911 25.708 0.517
5.5116 24.354 0.504
5.5320 24.917 0.509
5.5525 25.635 0.517
5.5730 24.125 0.501
5.5934 24.104 0.501
5.6139 24.385 0.504
5.6343 24.156 0.502
5.6548 24.917 0.509
5.6753 24.208 0.502
5.6957 24.500 0.505
5.7162 24.833 0.509
5.7367 23.865 0.499
5.7571 25.521 0.516
5.7776 23.979 0.500
5.7980 23.604 0.496
5.8185 23.510 0.495
5.8390 23.677 0.497
5.8594 24.500 0.505
5.8799 23.990 0.500
5.9004 24.563 0.506
5.9208 24.052 0.501
5.9413 24.531 0.506
5.9618 23.625 0.496
5.9822 23.917 0.499
6.0027 24.156 0.502
6.0231 24.406 0.504
6.0436 23.479 0.495
6.0641 24.073 0.501
6.0845 23.719 0.497
6.1050 24.198 0.502
6.1255 23.938 0.499
6.1459 23.573 0.496
6.1664 23.990 0.500
6.1868 23.490 0.495
6.2073 23.938 0.499
6.2278 23.208 0.492
6.2482 23.375 0.493
6.2687 22.604 0.485
6.2892 22.771 0.487
6.3096 24.156 0.502
6.3301 23.167 0.491
6.3505 23.344 0.493
6.3710 23.927 0.499
6.3915 22.969 0.489
6.4119 24.146 0.502
6.4324 24.063 0.501
6.4529 23.740 0.497
6.4733 23.729 0.497
6.4938 23.156 0.491
6.5142 24.792 0.508
6.5347 23.615 0.496
6.5552 24.635 0.507
6.5756 23.927 0.499
6.5961 23.896 0.499
6.6166 24.073 0.501
6.6370 23.313 0.493
6.6575 24.510 0.505
6.6779 24.635 0.507
6.6984 23.865 0.499
6.7189 23.198 0.492
6.7393 22.802 0.487
6.7598 24.656 0.507
6.7803 24.240 0.502
6.8007 24.146 0.502
6.8212 24.417 0.504
6.8417 24.875 0.509
6.8621 24.885 0.509
6.8826 25.448 0.515
6.9030 24.438 0.505
6.9235 25.333 0.514
6.9440 24.969 0.510
6.9644 25.375 0.514
6.9849 25.823 0.519
7.0054 25.760 0.518
7.0258 25.146 0.512
7.0463 26.198 0.522
7.0667 25.927 0.520
7.0872 25.927 0.520
7.1077 25.479 0.515
7.1281 25.656 0.517
7.1486 24.958 0.510
7.1691 24.281 0.503
7.1895 24.333 0.503
7.2100 24.406 0.504
7.2304 25.760 0.518
7.2509 25.365 0.514
7.2714 25.917 0.520
7.2918 25.000 0.510
7.3123 25.135 0.512
7.3328 25.406 0.514
7.3532 24.958 0.510
7.3737 24.938 0.510
7.3941 25.375 0.514
7.4146 24.458 0.505
7.4351 24.417 0.504
7.4555 25.302 0.513
7.4760 25.438 0.515
7.4965 25.740 0.518
7.5169 25.635 0.517
7.5374 25.313 0.513
7.5579 25.240 0.513
7.5783 24.167 0.502
7.5988 24.927 0.510
7.6192 26.240 0.523
7.6397 25.000 0.510
7.6602 24.802 0.508
7.6806 25.479 0.515
7.7011 25.365 0.514
7.7216 25.271 0.513
7.7420 25.646 0.517
7.7625 25.615 0.517
7.7829 25.292 0.513
7.8034 25.250 0.513
7.8239 25.667 0.517
7.8443 24.958 0.510
7.8648 25.813 0.519
7.8853 24.573 0.506
7.9057 25.469 0.515
7.9262 25.760 0.518
7.9466 24.969 0.510
7.9671 25.292 0.513
7.9876 25.552 0.516
8.0080 25.521 0.516
8.0285 26.031 0.521
8.0490 26.333 0.524
8.0694 25.615 0.517
8.0899 24.927 0.510
8.1103 25.531 0.516
8.1308 25.750 0.518
8.1513 25.479 0.515
8.1717 25.917 0.520
8.1922 26.750 0.528
8.2127 25.844 0.519
8.2331 25.927 0.520
8.2536 26.427 0.525
8.2740 26.458 0.525
8.2945 26.510 0.525
8.3150 26.969 0.530
8.3354 27.875 0.539
8.3559 27.781 0.538
8.3764 27.635 0.537
8.3968 27.854 0.539
8.4173 27.083 0.531
8.4378 27.594 0.536
8.4582 26.583 0.526
8.4787 28.281 0.543
8.4991 27.500 0.535
8.5196 27.333 0.534
8.5401 27.271 0.533
8.5605 27.771 0.538
8.5810 27.865 0.539
8.6015 28.417 0.544
8.6219 27.698 0.537
8.6424 28.083 0.541
8.6628 27.833 0.538
8.6833 28.188 0.542
8.7038 27.885 0.539
8.7242 29.708 0.556
8.7447 30.198 0.561
8.7652 30.781 0.566
8.7856 32.729 0.584
8.8061 31.719 0.575
8.8265 34.042 0.595
8.8470 34.688 0.601
8.8675 35.865 0.611
8.8879 37.771 0.627
8.9084 39.833 0.644
8.9289 42.125 0.662
8.9493 44.125 0.678
8.9698 48.583 0.711
8.9902 52.448 0.739
9.0107 55.000 0.757
9.0312 61.146 0.798
9.0516 66.042 0.829
9.0721 74.281 0.880
9.0926 78.823 0.906
9.1130 91.990 0.979
9.1335 107.448 1.058
9.1539 137.823 1.198
9.1744 186.802 1.395
9.1949 268.188 1.671
9.2153 404.854 2.054
9.2358 507.042 2.298
9.2563 493.813 2.268
9.2767 403.354 2.050
9.2972 316.115 1.815
9.3177 250.021 1.614
9.3381 207.323 1.470
9.3586 178.615 1.364
9.3790 163.198 1.304
9.3995 148.375 1.243
9.4200 141.990 1.216
9.4404 136.531 1.193
9.4609 131.677 1.171
9.4814 131.219 1.169
9.5018 132.802 1.176
9.5223 132.052 1.173
9.5427 134.385 1.183
9.5632 140.521 1.210
9.5837 142.938 1.220
9.6041 146.979 1.237
9.6246 156.354 1.276
9.6451 165.229 1.312
9.6655 176.708 1.357
9.6860 192.635 1.417
9.7064 214.406 1.494
9.7269 245.427 1.599
9.7474 286.635 1.728
9.7678 348.521 1.905
9.7883 457.865 2.184
9.8088 629.125 2.560
9.8292 849.927 2.975
9.8497 878.500 3.025
9.8701 629.646 2.561
9.8906 340.042 1.882
9.9111 178.990 1.365
9.9315 104.813 1.045
9.9520 77.229 0.897
9.9725 67.500 0.839
9.9929 62.167 0.805
10.0134 58.094 0.778
10.0338 55.854 0.763
10.0543 52.906 0.742
10.0748 49.344 0.717
10.0952 44.417 0.680
10.1157 39.708 0.643
10.1362 38.729 0.635
10.1566 36.656 0.618
10.1771 35.615 0.609
10.1976 35.219 0.606
10.2180 34.010 0.595
10.2385 33.427 0.590
10.2589 33.146 0.588
10.2794 32.521 0.582
10.2999 32.396 0.581
10.3203 31.563 0.573
10.3408 32.573 0.582
10.3613 31.729 0.575
10.3817 30.563 0.564
10.4022 31.583 0.574
10.4226 31.240 0.570
10.4431 30.958 0.568
10.4636 29.719 0.556
10.4840 29.281 0.552
10.5045 30.510 0.564
10.5250 28.948 0.549
10.5454 28.823 0.548
10.5659 29.375 0.553
10.5863 29.125 0.551
10.6068 30.146 0.560
10.6273 29.333 0.553
10.6477 28.677 0.547
10.6682 28.615 0.546
10.6887 28.750 0.547
10.7091 28.240 0.542
10.7296 27.750 0.538
10.7500 27.865 0.539
10.7705 27.323 0.533
10.7910 26.906 0.529
10.8114 26.844 0.529
10.8319 26.667 0.527
10.8524 26.458 0.525
10.8728 26.990 0.530
10.8933 26.323 0.524
10.9137 26.646 0.527
10.9342 25.875 0.519
10.9547 26.771 0.528
10.9751 25.625 0.517
10.9956 25.740 0.518
11.0161 25.854 0.519
11.0365 25.385 0.514
11.0570 24.552 0.506
11.0775 25.146 0.512
11.0979 24.865 0.509
11.1184 24.479 0.505
11.1388 23.781 0.498
11.1593 24.125 0.501
11.1798 23.552 0.495
11.2002 25.063 0.511
11.2207 23.990 0.500
11.2412 23.292 0.493
11.2616 23.781 0.498
11.2821 23.625 0.496
11.3025 23.229 0.492
11.3230 23.000 0.489
11.3435 23.031 0.490
11.3639 23.250 0.492
11.3844 23.094 0.490
11.4049 22.979 0.489
11.4253 23.052 0.490
11.4458 23.313 0.493
11.4662 22.615 0.485
11.4867 22.302 0.482
11.5072 21.594 0.474
11.5276 22.229 0.481
11.5481 21.344 0.472
11.5686 21.979 0.478
11.5890 22.583 0.485
11.6095 20.917 0.467
11.6299 20.729 0.465
11.6504 21.958 0.478
11.6709 21.896 0.478
11.6913 20.625 0.464
11.7118 20.760 0.465
11.7323 20.063 0.457
11.7527 20.208 0.459
11.7732 20.938 0.467
11.7937 20.958 0.467
11.8141 20.698 0.464
11.8346 19.135 0.446
11.8550 18.969 0.445
11.8755 19.844 0.455
11.8960 19.844 0.455
11.9164 19.010 0.445
11.9369 19.615 0.452
11.9574 19.479 0.450
11.9778 19.281 0.448
11.9983 19.427 0.450
12.0187 19.521 0.451
12.0392 19.510 0.451
12.0597 18.438 0.438
12.0801 18.375 0.438
12.1006 18.219 0.436
12.1211 19.646 0.452
12.1415 18.052 0.434
12.1620 17.969 0.433
12.1824 17.917 0.432
12.2029 17.052 0.421
12.2234 17.708 0.429
12.2438 17.281 0.424
12.2643 16.771 0.418
12.2848 17.063 0.422
12.3052 17.188 0.423
12.3257 18.073 0.434
12.3461 17.344 0.425
12.3666 17.615 0.428
12.3871 16.740 0.418
12.4075 17.677 0.429
12.4280 16.885 0.419
12.4485 17.000 0.421
12.4689 17.063 0.422
12.4894 16.667 0.417
12.5098 16.510 0.415
12.5303 16.969 0.420
12.5508 16.365 0.413
12.5712 16.781 0.418
12.5917 16.719 0.417
12.6122 15.333 0.400
12.6326 15.083 0.396
12.6531 15.198 0.398
12.6736 15.854 0.406
12.6940 15.854 0.406
12.7145 15.219 0.398
12.7349 15.344 0.400
12.7554 15.500 0.402
12.7759 15.104 0.397
12.7963 15.500 0.402
12.8168 15.938 0.407
12.8373 14.979 0.395
12.8577 14.583 0.390
12.8782 14.927 0.394
12.8986 15.135 0.397
12.9191 15.063 0.396
12.9396 14.010 0.382
12.9600 15.031 0.396
12.9805 15.125 0.397
13.0010 14.646 0.391
13.0214 14.375 0.387
13.0419 14.781 0.392
13.0623 14.188 0.384
13.0828 14.615 0.390
13.1033 14.021 0.382
13.1237 13.958 0.381
13.1442 14.094 0.383
13.1647 14.156 0.384
13.1851 14.010 0.382
13.2056 13.667 0.377
13.2260 13.438 0.374
13.2465 13.427 0.374
13.2670 13.219 0.371
13.2874 13.750 0.378
13.3079 13.323 0.373
13.3284 13.573 0.376
13.3488 13.531 0.375
13.3693 13.250 0.372
13.3897 13.188 0.371
13.4102 13.302 0.372
13.4307 13.188 0.371
13.4511 13.146 0.370
13.4716 13.698 0.378
13.4921 12.698 0.364
13.5125 13.438 0.374
13.5330 12.885 0.366
13.5535 12.646 0.363
13.5739 12.594 0.362
13.5944 12.948 0.367
13.6148 13.323 0.373
13.6353 13.521 0.375
13.6558 12.208 0.357
13.6762 12.563 0.362
13.6967 12.875 0.366
13.7172 13.229 0.371
13.7376 12.823 0.365
13.7581 12.875 0.366
13.7785 12.677 0.363
13.7990 12.969 0.368
13.8195 12.792 0.365
13.8399 13.125 0.370
13.8604 12.656 0.363
13.8809 12.698 0.364
13.9013 12.552 0.362
13.9218 12.083 0.355
13.9422 12.219 0.357
13.9627 13.083 0.369
13.9832 12.167 0.356
14.0036 12.469 0.360
14.0241 11.646 0.348
14.0446 12.844 0.366
14.0650 12.490 0.361
14.0855 12.781 0.365
14.1059 12.344 0.359
14.1264 13.010 0.368
14.1469 12.448 0.360
14.1673 12.479 0.361
14.1878 12.469 0.360
14.2083 12.292 0.358
14.2287 12.438 0.360
14.2492 11.958 0.353
14.2696 11.969 0.353
14.2901 11.885 0.352
14.3106 11.948 0.353
14.3310 11.406 0.345
14.3515 12.125 0.355
14.3720 11.583 0.347
14.3924 11.396 0.345
14.4129 11.594 0.348
14.4334 11.573 0.347
14.4538 11.865 0.352
14.4743 11.292 0.343
14.4947 10.958 0.338
14.5152 11.281 0.343
14.5357 11.646 0.348
14.5561 11.031 0.339
14.5766 11.094 0.340
14.5971 11.708 0.349
14.6175 11.521 0.346
14.6380 11.417 0.345
14.6584 11.208 0.342
14.6789 11.292 0.343
14.6994 11.063 0.339
14.7198 10.854 0.336
14.7403 11.240 0.342
14.7608 10.750 0.335
14.7812 11.000 0.339
14.8017 10.823 0.336
14.8221 10.250 0.327
14.8426 10.969 0.338
14.8631 11.438 0.345
14.8835 10.781 0.335
14.9040 10.635 0.333
14.9245 11.365 0.344
14.9449 10.063 0.324
14.9654 9.948 0.322
14.9858 11.104 0.340
15.0063 10.490 0.331
15.0268 10.375 0.329
15.0472 10.396 0.329
15.0677 11.438 0.345
15.0882 10.313 0.328
15.1086 10.229 0.326
15.1291 10.198 0.326
15.1495 10.490 0.331
15.1700 11.156 0.341
15.1905 10.906 0.337
15.2109 10.990 0.338
15.2314 10.604 0.332
15.2519 10.417 0.329
15.2723 10.708 0.334
15.2928 11.302 0.343
15.3133 10.365 0.329
15.3337 10.760 0.335
15.3542 10.135 0.325
15.3746 10.406 0.329
15.3951 10.188 0.326
15.4156 10.854 0.336
15.4360 10.625 0.333
15.4565 10.583 0.332
15.4770 10.458 0.330
15.4974 10.427 0.330
15.5179 11.083 0.340
15.5383 10.000 0.323
15.5588 10.365 0.329
15.5793 10.802 0.335
15.5997 10.177 0.326
15.6202 10.615 0.333
15.6407 11.031 0.339
15.6611 11.583 0.347
15.6816 11.938 0.353
15.7020 13.188 0.371
15.7225 14.698 0.391
15.7430 15.063 0.396
15.7634 14.677 0.391
15.7839 13.594 0.376
15.8044 12.927 0.367
15.8248 12.240 0.357
15.8453 11.813 0.351
15.8657 10.479 0.330
15.8862 10.604 0.332
15.9067 10.438 0.330
15.9271 9.979 0.322
15.9476 10.667 0.333
15.9681 10.083 0.324
15.9885 10.115 0.325
16.0090 10.375 0.329
16.0295 10.000 0.323
16.0499 10.010 0.323
16.0704 9.458 0.314
16.0908 9.938 0.322
16.1113 10.010 0.323
16.1318 10.302 0.328
16.1522 9.750 0.319
16.1727 9.583 0.316
16.1932 10.177 0.326
16.2136 9.625 0.317
16.2341 10.240 0.327
16.2545 10.021 0.323
16.2750 9.969 0.322
16.2955 10.260 0.327
16.3159 9.625 0.317
16.3364 9.490 0.314
16.3569 9.396 0.313
16.3773 10.646 0.333
16.3978 9.760 0.319
16.4182 10.021 0.323
16.4387 10.042 0.323
16.4592 9.458 0.314
16.4796 9.771 0.319
16.5001 10.344 0.328
16.5206 9.750 0.319
16.5410 9.708 0.318
16.5615 9.448 0.314
16.5819 9.802 0.320
16.6024 9.688 0.318
16.6229 10.323 0.328
16.6433 9.656 0.317
16.6638 9.729 0.318
16.6843 9.833 0.320
16.7047 9.927 0.322
16.7252 9.979 0.322
16.7456 10.000 0.323
16.7661 10.229 0.326
16.7866 9.490 0.314
16.8070 9.615 0.316
16.8275 9.042 0.307
16.8480 9.083 0.308
16.8684 9.906 0.321
16.8889 9.583 0.316
16.9094 9.781 0.319
16.9298 10.042 0.323
16.9503 9.979 0.322
16.9707 9.406 0.313
16.9912 9.500 0.315
17.0117 9.646 0.317
17.0321 9.521 0.315
17.0526 9.219 0.310
17.0731 9.417 0.313
17.0935 9.833 0.320
17.1140 9.656 0.317
17.1344 9.458 0.314
17.1549 10.115 0.325
17.1754 10.302 0.328
17.1958 9.969 0.322
17.2163 10.635 0.333
17.2368 10.521 0.331
17.2572 10.813 0.336
17.2777 10.958 0.338
17.2981 11.000 0.339
17.3186 10.302 0.328
17.3391 10.740 0.334
17.3595 11.375 0.344
17.3800 11.469 0.346
17.4005 11.292 0.343
17.4209 12.594 0.362
17.4414 12.677 0.363
17.4618 12.313 0.358
17.4823 13.313 0.372
17.5028 12.760 0.365
17.5232 12.771 0.365
17.5437 13.552 0.376
17.5642 13.563 0.376
17.5846 14.146 0.384
17.6051 14.031 0.382
17.6255 14.469 0.388
17.6460 14.792 0.393
17.6665 14.500 0.389
17.6869 13.458 0.374
17.7074 12.979 0.368
17.7279 13.844 0.380
17.7483 13.990 0.382
17.7688 13.594 0.376
17.7893 13.844 0.380
17.8097 15.365 0.400
17.8302 14.802 0.393
17.8506 14.823 0.393
17.8711 14.948 0.395
17.8916 14.438 0.388
17.9120 15.042 0.396
17.9325 15.271 0.399
17.9530 16.427 0.414
17.9734 16.073 0.409
17.9939 18.167 0.435
18.0143 20.167 0.458
18.0348 19.646 0.452
18.0553 20.958 0.467
18.0757 21.802 0.477
18.0962 23.031 0.490
18.1167 24.958 0.510
18.1371 27.656 0.537
18.1576 34.104 0.596
18.1780 43.542 0.673
18.1985 56.365 0.766
18.2190 79.198 0.908
18.2394 105.875 1.050
18.2599 130.563 1.166
18.2804 128.406 1.157
18.3008 108.771 1.064
18.3213 86.240 0.948
18.3417 64.740 0.821
18.3622 49.490 0.718
18.3827 42.042 0.662
18.4031 37.594 0.626
18.4236 38.313 0.632
18.4441 39.979 0.645
18.4645 43.938 0.677
18.4850 51.365 0.731
18.5054 67.042 0.836
18.5259 93.979 0.989
18.5464 125.292 1.142
18.5668 133.052 1.177
18.5873 126.365 1.147
18.6078 116.417 1.101
18.6282 96.042 1.000
18.6487 79.729 0.911
18.6692 68.833 0.847
18.6896 63.302 0.812
18.7101 55.969 0.764
18.7305 52.990 0.743
18.7510 50.302 0.724
18.7715 47.854 0.706
18.7919 45.958 0.692
18.8124 43.073 0.670
18.8329 39.844 0.644
18.8533 39.479 0.641
18.8738 38.010 0.629
18.8942 35.865 0.611
18.9147 34.156 0.596
18.9352 33.104 0.587
18.9556 31.323 0.571
18.9761 30.375 0.563
18.9966 29.875 0.558
19.0170 29.021 0.550
19.0375 29.188 0.551
19.0579 28.885 0.549
19.0784 29.094 0.551
19.0989 28.563 0.545
19.1193 28.396 0.544
19.1398 29.573 0.555
19.1603 27.417 0.534
19.1807 27.979 0.540
19.2012 29.115 0.551
19.2216 30.042 0.559
19.2421 28.979 0.549
19.2626 30.250 0.561
19.2830 29.125 0.551
19.3035 29.448 0.554
19.3240 29.948 0.559
19.3444 30.177 0.561
19.3649 30.990 0.568
19.3853 31.354 0.571
19.4058 31.365 0.572
19.4263 32.521 0.582
19.4467 35.146 0.605
19.4672 35.531 0.608
19.4877 36.625 0.618
19.5081 37.677 0.626
19.5286 39.865 0.644
19.5491 43.010 0.669
19.5695 43.813 0.676
19.5900 45.344 0.687
19.6104 49.979 0.722
19.6309 54.823 0.756
19.6514 58.958 0.784
19.6718 66.885 0.835
19.6923 80.719 0.917
19.7128 100.333 1.022
19.7332 130.042 1.164
19.7537 182.073 1.377
19.7741 247.469 1.606
19.7946 229.490 1.546
19.8151 164.417 1.309
19.8355 135.583 1.188
19.8560 82.396 0.926
19.8765 45.010 0.685
19.8969 32.667 0.583
19.9174 27.208 0.532
19.9378 24.677 0.507
19.9583 22.438 0.483
19.9788 21.813 0.477
19.9992 20.917 0.467
20.0197 19.542 0.451
20.0402 19.292 0.448
20.0606 18.438 0.438
20.0811 17.885 0.432
20.1015 18.594 0.440
20.1220 19.583 0.452
20.1425 21.531 0.474
20.1629 23.104 0.491
20.1834 28.667 0.546
20.2039 36.167 0.614
20.2243 44.417 0.680
20.2448 51.479 0.732
20.2653 53.042 0.743
20.2857 48.396 0.710
20.3062 42.906 0.669
20.3266 36.365 0.615
20.3471 30.844 0.567
20.3676 25.865 0.519
20.3880 25.031 0.511
20.4085 24.333 0.503
20.4290 24.510 0.505
20.4494 26.479 0.525
20.4699 28.781 0.548
20.4903 30.958 0.568
20.5108 29.552 0.555
20.5313 27.656 0.537
20.5517 24.615 0.506
20.5722 20.656 0.464
20.5927 17.615 0.428
20.6131 15.219 0.398
20.6336 14.250 0.385
20.6540 13.854 0.380
20.6745 12.375 0.359
20.6950 13.000 0.368
20.7154 12.385 0.359
20.7359 12.240 0.357
20.7564 11.813 0.351
20.7768 11.479 0.346
20.7973 11.771 0.350
20.8177 11.354 0.344
20.8382 11.719 0.349
20.8587 11.625 0.348
20.8791 11.781 0.350
20.8996 11.417 0.345
20.9201 11.469 0.346
20.9405 10.885 0.337
20.9610 11.146 0.341
20.9814 11.240 0.342
21.0019 11.302 0.343
21.0224 11.344 0.344
21.0428 11.292 0.343
21.0633 11.531 0.347
21.0838 11.688 0.349
21.1042 11.135 0.341
21.1247 11.688 0.349
21.1452 11.583 0.347
21.1656 11.906 0.352
21.1861 11.979 0.353
21.2065 11.844 0.351
21.2270 11.021 0.339
21.2475 11.396 0.345
21.2679 11.219 0.342
21.2884 11.000 0.339
21.3089 11.146 0.341
21.3293 11.021 0.339
21.3498 11.448 0.345
21.3702 10.885 0.337
21.3907 11.052 0.339
21.4112 10.969 0.338
21.4316 10.958 0.338
21.4521 10.917 0.337
21.4726 10.656 0.333
21.4930 10.615 0.333
21.5135 10.729 0.334
21.5339 10.552 0.332
21.5544 10.781 0.335
21.5749 11.021 0.339
21.5953 11.125 0.340
21.6158 11.594 0.348
21.6363 12.635 0.363
21.6567 13.781 0.379
21.6772 14.260 0.385
21.6976 14.052 0.383
21.7181 13.563 0.376
21.7386 12.896 0.367
21.7590 11.750 0.350
21.7795 11.344 0.344
21.8000 10.906 0.337
21.8204 11.406 0.345
21.8409 11.177 0.341
21.8613 11.375 0.344
21.8818 10.802 0.335
21.9023 11.052 0.339
21.9227 11.563 0.347
21.9432 11.208 0.342
21.9637 11.469 0.346
21.9841 11.229 0.342
22.0046 11.729 0.350
22.0251 13.281 0.372
22.0455 13.615 0.377
22.0660 15.167 0.397
22.0864 18.083 0.434
22.1069 23.875 0.499
22.1274 30.375 0.563
22.1478 34.958 0.603
22.1683 32.646 0.583
22.1888 28.958 0.549
22.2092 25.760 0.518
22.2297 20.667 0.464
22.2501 17.844 0.431
22.2706 16.406 0.413
22.2911 15.292 0.399
22.3115 15.135 0.397
22.3320 13.948 0.381
22.3525 12.823 0.365
22.3729 13.198 0.371
22.3934 12.792 0.365
22.4138 12.292 0.358
22.4343 11.792 0.350
22.4548 12.323 0.358
22.4752 11.271 0.343
22.4957 11.417 0.345
22.5162 11.875 0.352
22.5366 11.083 0.340
22.5571 11.521 0.346
22.5775 10.823 0.336
22.5980 11.573 0.347
22.6185 11.542 0.347
22.6389 10.792 0.335
22.6594 11.042 0.339
22.6799 11.063 0.339
22.7003 11.146 0.341
22.7208 10.698 0.334
22.7412 10.927 0.337
22.7617 11.323 0.343
22.7822 11.240 0.342
22.8026 10.833 0.336
22.8231 11.490 0.346
22.8436 11.781 0.350
22.8640 12.927 0.367
22.8845 12.958 0.367
22.9050 13.313 0.372
22.9254 13.438 0.374
22.9459 13.438 0.374
22.9663 12.594 0.362
22.9868 11.490 0.346
23.0073 11.854 0.351
23.0277 11.052 0.339
23.0482 11.427 0.345
23.0687 10.156 0.325
23.0891 10.479 0.330
23.1096 10.281 0.327
23.1300 10.469 0.330
23.1505 10.583 0.332
23.1710 11.021 0.339
23.1914 10.521 0.331
23.2119 9.792 0.319
23.2324 10.094 0.324
23.2528 10.333 0.328
23.2733 10.135 0.325
23.2937 10.083 0.324
23.3142 11.083 0.340
23.3347 11.115 0.340
23.3551 10.615 0.333
23.3756 10.969 0.338
23.3961 11.063 0.339
23.4165 10.813 0.336
23.4370 11.688 0.349
23.4574 11.854 0.351
23.4779 12.583 0.362
23.4984 12.865 0.366
23.5188 13.146 0.370
23.5393 15.271 0.399
23.5598 16.771 0.418
23.5802 19.135 0.446
23.6007 21.167 0.470
23.6211 21.813 0.477
23.6416 20.125 0.458
23.6621 17.448 0.426
23.6825 15.792 0.406
23.7030 13.375 0.373
23.7235 12.250 0.357
23.7439 9.875 0.321
23.7644 10.406 0.329
23.7849 9.479 0.314
23.8053 9.198 0.310
23.8258 9.125 0.308
23.8462 8.719 0.301
23.8667 8.677 0.301
23.8872 9.167 0.309
23.9076 9.198 0.310
23.9281 8.156 0.291
23.9486 8.229 0.293
23.9690 8.094 0.290
23.9895 8.615 0.300
24.0099 8.531 0.298
24.0304 8.156 0.291
24.0509 8.917 0.305
24.0713 8.490 0.297
24.0918 8.646 0.300
24.1123 8.563 0.299
24.1327 8.469 0.297
24.1532 8.708 0.301
24.1736 8.854 0.304
24.1941 8.115 0.291
24.2146 8.583 0.299
24.2350 9.427 0.313
24.2555 9.292 0.311
24.2760 9.771 0.319
24.2964 10.667 0.333
24.3169 9.531 0.315
24.3373 9.490 0.314
24.3578 9.323 0.312
24.3783 8.750 0.302
24.3987 7.823 0.285
24.4192 8.521 0.298
24.4397 7.833 0.286
24.4601 7.844 0.286
24.4806 8.115 0.291
24.5011 8.271 0.294
24.5215 7.833 0.286
24.5420 8.271 0.294
24.5624 8.104 0.291
24.5829 7.792 0.285
24.6034 8.198 0.292
24.6238 8.073 0.290
24.6443 8.417 0.296
24.6648 8.167 0.292
24.6852 8.094 0.290
24.7057 8.573 0.299
24.7261 8.656 0.300
24.7466 7.740 0.284
24.7671 7.729 0.284
24.7875 7.958 0.288
24.8080 8.135 0.291
24.8285 7.510 0.280
24.8489 8.083 0.290
24.8694 8.073 0.290
24.8898 7.792 0.285
24.9103 8.052 0.290
24.9308 7.885 0.287
24.9512 7.344 0.277
24.9717 7.385 0.277
24.9922 7.552 0.280
25.0126 7.458 0.279
25.0331 7.156 0.273
25.0535 7.938 0.288
25.0740 7.698 0.283
25.0945 7.677 0.283
25.1149 7.844 0.286
25.1354 7.771 0.285
25.1559 7.760 0.284
25.1763 7.927 0.287
25.1968 7.500 0.280
25.2172 7.323 0.276
25.2377 7.875 0.286
25.2582 7.104 0.272
25.2786 7.135 0.273
25.2991 7.552 0.280
25.3196 7.198 0.274
25.3400 7.531 0.280
25.3605 8.063 0.290
25.3810 7.865 0.286
25.4014 7.719 0.284
25.4219 7.896 0.287
25.4423 7.271 0.275
25.4628 7.583 0.281
25.4833 7.438 0.278
25.5037 8.396 0.296
25.5242 8.323 0.294
25.5447 8.490 0.297
25.5651 8.938 0.305
25.5856 8.760 0.302
25.6060 9.000 0.306
25.6265 8.271 0.294
25.6470 8.604 0.299
25.6674 7.823 0.285
25.6879 8.146 0.291
25.7084 8.427 0.296
25.7288 7.615 0.282
25.7493 7.635 0.282
25.7697 7.656 0.282
25.7902 8.010 0.289
25.8107 7.292 0.276
25.8311 7.792 0.285
25.8516 7.531 0.280
25.8721 7.688 0.283
25.8925 7.490 0.279
25.9130 7.448 0.279
25.9334 7.490 0.279
25.9539 7.042 0.271
25.9744 7.563 0.281
25.9948 7.760 0.284
26.0153 7.625 0.282
26.0358 7.396 0.278
26.0562 7.563 0.281
26.0767 7.458 0.279
26.0971 7.490 0.279
26.1176 8.083 0.290
26.1381 7.719 0.284
26.1585 7.781 0.285
26.1790 7.625 0.282
26.1995 7.417 0.278
26.2199 7.760 0.284
26.2404 7.292 0.276
26.2609 8.083 0.290
26.2813 7.979 0.288
26.3018 7.958 0.288
26.3222 8.219 0.293
26.3427 8.250 0.293
26.3632 8.698 0.301
26.3836 9.052 0.307
26.4041 9.188 0.309
26.4246 9.708 0.318
26.4450 10.271 0.327
26.4655 10.823 0.336
26.4859 10.990 0.338
26.5064 10.708 0.334
26.5269 11.323 0.343
26.5473 10.729 0.334
26.5678 9.771 0.319
26.5883 10.042 0.323
26.6087 9.333 0.312
26.6292 9.802 0.320
26.6496 9.698 0.318
26.6701 9.313 0.311
26.6906 9.656 0.317
26.7110 9.938 0.322
26.7315 10.010 0.323
26.7520 11.146 0.341
26.7724 11.354 0.344
26.7929 11.802 0.351
26.8133 14.031 0.382
26.8338 14.281 0.386
26.8543 14.740 0.392
26.8747 14.854 0.393
26.8952 14.927 0.394
26.9157 13.531 0.375
26.9361 12.646 0.363
26.9566 11.667 0.349
26.9770 10.438 0.330
26.9975 10.750 0.335
27.0180 10.958 0.338
27.0384 10.563 0.332
27.0589 9.927 0.322
27.0794 9.385 0.313
27.0998 8.698 0.301
27.1203 9.115 0.308
27.1408 8.885 0.304
27.1612 8.906 0.305
27.1817 8.542 0.298
27.2021 8.406 0.296
27.2226 7.854 0.286
27.2431 7.240 0.275
27.2635 7.708 0.283
27.2840 8.031 0.289
27.3045 7.406 0.278
27.3249 7.729 0.284
27.3454 7.135 0.273
27.3658 7.406 0.278
27.3863 7.510 0.280
27.4068 7.938 0.288
27.4272 7.844 0.286
27.4477 8.500 0.298
27.4682 7.802 0.285
27.4886 8.396 0.296
27.5091 7.875 0.286
27.5295 8.219 0.293
27.5500 7.802 0.285
27.5705 7.333 0.276
27.5909 8.500 0.298
27.6114 8.292 0.294
27.6319 7.563 0.281
27.6523 7.792 0.285
27.6728 8.104 0.291
27.6932 8.219 0.293
27.7137 8.594 0.299
27.7342 8.542 0.298
27.7546 8.469 0.297
27.7751 8.427 0.296
27.7956 8.510 0.298
27.8160 9.469 0.314
27.8365 9.563 0.316
27.8569 9.094 0.308
27.8774 10.156 0.325
27.8979 10.417 0.329
27.9183 11.375 0.344
27.9388 11.615 0.348
27.9593 12.917 0.367
27.9797 12.781 0.365
28.0002 12.646 0.363
28.0207 13.010 0.368
28.0411 11.927 0.352
28.0616 11.260 0.342
28.0820 10.563 0.332
28.1025 8.938 0.305
28.1230 9.740 0.319
28.1434 8.625 0.300
28.1639 8.333 0.295
28.1844 7.708 0.283
28.2048 7.948 0.288
28.2253 7.729 0.284
28.2457 7.885 0.287
28.2662 7.656 0.282
28.2867 7.302 0.276
28.3071 7.458 0.279
28.3276 7.490 0.279
28.3481 7.365 0.277
28.3685 6.906 0.268
28.3890 7.500 0.280
28.4094 7.563 0.281
28.4299 7.917 0.287
28.4504 7.385 0.277
28.4708 7.542 0.280
28.4913 8.083 0.290
28.5118 7.250 0.275
28.5322 7.844 0.286
28.5527 7.979 0.288
28.5731 9.104 0.308
28.5936 8.344 0.295
28.6141 9.052 0.307
28.6345 9.833 0.320
28.6550 9.646 0.317
28.6755 10.188 0.326
28.6959 10.188 0.326
28.7164 10.354 0.328
28.7368 9.969 0.322
28.7573 10.042 0.323
28.7778 9.125 0.308
28.7982 9.521 0.315
28.8187 8.729 0.302
28.8392 8.896 0.304
28.8596 8.646 0.300
28.8801 9.271 0.311
28.9006 9.490 0.314
28.9210 9.448 0.314
28.9415 9.479 0.314
28.9619 9.875 0.321
28.9824 9.698 0.318
29.0029 9.448 0.314
29.0233 9.104 0.308
29.0438 9.219 0.310
29.0643 8.458 0.297
29.0847 8.219 0.293
29.1052 8.323 0.294
29.1256 6.958 0.269
29.1461 7.802 0.285
29.1666 7.354 0.277
29.1870 7.073 0.271
29.2075 7.906 0.287
29.2280 7.854 0.286
29.2484 8.083 0.290
29.2689 8.583 0.299
29.2893 9.656 0.317
29.3098 9.969 0.322
29.3303 10.125 0.325
29.3507 9.427 0.313
29.3712 9.094 0.308
29.3917 8.406 0.296
29.4121 8.104 0.291
29.4326 7.656 0.282
29.4530 7.208 0.274
29.4735 6.573 0.262
29.4940 6.813 0.266
29.5144 6.844 0.267
29.5349 7.073 0.271
29.5554 6.458 0.259
29.5758 6.760 0.265
29.5963 7.063 0.271
29.6168 6.885 0.268
29.6372 7.354 0.277
29.6577 6.854 0.267
29.6781 6.771 0.266
29.6986 7.000 0.270
29.7191 6.698 0.264
29.7395 6.500 0.260
29.7600 6.438 0.259
29.7805 6.646 0.263
29.8009 6.656 0.263
29.8214 6.938 0.269
29.8418 6.781 0.266
29.8623 6.448 0.259
29.8828 6.729 0.265
29.9032 6.708 0.264
29.9237 6.792 0.266
29.9442 6.531 0.261
29.9646 6.646 0.263
29.9851 6.771 0.266
30.0055 6.531 0.261
30.0260 6.510 0.260
30.0465 6.354 0.257
30.0669 6.083 0.252
30.0874 6.698 0.264
30.1079 6.313 0.256
30.1283 6.542 0.261
30.1488 6.458 0.259
30.1692 6.625 0.263
30.1897 6.740 0.265
30.2102 6.229 0.255
30.2306 6.167 0.253
30.2511 6.198 0.254
30.2716 6.313 0.256
30.2920 6.135 0.253
30.3125 6.198 0.254
30.3329 5.885 0.248
30.3534 6.073 0.252
30.3739 6.094 0.252
30.3943 6.333 0.257
30.4148 6.427 0.259
30.4353 6.052 0.251
30.4557 6.302 0.256
30.4762 6.698 0.264
30.4967 6.229 0.255
30.5171 6.146 0.253
30.5376 6.115 0.252
30.5580 6.323 0.257
30.5785 6.729 0.265
30.5990 6.375 0.258
30.6194 6.583 0.262
30.6399 6.448 0.259
30.6604 6.833 0.267
30.6808 6.750 0.265
30.7013 6.771 0.266
30.7217 6.615 0.262
30.7422 7.510 0.280
30.7627 7.323 0.276
30.7831 8.135 0.291
30.8036 7.729 0.284
30.8241 7.688 0.283
30.8445 8.948 0.305
30.8650 9.208 0.310
30.8854 9.698 0.318
30.9059 12.000 0.354
30.9264 16.365 0.413
30.9468 23.844 0.498
30.9673 37.823 0.628
30.9878 50.865 0.728
31.0082 54.479 0.753
31.0287 56.000 0.764
31.0491 48.333 0.710
31.0696 40.833 0.652
31.0901 34.635 0.601
31.1105 29.656 0.556
31.1310 21.917 0.478
31.1515 14.490 0.389
31.1719 10.625 0.333
31.1924 9.875 0.321
31.2128 8.656 0.300
31.2333 8.313 0.294
31.2538 8.281 0.294
31.2742 7.115 0.272
31.2947 7.177 0.273
31.3152 7.271 0.275
31.3356 6.531 0.261
31.3561 6.927 0.269
31.3766 6.552 0.261
31.3970 7.115 0.272
31.4175 6.552 0.261
31.4379 6.750 0.265
31.4584 6.792 0.266
31.4789 6.625 0.263
31.4993 6.438 0.259
31.5198 6.573 0.262
31.5403 6.573 0.262
31.5607 6.740 0.265
31.5812 7.073 0.271
31.6016 5.990 0.250
31.6221 6.500 0.260
31.6426 6.500 0.260
31.6630 6.688 0.264
31.6835 6.385 0.258
31.7040 6.292 0.256
31.7244 6.760 0.265
31.7449 6.729 0.265
31.7653 7.021 0.270
31.7858 7.104 0.272
31.8063 7.083 0.272
31.8267 7.333 0.276
31.8472 7.563 0.281
31.8677 7.010 0.270
31.8881 7.958 0.288
31.9086 7.344 0.277
31.9290 7.354 0.277
31.9495 7.156 0.273
31.9700 7.552 0.280
31.9904 7.646 0.282
32.0109 8.219 0.293
32.0314 8.823 0.303
32.0518 9.031 0.307
32.0723 9.573 0.316
32.0927 9.302 0.311
32.1132 9.677 0.317
32.1337 10.052 0.324
32.1541 10.146 0.325
32.1746 10.125 0.325
32.1951 10.604 0.332
32.2155 10.292 0.327
32.2360 10.646 0.333
32.2565 10.875 0.337
32.2769 10.969 0.338
32.2974 10.510 0.331
32.3178 10.927 0.337
32.3383 11.615 0.348
32.3588 11.781 0.350
32.3792 13.323 0.373
32.3997 14.385 0.387
32.4202 17.583 0.428
32.4406 19.792 0.454
32.4611 22.479 0.484
32.4815 20.563 0.463
32.5020 21.458 0.473
32.5225 23.094 0.490
32.5429 23.844 0.498
32.5634 25.573 0.516
32.5839 24.979 0.510
32.6043 22.146 0.480
32.6248 17.781 0.430
32.6452 16.375 0.413
32.6657 15.229 0.398
32.6862 12.979 0.368
32.7066 10.771 0.335
32.7271 8.698 0.301
32.7476 7.469 0.279
32.7680 7.406 0.278
32.7885 7.198 0.274
32.8089 6.729 0.265
32.8294 7.083 0.272
32.8499 6.708 0.264
32.8703 7.010 0.270
32.8908 6.698 0.264
32.9113 7.073 0.271
32.9317 6.031 0.251
32.9522 6.479 0.260
32.9726 6.823 0.267
32.9931 7.104 0.272
33.0136 6.792 0.266
33.0340 6.896 0.268
33.0545 7.146 0.273
33.0750 6.583 0.262
33.0954 7.354 0.277
33.1159 6.667 0.264
33.1364 6.604 0.262
33.1568 6.479 0.260
33.1773 6.656 0.263
33.1977 6.896 0.268
33.2182 6.542 0.261
33.2387 7.073 0.271
33.2591 6.406 0.258
33.2796 6.552 0.261
33.3001 6.615 0.262
33.3205 6.177 0.254
33.3410 6.500 0.260
33.3614 6.740 0.265
33.3819 6.063 0.251
33.4024 6.531 0.261
33.4228 6.417 0.259
33.4433 6.042 0.251
33.4638 7.042 0.271
33.4842 6.469 0.260
33.5047 6.052 0.251
33.5251 6.031 0.251
33.5456 5.948 0.249
33.5661 5.979 0.250
33.5865 6.719 0.265
33.6070 6.698 0.264
33.6275 6.458 0.259
33.6479 6.552 0.261
33.6684 6.125 0.253
33.6888 6.281 0.256
33.7093 6.073 0.252
33.7298 6.365 0.257
33.7502 6.740 0.265
33.7707 6.802 0.266
33.7912 6.667 0.264
33.8116 7.073 0.271
33.8321 6.490 0.260
33.8526 6.438 0.259
33.8730 7.125 0.272
33.8935 6.406 0.258
33.9139 6.771 0.266
33.9344 6.479 0.260
33.9549 6.177 0.254
33.9753 6.333 0.257
33.9958 6.594 0.262
34.0163 6.031 0.251
34.0367 6.844 0.267
34.0572 6.448 0.259
34.0776 6.219 0.255
34.0981 6.604 0.262
34.1186 6.948 0.269
34.1390 6.938 0.269
34.1595 7.188 0.274
34.1800 7.104 0.272
34.2004 7.073 0.271
34.2209 7.427 0.278
34.2413 7.156 0.273
34.2618 7.167 0.273
34.2823 6.573 0.262
34.3027 7.271 0.275
34.3232 7.490 0.279
34.3437 6.885 0.268
34.3641 6.875 0.268
34.3846 6.677 0.264
34.4050 6.688 0.264
34.4255 6.406 0.258
34.4460 6.469 0.260
34.4664 6.427 0.259
34.4869 6.010 0.250
34.5074 6.552 0.261
34.5278 6.031 0.251
34.5483 6.031 0.251
34.5687 5.979 0.250
34.5892 6.281 0.256
34.6097 6.156 0.253
34.6301 5.948 0.249
34.6506 5.854 0.247
34.6711 6.323 0.257
34.6915 6.167 0.253
34.7120 5.740 0.245
34.7325 5.875 0.247
34.7529 5.844 0.247
34.7734 6.094 0.252
34.7938 6.271 0.256
34.8143 6.406 0.258
34.8348 6.260 0.255
34.8552 6.604 0.262
34.8757 6.365 0.257
34.8962 7.115 0.272
34.9166 7.156 0.273
34.9371 7.219 0.274
34.9575 8.115 0.291
34.9780 7.719 0.284
34.9985 8.281 0.294
35.0189 7.781 0.285
35.0394 8.490 0.297
35.0599 7.958 0.288
35.0803 7.646 0.282
35.1008 7.208 0.274
35.1212 6.802 0.266
35.1417 6.844 0.267
35.1622 6.927 0.269
35.1826 6.948 0.269
35.2031 6.635 0.263
35.2236 6.708 0.264
35.2440 6.167 0.253
35.2645 6.625 0.263
35.2849 6.448 0.259
35.3054 6.688 0.264
35.3259 6.979 0.270
35.3463 6.406 0.258
35.3668 6.635 0.263
35.3873 6.333 0.257
35.4077 6.896 0.268
35.4282 6.302 0.256
35.4486 6.688 0.264
35.4691 6.396 0.258
35.4896 6.698 0.264
35.5100 6.969 0.269
35.5305 7.250 0.275
35.5510 7.156 0.273
35.5714 6.615 0.262
35.5919 7.146 0.273
35.6124 7.313 0.276
35.6328 7.208 0.274
35.6533 7.833 0.286
35.6737 7.781 0.285
35.6942 8.167 0.292
35.7147 8.385 0.296
35.7351 7.844 0.286
35.7556 7.750 0.284
35.7761 8.500 0.298
35.7965 7.427 0.278
35.8170 7.906 0.287
35.8374 8.510 0.298
35.8579 8.135 0.291
35.8784 8.625 0.300
35.8988 8.688 0.301
35.9193 8.990 0.306
35.9398 9.302 0.311
35.9602 9.708 0.318
35.9807 10.146 0.325
36.0011 10.219 0.326
36.0216 11.510 0.346
36.0421 12.333 0.358
36.0625 14.021 0.382
36.0830 16.167 0.410
36.1035 19.698 0.453
36.1239 22.708 0.486
36.1444 21.854 0.477
36.1648 20.188 0.459
36.1853 18.281 0.436
36.2058 19.083 0.446
36.2262 18.448 0.438
36.2467 19.458 0.450
36.2672 17.552 0.428
36.2876 17.115 0.422
36.3081 18.510 0.439
36.3285 19.750 0.454
36.3490 21.719 0.476
36.3695 24.427 0.504
36.3899 26.479 0.525
36.4104 30.302 0.562
36.4309 30.365 0.562
36.4513 29.438 0.554
36.4718 29.667 0.556
36.4923 30.146 0.560
36.5127 31.063 0.569
36.5332 33.646 0.592
36.5536 36.698 0.618
36.5741 35.885 0.611
36.5946 31.354 0.571
36.6150 28.219 0.542
36.6355 26.979 0.530
36.6560 26.646 0.527
36.6764 25.219 0.513
36.6969 20.667 0.464
36.7173 18.219 0.436
36.7378 17.115 0.422
36.7583 16.167 0.410
36.7787 15.719 0.405
36.7992 15.656 0.404
36.8197 16.865 0.419
36.8401 16.281 0.412
36.8606 16.073 0.409
36.8810 16.302 0.412
36.9015 17.396 0.426
36.9220 17.458 0.426
36.9424 19.698 0.453
36.9629 21.854 0.477
36.9834 24.917 0.509
37.0038 28.292 0.543
37.0243 34.708 0.601
37.0447 33.635 0.592
37.0652 27.865 0.539
37.0857 24.469 0.505
37.1061 22.865 0.488
37.1266 22.406 0.483
37.1471 21.042 0.468
37.1675 16.698 0.417
37.1880 14.073 0.383
37.2084 12.646 0.363
37.2289 12.281 0.358
37.2494 11.083 0.340
37.2698 10.563 0.332
37.2903 10.698 0.334
37.3108 10.031 0.323
37.3312 10.313 0.328
37.3517 9.656 0.317
37.3722 10.021 0.323
37.3926 9.854 0.320
37.4131 9.396 0.313
37.4335 10.104 0.324
37.4540 10.313 0.328
37.4745 10.333 0.328
37.4949 11.615 0.348
37.5154 12.083 0.355
37.5359 13.969 0.381
37.5563 15.063 0.396
37.5768 15.948 0.408
37.5972 18.281 0.436
37.6177 19.552 0.451
37.6382 20.771 0.465
37.6586 20.167 0.458
37.6791 18.979 0.445
37.6996 18.365 0.437
37.7200 17.563 0.428
37.7405 16.448 0.414
37.7609 14.833 0.393
37.7814 14.073 0.383
37.8019 13.083 0.369
37.8223 11.667 0.349
37.8428 12.198 0.356
37.8633 11.042 0.339
37.8837 11.469 0.346
37.9042 11.479 0.346
37.9246 12.771 0.365
37.9451 14.208 0.385
37.9656 16.760 0.418
37.9860 18.479 0.439
38.0065 16.813 0.418
38.0270 15.458 0.401
38.0474 14.781 0.392
38.0679 15.740 0.405
38.0884 16.115 0.410
38.1088 14.948 0.395
38.1293 13.313 0.372
38.1497 14.188 0.384
38.1702 15.135 0.397
38.1907 14.604 0.390
38.2111 14.531 0.389
38.2316 14.188 0.384
38.2521 13.365 0.373
38.2725 13.438 0.374
38.2930 13.656 0.377
38.3134 12.604 0.362
38.3339 11.719 0.349
38.3544 11.927 0.352
38.3748 12.396 0.359
38.3953 13.052 0.369
38.4158 14.427 0.388
38.4362 13.125 0.370
38.4567 12.885 0.366
38.4771 12.021 0.354
38.4976 11.458 0.345
38.5181 12.094 0.355
38.5385 12.010 0.354
38.5590 10.781 0.335
38.5795 10.417 0.329
38.5999 9.719 0.318
38.6204 9.438 0.314
38.6408 9.406 0.313
38.6613 8.906 0.305
38.6818 8.771 0.302
38.7022 8.396 0.296
38.7227 9.135 0.308
38.7432 9.146 0.309
38.7636 9.740 0.319
38.7841 9.333 0.312
38.8045 8.427 0.296
38.8250 9.594 0.316
38.8455 8.760 0.302
38.8659 8.906 0.305
38.8864 9.167 0.309
38.9069 9.948 0.322
38.9273 9.927 0.322
38.9478 10.813 0.336
38.9683 11.500 0.346
38.9887 11.729 0.350
39.0092 11.240 0.342
39.0296 11.135 0.341
39.0501 10.490 0.331
39.0706 10.563 0.332
39.0910 10.083 0.324
39.1115 10.177 0.326
39.1320 9.458 0.314
39.1524 9.938 0.322
39.1729 9.281 0.311
39.1933 10.375 0.329
39.2138 10.688 0.334
39.2343 10.031 0.323
39.2547 10.573 0.332
39.2752 11.188 0.341
39.2957 11.552 0.347
39.3161 11.563 0.347
39.3366 11.198 0.342
39.3570 12.323 0.358
39.3775 12.115 0.355
39.3980 11.490 0.346
39.4184 10.698 0.334
39.4389 10.219 0.326
39.4594 10.250 0.327
39.4798 10.333 0.328
39.5003 9.521 0.315
39.5207 9.292 0.311
39.5412 8.646 0.300
39.5617 9.313 0.311
39.5821 9.135 0.308
39.6026 8.417 0.296
39.6231 9.135 0.308
39.6435 9.281 0.311
39.6640 9.427 0.313
39.6844 9.469 0.314
39.7049 9.823 0.320
39.7254 10.365 0.329
39.7458 11.625 0.348
39.7663 11.333 0.344
39.7868 11.583 0.347
39.8072 10.417 0.329
39.8277 11.021 0.339
39.8482 10.813 0.336
39.8686 10.906 0.337
39.8891 11.052 0.339
39.9095 10.323 0.328
39.9300 10.948 0.338
39.9505 10.979 0.338
39.9709 11.594 0.348
39.9914 12.500 0.361
40.0119 13.510 0.375
40.0323 13.740 0.378
40.0528 14.781 0.392
40.0732 15.271 0.399
40.0937 14.479 0.388
40.1142 14.688 0.391
40.1346 15.813 0.406
40.1551 14.448 0.388
40.1756 15.635 0.404
40.1960 15.875 0.407
40.2165 19.469 0.450
40.2369 18.615 0.440
40.2574 14.313 0.386
40.2779 12.688 0.364
40.2983 13.073 0.369
40.3188 13.698 0.378
40.3393 13.167 0.370
40.3597 11.188 0.341
40.3802 10.063 0.324
40.4006 9.896 0.321
40.4211 9.188 0.309
40.4416 9.531 0.315
40.4620 9.469 0.314
40.4825 9.250 0.310
40.5030 9.271 0.311
40.5234 9.500 0.315
40.5439 9.260 0.311
40.5643 9.479 0.314
40.5848 9.490 0.314
40.6053 9.135 0.308
40.6257 8.708 0.301
40.6462 9.896 0.321
40.6667 9.250 0.310
40.6871 8.417 0.296
40.7076 8.448 0.297
40.7281 8.938 0.305
40.7485 9.188 0.309
40.7690 8.927 0.305
40.7894 9.271 0.311
40.8099 8.885 0.304
40.8304 8.990 0.306
40.8508 8.865 0.304
40.8713 8.656 0.300
40.8918 9.073 0.307
40.9122 8.958 0.305
40.9327 9.000 0.306
40.9531 8.427 0.296
40.9736 9.583 0.316
40.9941 9.240 0.310
41.0145 9.698 0.318
41.0350 10.844 0.336
41.0555 11.021 0.339
41.0759 13.000 0.368
41.0964 13.323 0.373
41.1168 11.781 0.350
41.1373 11.042 0.339
41.1578 11.135 0.341
41.1782 11.448 0.345
41.1987 11.208 0.342
41.2192 10.333 0.328
41.2396 8.854 0.304
41.2601 8.573 0.299
41.2805 7.771 0.285
41.3010 7.844 0.286
41.3215 8.115 0.291
41.3419 7.875 0.286
41.3624 7.969 0.288
41.3829 7.865 0.286
41.4033 8.063 0.290
41.4238 8.313 0.294
41.4442 7.990 0.288
41.4647 7.958 0.288
41.4852 8.344 0.295
41.5056 8.240 0.293
41.5261 8.635 0.300
41.5466 8.854 0.304
41.5670 9.427 0.313
41.5875 9.802 0.320
41.6080 9.938 0.322
41.6284 10.177 0.326
41.6489 11.042 0.339
41.6693 10.521 0.331
41.6898 10.792 0.335
41.7103 10.063 0.324
41.7307 9.854 0.320
41.7512 9.510 0.315
41.7717 9.781 0.319
41.7921 8.854 0.304
41.8126 9.073 0.307
41.8330 8.958 0.305
41.8535 8.479 0.297
41.8740 8.510 0.298
41.8944 8.479 0.297
41.9149 8.177 0.292
41.9354 8.260 0.293
41.9558 7.917 0.287
41.9763 8.167 0.292
41.9967 8.219 0.293
42.0172 7.896 0.287
42.0377 7.438 0.278
42.0581 6.917 0.268
42.0786 7.344 0.277
42.0991 7.656 0.282
42.1195 7.813 0.285
42.1400 8.073 0.290
42.1604 7.750 0.284
42.1809 8.021 0.289
42.2014 8.771 0.302
42.2218 8.542 0.298
42.2423 9.677 0.317
42.2628 11.063 0.339
42.2832 11.385 0.344
42.3037 12.625 0.363
42.3242 13.771 0.379
42.3446 13.490 0.375
42.3651 12.760 0.365
42.3855 12.958 0.367
42.4060 12.969 0.368
42.4265 13.604 0.376
42.4469 12.854 0.366
42.4674 11.448 0.345
42.4879 10.906 0.337
42.5083 10.750 0.335
42.5288 9.948 0.322
42.5492 9.948 0.322
42.5697 9.146 0.309
42.5902 9.563 0.316
42.6106 9.052 0.307
42.6311 9.167 0.309
42.6516 7.958 0.288
42.6720 8.760 0.302
42.6925 8.563 0.299
42.7129 8.354 0.295
42.7334 8.365 0.295
42.7539 7.760 0.284
42.7743 8.271 0.294
42.7948 7.344 0.277
42.8153 7.875 0.286
42.8357 8.146 0.291
42.8562 8.000 0.289
42.8766 8.010 0.289
42.8971 7.458 0.279
42.9176 6.771 0.266
42.9380 7.208 0.274
42.9585 7.281 0.275
42.9790 7.677 0.283
42.9994 7.896 0.287
43.0199 8.156 0.291
43.0403 7.948 0.288
43.0608 7.896 0.287
43.0813 7.948 0.288
43.1017 8.229 0.293
43.1222 8.427 0.296
43.1427 8.708 0.301
43.1631 9.427 0.313
43.1836 9.104 0.308
43.2041 9.208 0.310
43.2245 9.719 0.318
43.2450 10.177 0.326
43.2654 10.417 0.329
43.2859 10.375 0.329
43.3064 9.646 0.317
43.3268 10.177 0.326
43.3473 9.885 0.321
43.3678 10.250 0.327
43.3882 10.354 0.328
43.4087 10.813 0.336
43.4291 10.875 0.337
43.4496 11.490 0.346
43.4701 11.750 0.350
43.4905 12.927 0.367
43.5110 14.073 0.383
43.5315 15.781 0.405
43.5519 18.167 0.435
43.5724 21.438 0.473
43.5928 21.375 0.472
43.6133 18.458 0.438
43.6338 16.042 0.409
43.6542 13.792 0.379
43.6747 14.167 0.384
43.6952 14.750 0.392
43.7156 13.604 0.376
43.7361 11.885 0.352
43.7565 10.604 0.332
43.7770 8.906 0.305
43.7975 8.708 0.301
43.8179 9.083 0.308
43.8384 8.552 0.298
43.8589 8.531 0.298
43.8793 9.188 0.309
43.8998 8.333 0.295
43.9202 8.250 0.293
43.9407 9.313 0.311
43.9612 8.948 0.305
43.9816 8.688 0.301
44.0021 9.927 0.322
44.0226 10.042 0.323
44.0430 11.031 0.339
44.0635 11.760 0.350
44.0840 12.500 0.361
44.1044 13.625 0.377
44.1249 13.656 0.377
44.1453 13.938 0.381
44.1658 13.510 0.375
44.1863 13.396 0.374
44.2067 13.135 0.370
44.2272 12.792 0.365
44.2477 13.021 0.368
44.2681 11.552 0.347
44.2886 10.510 0.331
44.3090 9.875 0.321
44.3295 9.958 0.322
44.3500 9.000 0.306
44.3704 8.698 0.301
44.3909 8.188 0.292
44.4114 8.115 0.291
44.4318 8.063 0.290
44.4523 7.969 0.288
44.4727 7.229 0.274
44.4932 7.844 0.286
44.5137 7.750 0.284
44.5341 6.604 0.262
44.5546 7.740 0.284
44.5751 7.896 0.287
44.5955 7.125 0.272
44.6160 7.052 0.271
44.6364 7.469 0.279
44.6569 7.635 0.282
44.6774 7.302 0.276
44.6978 7.354 0.277
44.7183 7.406 0.278
44.7388 7.729 0.284
44.7592 7.542 0.280
44.7797 8.281 0.294
44.8001 7.667 0.283
44.8206 8.042 0.289
44.8411 7.208 0.274
44.8615 7.469 0.279
44.8820 7.406 0.278
44.9025 7.333 0.276
44.9229 7.969 0.288
44.9434 8.583 0.299
44.9639 8.635 0.300
44.9843 8.708 0.301
45.0048 8.313 0.294
45.0252 8.438 0.296
45.0457 8.250 0.293
45.0662 8.979 0.306
45.0866 8.385 0.296
45.1071 8.688 0.301
45.1276 8.896 0.304
45.1480 9.625 0.317
45.1685 10.510 0.331
45.1889 11.417 0.345
45.2094 11.750 0.350
45.2299 12.365 0.359
45.2503 11.021 0.339
45.2708 11.406 0.345
45.2913 12.240 0.357
45.3117 13.000 0.368
45.3322 13.990 0.382
45.3526 14.188 0.384
45.3731 14.271 0.386
45.3936 14.156 0.384
45.4140 12.854 0.366
45.4345 13.063 0.369
45.4550 12.094 0.355
45.4754 12.063 0.354
45.4959 11.125 0.340
45.5163 11.021 0.339
45.5368 9.760 0.319
45.5573 9.635 0.317
45.5777 8.969 0.306
45.5982 7.688 0.283
45.6187 7.313 0.276
45.6391 7.219 0.274
45.6596 6.885 0.268
45.6800 7.094 0.272
45.7005 6.365 0.257
45.7210 6.281 0.256
45.7414 5.979 0.250
45.7619 6.177 0.254
45.7824 5.969 0.249
45.8028 5.969 0.249
45.8233 6.385 0.258
45.8438 6.208 0.254
45.8642 5.667 0.243
45.8847 5.760 0.245
45.9051 5.604 0.242
45.9256 5.792 0.246
45.9461 5.813 0.246
45.9665 5.573 0.241
45.9870 6.135 0.253
46.0075 5.896 0.248
46.0279 5.958 0.249
46.0484 6.052 0.251
46.0688 5.438 0.238
46.0893 5.854 0.247
46.1098 5.906 0.248
46.1302 5.958 0.249
46.1507 6.229 0.255
46.1712 5.302 0.235
46.1916 6.354 0.257
46.2121 6.115 0.252
46.2325 6.615 0.262
46.2530 6.344 0.257
46.2735 6.135 0.253
46.2939 5.458 0.238
46.3144 5.510 0.240
46.3349 5.458 0.238
46.3553 5.823 0.246
46.3758 5.375 0.237
46.3962 5.115 0.231
46.4167 5.479 0.239
46.4372 5.479 0.239
46.4576 5.427 0.238
46.4781 5.302 0.235
46.4986 5.802 0.246
46.5190 5.510 0.240
46.5395 5.500 0.239
46.5600 5.531 0.240
46.5804 5.292 0.235
46.6009 5.167 0.232
46.6213 5.646 0.243
46.6418 5.292 0.235
46.6623 5.698 0.244
46.6827 5.552 0.240
46.7032 5.583 0.241
46.7237 5.365 0.236
46.7441 5.656 0.243
46.7646 5.750 0.245
46.7850 5.385 0.237
46.8055 5.250 0.234
46.8260 5.604 0.242
46.8464 5.198 0.233
46.8669 5.563 0.241
46.8874 5.146 0.232
46.9078 5.344 0.236
46.9283 5.635 0.242
46.9487 5.469 0.239
46.9692 5.302 0.235
46.9897 5.385 0.237
47.0101 5.719 0.244
47.0306 5.385 0.237
47.0511 6.094 0.252
47.0715 5.625 0.242
47.0920 5.625 0.242
47.1124 6.188 0.254
47.1329 6.760 0.265
47.1534 6.656 0.263
47.1738 6.563 0.261
47.1943 7.135 0.273
47.2148 7.115 0.272
47.2352 7.063 0.271
47.2557 8.073 0.290
47.2761 8.010 0.289
47.2966 8.198 0.292
47.3171 9.125 0.308
47.3375 9.427 0.313
47.3580 9.479 0.314
47.3785 9.240 0.310
47.3989 9.240 0.310
47.4194 9.583 0.316
47.4399 9.677 0.317
47.4603 10.052 0.324
47.4808 9.917 0.321
47.5012 10.156 0.325
47.5217 11.583 0.347
47.5422 14.344 0.387
47.5626 17.375 0.425
47.5831 15.927 0.407
47.6036 12.323 0.358
47.6240 11.250 0.342
47.6445 11.906 0.352
47.6649 11.427 0.345
47.6854 12.333 0.358
47.7059 11.625 0.348
47.7263 10.708 0.334
47.7468 9.031 0.307
47.7673 8.104 0.291
47.7877 8.417 0.296
47.8082 7.729 0.284
47.8286 7.771 0.285
47.8491 7.542 0.280
47.8696 7.583 0.281
47.8900 6.990 0.270
47.9105 7.292 0.276
47.9310 7.177 0.273
47.9514 7.219 0.274
47.9719 7.969 0.288
47.9923 7.750 0.284
48.0128 7.510 0.280
48.0333 8.125 0.291
48.0537 8.208 0.292
48.0742 8.646 0.300
48.0947 7.198 0.274
48.1151 7.385 0.277
48.1356 7.333 0.276
48.1560 7.458 0.279
48.1765 7.365 0.277
48.1970 7.344 0.277
48.2174 7.323 0.276
48.2379 7.125 0.272
48.2584 6.990 0.270
48.2788 7.042 0.271
48.2993 7.813 0.285
48.3198 8.135 0.291
48.3402 8.188 0.292
48.3607 8.396 0.296
48.3811 8.688 0.301
48.4016 8.156 0.291
48.4221 8.000 0.289
48.4425 7.760 0.284
48.4630 7.104 0.272
48.4835 6.958 0.269
48.5039 7.198 0.274
48.5244 7.052 0.271
48.5448 6.646 0.263
48.5653 6.260 0.255
48.5858 6.479 0.260
48.6062 6.896 0.268
48.6267 6.583 0.262
48.6472 7.042 0.271
48.6676 7.042 0.271
48.6881 7.344 0.277
48.7085 7.021 0.270
48.7290 6.490 0.260
48.7495 5.750 0.245
48.7699 5.698 0.244
48.7904 5.813 0.246
48.8109 6.188 0.254
48.8313 6.198 0.254
48.8518 5.948 0.249
48.8722 5.188 0.232
48.8927 5.115 0.231
48.9132 4.656 0.220
48.9336 4.906 0.226
48.9541 5.208 0.233
48.9746 4.760 0.223
48.9950 5.167 0.232
49.0155 4.979 0.228
49.0359 4.906 0.226
49.0564 5.667 0.243
49.0769 5.240 0.234
49.0973 5.375 0.237
49.1178 5.354 0.236
49.1383 5.208 0.233
49.1587 5.292 0.235
49.1792 5.115 0.231
49.1997 5.479 0.239
49.2201 5.917 0.248
49.2406 4.990 0.228
49.2610 5.052 0.229
49.2815 5.406 0.237
49.3020 5.438 0.238
49.3224 5.000 0.228
49.3429 5.969 0.249
49.3634 5.677 0.243
49.3838 5.438 0.238
49.4043 6.188 0.254
49.4247 5.771 0.245
49.4452 5.917 0.248
49.4657 6.406 0.258
49.4861 6.354 0.257
49.5066 6.240 0.255
49.5271 6.302 0.256
49.5475 6.552 0.261
49.5680 6.854 0.267
49.5884 6.865 0.267
49.6089 7.521 0.280
49.6294 7.146 0.273
49.6498 8.031 0.289
49.6703 7.500 0.280
49.6908 7.896 0.287
49.7112 8.417 0.296
49.7317 9.260 0.311
49.7521 10.500 0.331
49.7726 11.813 0.351
49.7931 13.813 0.379
49.8135 14.844 0.393
49.8340 14.615 0.390
49.8545 13.427 0.374
49.8749 12.115 0.355
49.8954 12.542 0.361
49.9158 12.104 0.355
49.9363 12.583 0.362
49.9568 12.906 0.367
49.9772 11.688 0.349
49.9977 11.906 0.352
50.0182 10.719 0.334
50.0386 9.990 0.323
50.0591 9.250 0.310
50.0796 9.385 0.313
50.1000 8.948 0.305
50.1205 9.448 0.314
50.1409 9.906 0.321
50.1614 10.635 0.333
50.1819 10.365 0.329
50.2023 9.302 0.311
50.2228 9.792 0.319
50.2433 8.906 0.305
50.2637 8.896 0.304
50.2842 10.083 0.324
50.3046 9.896 0.321
50.3251 9.573 0.316
50.3456 9.635 0.317
50.3660 9.677 0.317
50.3865 10.573 0.332
50.4070 10.531 0.331
50.4274 11.531 0.347
50.4479 11.490 0.346
50.4683 12.563 0.362
50.4888 12.365 0.359
50.5093 12.417 0.360
50.5297 12.177 0.356
50.5502 12.625 0.363
50.5707 12.146 0.356
50.5911 12.240 0.357
50.6116 11.990 0.353
50.6320 12.229 0.357
50.6525 12.365 0.359
50.6730 12.302 0.358
50.6934 11.188 0.341
50.7139 10.313 0.328
50.7344 9.781 0.319
50.7548 9.188 0.309
50.7753 9.531 0.315
50.7958 9.365 0.312
50.8162 9.219 0.310
50.8367 8.563 0.299
50.8571 8.990 0.306
50.8776 8.823 0.303
50.8981 9.406 0.313
50.9185 10.104 0.324
50.9390 9.313 0.311
50.9595 9.219 0.310
50.9799 8.813 0.303
51.0004 8.156 0.291
51.0208 7.635 0.282
51.0413 7.802 0.285
51.0618 7.833 0.286
51.0822 7.167 0.273
51.1027 6.625 0.263
51.1232 6.656 0.263
51.1436 6.083 0.252
51.1641 6.417 0.259
51.1845 6.177 0.254
51.2050 5.958 0.249
51.2255 6.438 0.259
51.2459 6.500 0.260
51.2664 6.771 0.266
51.2869 5.792 0.246
51.3073 6.344 0.257
51.3278 5.969 0.249
51.3482 6.010 0.250
51.3687 5.917 0.248
51.3892 5.542 0.240
51.4096 6.073 0.252
51.4301 5.917 0.248
51.4506 5.667 0.243
51.4710 5.990 0.250
51.4915 5.417 0.238
51.5119 5.469 0.239
51.5324 5.979 0.250
51.5529 6.125 0.253
51.5733 6.229 0.255
51.5938 6.635 0.263
51.6143 6.875 0.268
51.6347 6.740 0.265
51.6552 6.531 0.261
51.6757 6.208 0.254
51.6961 5.844 0.247
51.7166 5.677 0.243
51.7370 5.552 0.240
51.7575 5.906 0.248
51.7780 5.302 0.235
51.7984 5.573 0.241
51.8189 5.302 0.235
51.8394 5.792 0.246
51.8598 5.281 0.235
51.8803 5.990 0.250
51.9007 5.771 0.245
51.9212 5.688 0.243
51.9417 5.458 0.238
51.9621 6.375 0.258
51.9826 6.219 0.255
52.0031 6.104 0.252
52.0235 7.021 0.270
52.0440 7.646 0.282
52.0644 8.188 0.292
52.0849 8.208 0.292
52.1054 8.729 0.302
52.1258 9.115 0.308
52.1463 9.260 0.311
52.1668 8.885 0.304
52.1872 8.219 0.293
52.2077 8.323 0.294
52.2281 9.135 0.308
52.2486 8.115 0.291
52.2691 8.635 0.300
52.2895 8.313 0.294
52.3100 7.563 0.281
52.3305 7.229 0.274
52.3509 7.063 0.271
52.3714 6.521 0.261
52.3918 6.677 0.264
52.4123 6.031 0.251
52.4328 5.583 0.241
52.4532 6.302 0.256
52.4737 5.719 0.244
52.4942 5.771 0.245
52.5146 5.760 0.245
52.5351 5.563 0.241
52.5556 5.542 0.240
52.5760 5.313 0.235
52.5965 5.521 0.240
52.6169 5.406 0.237
52.6374 5.177 0.232
52.6579 5.469 0.239
52.6783 5.271 0.234
52.6988 4.948 0.227
52.7193 5.021 0.229
52.7397 5.594 0.241
52.7602 4.990 0.228
52.7806 5.490 0.239
52.8011 5.094 0.230
52.8216 4.656 0.220
52.8420 5.479 0.239
52.8625 4.927 0.227
52.8830 5.010 0.228
52.9034 4.979 0.228
52.9239 4.729 0.222
52.9443 5.094 0.230
52.9648 5.292 0.235
52.9853 5.417 0.238
53.0057 5.365 0.236
53.0262 5.146 0.232
53.0467 5.469 0.239
53.0671 5.656 0.243
53.0876 5.531 0.240
53.1080 5.521 0.240
53.1285 5.479 0.239
53.1490 5.854 0.247
53.1694 5.625 0.242
53.1899 5.573 0.241
53.2104 5.313 0.235
53.2308 5.115 0.231
53.2513 5.229 0.233
53.2717 5.510 0.240
53.2922 5.573 0.241
53.3127 5.458 0.238
53.3331 4.823 0.224
53.3536 5.125 0.231
53.3741 5.042 0.229
53.3945 4.948 0.227
53.4150 5.417 0.238
53.4355 5.229 0.233
53.4559 5.448 0.238
53.4764 5.375 0.237
53.4968 5.458 0.238
53.5173 5.427 0.238
53.5378 5.479 0.239
53.5582 5.615 0.242
53.5787 5.552 0.240
53.5992 5.531 0.240
53.6196 6.042 0.251
53.6401 5.406 0.237
53.6605 5.604 0.242
53.6810 5.719 0.244
53.7015 5.677 0.243
53.7219 5.844 0.247
53.7424 5.406 0.237
53.7629 5.250 0.234
53.7833 5.219 0.233
53.8038 5.208 0.233
53.8242 5.125 0.231
53.8447 5.271 0.234
53.8652 5.354 0.236
53.8856 5.438 0.238
53.9061 5.021 0.229
53.9266 5.104 0.231
53.9470 5.729 0.244
53.9675 4.958 0.227
53.9879 5.323 0.235
54.0084 5.500 0.239
54.0289 5.677 0.243
54.0493 5.583 0.241
54.0698 5.740 0.245
54.0903 5.906 0.248
54.1107 5.625 0.242
54.1312 5.906 0.248
54.1516 6.729 0.265
54.1721 5.917 0.248
54.1926 6.302 0.256
54.2130 6.063 0.251
54.2335 6.875 0.268
54.2540 6.635 0.263
54.2744 6.865 0.267
54.2949 6.969 0.269
54.3154 7.417 0.278
54.3358 7.833 0.286
54.3563 8.198 0.292
54.3767 8.000 0.289
54.3972 8.490 0.297
54.4177 8.083 0.290
54.4381 8.396 0.296
54.4586 8.375 0.295
54.4791 8.490 0.297
54.4995 8.271 0.294
54.5200 7.771 0.285
54.5404 7.875 0.286
54.5609 7.781 0.285
54.5814 7.135 0.273
54.6018 6.719 0.265
54.6223 7.156 0.273
54.6428 6.135 0.253
54.6632 6.531 0.261
54.6837 6.073 0.252
54.7041 6.188 0.254
54.7246 5.760 0.245
54.7451 5.958 0.249
54.7655 5.479 0.239
54.7860 5.010 0.228
54.8065 5.333 0.236
54.8269 5.167 0.232
54.8474 5.573 0.241
54.8678 5.375 0.237
54.8883 5.240 0.234
54.9088 5.635 0.242
54.9292 5.083 0.230
54.9497 5.646 0.243
54.9702 5.594 0.241
54.9906 5.969 0.249
55.0111 6.188 0.254
55.0316 6.688 0.264
55.0520 7.250 0.275
55.0725 8.458 0.297
55.0929 10.563 0.332
55.1134 13.656 0.377
55.1339 16.802 0.418
55.1543 17.198 0.423
55.1748 16.333 0.412
55.1953 14.323 0.386
55.2157 15.229 0.398
55.2362 15.229 0.398
55.2566 15.500 0.402
55.2771 14.698 0.391
55.2976 14.427 0.388
55.3180 13.802 0.379
55.3385 11.740 0.350
55.3590 11.021 0.339
55.3794 10.844 0.336
55.3999 10.604 0.332
55.4203 8.177 0.292
55.4408 8.021 0.289
55.4613 6.833 0.267
55.4817 6.198 0.254
55.5022 6.781 0.266
55.5227 6.094 0.252
55.5431 5.823 0.246
55.5636 5.906 0.248
55.5840 6.354 0.257
55.6045 5.490 0.239
55.6250 5.948 0.249
55.6454 5.354 0.236
55.6659 5.563 0.241
55.6864 5.635 0.242
55.7068 5.844 0.247
55.7273 6.458 0.259
55.7477 6.302 0.256
55.7682 6.365 0.257
55.7887 6.698 0.264
55.8091 7.031 0.271
55.8296 7.594 0.281
55.8501 6.948 0.269
55.8705 7.250 0.275
55.8910 7.146 0.273
55.9115 6.885 0.268
55.9319 6.573 0.262
55.9524 6.635 0.263
55.9728 6.698 0.264
55.9933 6.510 0.260
56.0138 7.250 0.275
56.0342 7.219 0.274
56.0547 8.031 0.289
56.0752 8.594 0.299
56.0956 9.323 0.312
56.1161 12.063 0.354
56.1365 13.177 0.370
56.1570 15.406 0.401
56.1775 14.385 0.387
56.1979 11.625 0.348
56.2184 9.792 0.319
56.2389 8.615 0.300
56.2593 8.385 0.296
56.2798 8.885 0.304
56.3002 9.667 0.317
56.3207 9.302 0.311
56.3412 8.781 0.302
56.3616 6.583 0.262
56.3821 6.500 0.260
56.4026 5.615 0.242
56.4230 4.990 0.228
56.4435 4.667 0.220
56.4639 4.563 0.218
56.4844 4.146 0.208
56.5049 4.615 0.219
56.5253 4.354 0.213
56.5458 4.229 0.210
56.5663 4.781 0.223
56.5867 3.938 0.203
56.6072 4.104 0.207
56.6276 4.313 0.212
56.6481 4.042 0.205
56.6686 4.198 0.209
56.6890 3.990 0.204
56.7095 3.604 0.194
56.7300 3.573 0.193
56.7504 3.938 0.203
56.7709 3.958 0.203
56.7914 4.208 0.209
56.8118 3.917 0.202
56.8323 3.917 0.202
56.8527 4.125 0.207
56.8732 4.198 0.209
56.8937 3.927 0.202
56.9141 3.833 0.200
56.9346 3.979 0.204
56.9551 3.833 0.200
56.9755 3.469 0.190
56.9960 4.052 0.205
57.0164 3.823 0.200
57.0369 3.750 0.198
57.0574 3.958 0.203
57.0778 3.615 0.194
57.0983 3.865 0.201
57.1188 3.906 0.202
57.1392 3.677 0.196
57.1597 3.958 0.203
57.1801 4.010 0.204
57.2006 4.146 0.208
57.2211 3.979 0.204
57.2415 3.875 0.201
57.2620 4.323 0.212
57.2825 4.146 0.208
57.3029 4.240 0.210
57.3234 3.802 0.199
57.3438 4.313 0.212
57.3643 4.240 0.210
57.3848 4.344 0.213
57.4052 4.344 0.213
57.4257 3.896 0.201
57.4462 4.229 0.210
57.4666 3.938 0.203
57.4871 4.042 0.205
57.5075 4.177 0.209
57.5280 4.708 0.221
57.5485 4.500 0.217
57.5689 4.958 0.227
57.5894 4.365 0.213
57.6099 4.781 0.223
57.6303 4.708 0.221
57.6508 5.042 0.229
57.6713 5.021 0.229
57.6917 5.531 0.240
57.7122 5.906 0.248
57.7326 6.469 0.260
57.7531 6.563 0.261
57.7736 7.125 0.272
57.7940 7.917 0.287
57.8145 8.167 0.292
57.8350 10.510 0.331
57.8554 11.313 0.343
57.8759 10.979 0.338
57.8963 10.563 0.332
57.9168 9.917 0.321
57.9373 8.927 0.305
57.9577 8.969 0.306
57.9782 8.573 0.299
57.9987 8.469 0.297
58.0191 9.490 0.314
58.0396 9.167 0.309
58.0600 8.198 0.292
58.0805 7.938 0.288
58.1010 6.573 0.262
58.1214 6.281 0.256
58.1419 5.885 0.248
58.1624 6.156 0.253
58.1828 6.031 0.251
58.2033 6.052 0.251
58.2237 5.844 0.247
58.2442 5.740 0.245
58.2647 5.354 0.236
58.2851 5.688 0.243
58.3056 5.854 0.247
58.3261 5.521 0.240
58.3465 5.958 0.249
58.3670 5.302 0.235
58.3874 5.479 0.239
58.4079 5.833 0.247
58.4284 5.396 0.237
58.4488 5.521 0.240
58.4693 6.271 0.256
58.4898 5.771 0.245
58.5102 6.344 0.257
58.5307 5.948 0.249
58.5512 6.302 0.256
58.5716 6.063 0.251
58.5921 6.229 0.255
58.6125 5.448 0.238
58.6330 5.875 0.247
58.6535 5.813 0.246
58.6739 5.656 0.243
58.6944 5.563 0.241
58.7149 5.885 0.248
58.7353 5.823 0.246
58.7558 5.313 0.235
58.7762 5.885 0.248
58.7967 6.125 0.253
58.8172 6.208 0.254
58.8376 6.042 0.251
58.8581 5.448 0.238
58.8786 5.104 0.231
58.8990 5.125 0.231
58.9195 5.823 0.246
58.9399 5.688 0.243
58.9604 5.625 0.242
58.9809 5.927 0.248
59.0013 6.135 0.253
59.0218 5.385 0.237
59.0423 6.042 0.251
59.0627 5.969 0.249
59.0832 6.594 0.262
59.1036 6.406 0.258
59.1241 6.646 0.263
59.1446 7.344 0.277
59.1650 7.281 0.275
59.1855 7.896 0.287
59.2060 6.427 0.259
59.2264 6.073 0.252
59.2469 6.073 0.252
59.2674 6.000 0.250
59.2878 5.750 0.245
59.3083 5.229 0.233
59.3287 6.073 0.252
59.3492 6.000 0.250
59.3697 5.135 0.231
59.3901 5.313 0.235
59.4106 4.938 0.227
59.4311 4.729 0.222
59.4515 4.604 0.219
59.4720 4.583 0.219
59.4924 4.406 0.214
59.5129 4.500 0.217
59.5334 4.104 0.207
59.5538 4.479 0.216
59.5743 4.031 0.205
59.5948 4.333 0.212
59.6152 4.344 0.213
59.6357 4.083 0.206
59.6561 3.927 0.202
59.6766 4.115 0.207
59.6971 4.375 0.213
59.7175 4.594 0.219
59.7380 4.385 0.214
59.7585 4.500 0.217
59.7789 5.177 0.232
59.7994 5.865 0.247
59.8198 6.333 0.257
59.8403 6.771 0.266
59.8608 6.802 0.266
59.8812 6.219 0.255
59.9017 5.938 0.249
59.9222 5.865 0.247
59.9426 5.042 0.229
59.9631 5.719 0.244
59.9835 5.781 0.245
60.0040 6.167 0.253
60.0245 5.823 0.246
60.0449 5.771 0.245
60.0654 5.792 0.246
60.0859 4.938 0.227
60.1063 4.844 0.225
60.1268 4.927 0.227
60.1473 4.729 0.222
60.1677 4.510 0.217
60.1882 4.646 0.220
60.2086 4.438 0.215
60.2291 4.708 0.221
60.2496 4.500 0.217
60.2700 4.156 0.208
60.2905 4.208 0.209
60.3110 4.323 0.212
60.3314 4.177 0.209
60.3519 4.031 0.205
60.3723 4.365 0.213
60.3928 4.563 0.218
60.4133 4.479 0.216
60.4337 4.188 0.209
60.4542 4.010 0.204
60.4747 4.344 0.213
60.4951 4.146 0.208
60.5156 4.115 0.207
60.5360 4.688 0.221
60.5565 4.563 0.218
60.5770 4.552 0.218
60.5974 4.729 0.222
60.6179 4.677 0.221
60.6384 5.302 0.235
60.6588 4.708 0.221
60.6793 4.510 0.217
60.6997 4.396 0.214
60.7202 4.448 0.215
60.7407 4.490 0.216
60.7611 4.000 0.204
60.7816 4.260 0.211
60.8021 3.979 0.204
60.8225 4.021 0.205
60.8430 4.042 0.205
60.8634 3.990 0.204
60.8839 3.813 0.199
60.9044 3.771 0.198
60.9248 3.656 0.195
60.9453 4.021 0.205
60.9658 3.792 0.199
60.9862 4.094 0.207
61.0067 3.792 0.199
61.0272 3.719 0.197
61.0476 3.927 0.202
61.0681 3.677 0.196
61.0885 3.583 0.193
61.1090 3.625 0.194
61.1295 3.417 0.189
61.1499 3.479 0.190
61.1704 3.938 0.203
61.1909 3.479 0.190
61.2113 3.719 0.197
61.2318 3.885 0.201
61.2522 3.938 0.203
61.2727 3.260 0.184
61.2932 3.865 0.201
61.3136 4.208 0.209
61.3341 3.833 0.200
61.3546 3.844 0.200
61.3750 3.958 0.203
61.3955 3.833 0.200
61.4159 4.271 0.211
61.4364 3.750 0.198
61.4569 3.719 0.197
61.4773 4.083 0.206
61.4978 3.875 0.201
61.5183 3.854 0.200
61.5387 4.146 0.208
61.5592 3.667 0.195
61.5796 3.844 0.200
61.6001 3.677 0.196
61.6206 3.646 0.195
61.6410 3.292 0.185
61.6615 3.896 0.201
61.6820 3.219 0.183
61.7024 3.698 0.196
61.7229 3.875 0.201
61.7433 3.719 0.197
61.7638 3.354 0.187
61.7843 3.490 0.191
61.8047 3.781 0.198
61.8252 3.333 0.186
61.8457 3.583 0.193
61.8661 3.698 0.196
61.8866 3.771 0.198
61.9071 3.552 0.192
61.9275 3.542 0.192
61.9480 3.740 0.197
61.9684 3.917 0.202
61.9889 3.771 0.198
62.0094 3.854 0.200
62.0298 4.365 0.213
62.0503 4.438 0.215
62.0708 4.542 0.218
62.0912 4.448 0.215
62.1117 4.698 0.221
62.1321 4.802 0.224
62.1526 4.438 0.215
62.1731 3.885 0.201
62.1935 4.115 0.207
62.2140 3.688 0.196
62.2345 3.792 0.199
62.2549 4.135 0.208
62.2754 4.302 0.212
62.2958 4.052 0.205
62.3163 3.802 0.199
62.3368 4.073 0.206
62.3572 3.625 0.194
62.3777 3.719 0.197
62.3982 4.042 0.205
62.4186 4.010 0.204
62.4391 3.490 0.191
62.4595 3.594 0.193
62.4800 3.771 0.198
62.5005 3.490 0.191
62.5209 3.542 0.192
62.5414 3.615 0.194
62.5619 3.688 0.196
62.5823 3.396 0.188
62.6028 3.865 0.201
62.6232 3.396 0.188
62.6437 3.583 0.193
62.6642 3.479 0.190
62.6846 3.417 0.189
62.7051 3.521 0.192
62.7256 3.510 0.191
62.7460 3.448 0.190
62.7665 3.625 0.194
62.7870 3.292 0.185
62.8074 3.417 0.189
62.8279 3.063 0.179
62.8483 3.083 0.179
62.8688 3.323 0.186
62.8893 3.365 0.187
62.9097 3.448 0.190
62.9302 3.281 0.185
62.9507 3.313 0.186
62.9711 3.479 0.190
62.9916 3.573 0.193
63.0120 3.146 0.181
63.0325 3.500 0.191
63.0530 3.250 0.184
63.0734 3.333 0.186
63.0939 3.479 0.190
63.1144 3.313 0.186
63.1348 3.781 0.198
63.1553 3.240 0.184
63.1757 3.344 0.187
63.1962 3.448 0.190
63.2167 3.729 0.197
63.2371 3.604 0.194
63.2576 3.406 0.188
63.2781 3.760 0.198
63.2985 3.302 0.185
63.3190 3.521 0.192
63.3394 3.073 0.179
63.3599 3.563 0.193
63.3804 3.521 0.192
63.4008 3.781 0.198
63.4213 3.438 0.189
63.4418 3.646 0.195
63.4622 3.469 0.190
63.4827 3.833 0.200
63.5032 4.042 0.205
63.5236 4.219 0.210
63.5441 3.979 0.204
63.5645 4.260 0.211
63.5850 4.552 0.218
63.6055 4.760 0.223
63.6259 4.896 0.226
63.6464 5.448 0.238
63.6669 6.031 0.251
63.6873 7.031 0.271
63.7078 7.240 0.275
63.7282 7.688 0.283
63.7487 7.802 0.285
63.7692 7.792 0.285
63.7896 7.260 0.275
63.8101 6.458 0.259
63.8306 6.708 0.264
63.8510 6.188 0.254
63.8715 6.240 0.255
63.8919 6.135 0.253
63.9124 6.531 0.261
63.9329 6.156 0.253
63.9533 6.188 0.254
63.9738 5.927 0.248
63.9943 5.281 0.235
64.0147 5.208 0.233
64.0352 4.417 0.214
64.0556 4.365 0.213
64.0761 4.063 0.206
64.0966 4.479 0.216
64.1170 4.281 0.211
64.1375 3.667 0.195
64.1580 3.938 0.203
64.1784 4.021 0.205
64.1989 3.906 0.202
64.2193 4.094 0.207
64.2398 3.396 0.188
64.2603 3.604 0.194
64.2807 3.927 0.202
64.3012 3.990 0.204
64.3217 4.135 0.208
64.3421 3.583 0.193
64.3626 4.042 0.205
64.3831 4.198 0.209
64.4035 3.990 0.204
64.4240 4.427 0.215
64.4444 4.104 0.207
64.4649 4.667 0.220
64.4854 4.333 0.212
64.5058 5.219 0.233
64.5263 5.635 0.242
64.5468 6.406 0.258
64.5672 7.302 0.276
64.5877 8.240 0.293
64.6081 9.052 0.307
64.6286 9.635 0.317
64.6491 8.510 0.298
64.6695 8.344 0.295
64.6900 7.813 0.285
64.7105 6.865 0.267
64.7309 8.135 0.291
64.7514 7.344 0.277
64.7718 7.781 0.285
64.7923 7.135 0.273
64.8128 6.979 0.270
64.8332 6.427 0.259
64.8537 5.313 0.235
64.8742 5.458 0.238
64.8946 5.250 0.234
64.9151 4.896 0.226
64.9355 4.427 0.215
64.9560 4.469 0.216
64.9765 4.052 0.205
64.9969 3.979 0.204
65.0174 3.677 0.196
65.0379 3.438 0.189
65.0583 3.625 0.194
65.0788 3.500 0.191
65.0992 3.448 0.190
65.1197 3.396 0.188
65.1402 3.260 0.184
65.1606 3.281 0.185
65.1811 3.229 0.183
65.2016 3.271 0.185
65.2220 3.281 0.185
65.2425 3.323 0.186
65.2630 3.427 0.189
65.2834 3.510 0.191
65.3039 3.521 0.192
65.3243 3.354 0.187
65.3448 3.760 0.198
65.3653 3.469 0.190
65.3857 3.531 0.192
65.4062 3.677 0.196
65.4267 3.625 0.194
65.4471 3.583 0.193
65.4676 4.042 0.205
65.4880 4.240 0.210
65.5085 4.531 0.217
65.5290 5.375 0.237
65.5494 6.167 0.253
65.5699 5.042 0.229
65.5904 5.385 0.237
65.6108 4.573 0.218
65.6313 4.448 0.215
65.6517 3.979 0.204
65.6722 4.094 0.207
65.6927 4.292 0.211
65.7131 4.646 0.220
65.7336 5.104 0.231
65.7541 4.844 0.225
65.7745 4.615 0.219
65.7950 4.354 0.213
65.8154 3.823 0.200
65.8359 3.708 0.197
65.8564 4.021 0.205
65.8768 3.635 0.195
65.8973 3.354 0.187
65.9178 4.146 0.208
65.9382 4.104 0.207
65.9587 4.042 0.205
65.9791 4.177 0.209
65.9996 4.323 0.212
66.0201 4.771 0.223
66.0405 5.010 0.228
66.0610 5.260 0.234
66.0815 5.979 0.250
66.1019 5.521 0.240
66.1224 5.698 0.244
66.1429 4.729 0.222
66.1633 4.708 0.221
66.1838 5.052 0.229
66.2042 5.146 0.232
66.2247 5.292 0.235
66.2452 4.635 0.220
66.2656 4.792 0.223
66.2861 5.146 0.232
66.3066 5.031 0.229
66.3270 4.521 0.217
66.3475 4.552 0.218
66.3679 4.406 0.214
66.3884 4.271 0.211
66.4089 4.448 0.215
66.4293 4.406 0.214
66.4498 4.115 0.207
66.4703 4.469 0.216
66.4907 4.406 0.214
66.5112 4.844 0.225
66.5316 4.729 0.222
66.5521 5.135 0.231
66.5726 4.667 0.220
66.5930 5.146 0.232
66.6135 5.031 0.229
66.6340 5.000 0.228
66.6544 5.063 0.230
66.6749 4.500 0.217
66.6953 4.448 0.215
66.7158 4.510 0.217
66.7363 4.469 0.216
66.7567 4.552 0.218
66.7772 4.427 0.215
66.7977 4.385 0.214
66.8181 4.583 0.219
66.8386 4.938 0.227
66.8590 4.323 0.212
66.8795 4.438 0.215
66.9000 4.542 0.218
66.9204 4.906 0.226
66.9409 4.750 0.222
66.9614 4.719 0.222
66.9818 5.021 0.229
67.0023 5.438 0.238
67.0228 5.979 0.250
67.0432 6.802 0.266
67.0637 7.510 0.280
67.0841 8.208 0.292
67.1046 9.323 0.312
67.1251 9.021 0.307
67.1455 8.906 0.305
67.1660 7.469 0.279
67.1865 7.323 0.276
67.2069 6.375 0.258
67.2274 6.396 0.258
67.2478 6.521 0.261
67.2683 6.906 0.268
67.2888 7.094 0.272
67.3092 6.698 0.264
67.3297 6.417 0.259
67.3502 5.823 0.246
67.3706 6.229 0.255
67.3911 5.135 0.231
67.4115 4.771 0.223
67.4320 4.635 0.220
67.4525 4.365 0.213
67.4729 4.354 0.213
67.4934 4.938 0.227
67.5139 4.625 0.219
67.5343 4.740 0.222
67.5548 4.406 0.214
67.5752 4.698 0.221
67.5957 4.969 0.228
67.6162 4.563 0.218
67.6366 4.615 0.219
67.6571 4.792 0.223
67.6776 4.427 0.215
67.6980 4.823 0.224
67.7185 4.948 0.227
67.7389 4.802 0.224
67.7594 5.167 0.232
67.7799 5.188 0.232
67.8003 4.990 0.228
67.8208 5.094 0.230
67.8413 4.500 0.217
67.8617 4.927 0.227
67.8822 4.521 0.217
67.9027 4.604 0.219
67.9231 4.990 0.228
67.9436 5.073 0.230
67.9640 5.281 0.235
67.9845 4.938 0.227
68.0050 4.979 0.228
68.0254 4.865 0.225
68.0459 5.156 0.232
68.0664 5.594 0.241
68.0868 4.792 0.223
68.1073 5.208 0.233
68.1277 4.979 0.228
68.1482 4.813 0.224
68.1687 5.250 0.234
68.1891 4.708 0.221
68.2096 4.938 0.227
68.2301 5.313 0.235
68.2505 4.781 0.223
68.2710 5.135 0.231
68.2914 5.823 0.246
68.3119 5.354 0.236
68.3324 6.052 0.251
68.3528 5.292 0.235
68.3733 4.469 0.216
68.3938 4.323 0.212
68.4142 4.167 0.208
68.4347 4.458 0.216
68.4551 4.458 0.216
68.4756 4.375 0.213
68.4961 4.260 0.211
68.5165 4.427 0.215
68.5370 4.354 0.213
68.5575 4.385 0.214
68.5779 4.385 0.214
68.5984 4.135 0.208
68.6189 3.792 0.199
68.6393 3.917 0.202
68.6598 3.865 0.201
68.6802 3.771 0.198
68.7007 3.906 0.202
68.7212 4.010 0.204
68.7416 4.406 0.214
68.7621 4.458 0.216
68.7826 4.438 0.215
68.8030 4.781 0.223
68.8235 5.250 0.234
68.8439 4.729 0.222
68.8644 5.000 0.228
68.8849 5.240 0.234
68.9053 5.635 0.242
68.9258 5.760 0.245
68.9463 5.615 0.242
68.9667 6.031 0.251
68.9872 5.260 0.234
69.0076 5.417 0.238
69.0281 4.771 0.223
69.0486 4.656 0.220
69.0690 4.729 0.222
69.0895 4.719 0.222
69.1100 4.688 0.221
69.1304 4.958 0.227
69.1509 4.760 0.223
69.1713 4.521 0.217
69.1918 4.667 0.220
69.2123 4.771 0.223
69.2327 4.365 0.213
69.2532 4.542 0.218
69.2737 4.219 0.210
69.2941 4.000 0.204
69.3146 3.750 0.198
69.3350 3.729 0.197
69.3555 3.875 0.201
69.3760 3.958 0.203
69.3964 4.021 0.205
69.4169 4.177 0.209
69.4374 3.948 0.203
69.4578 3.646 0.195
69.4783 3.750 0.198
69.4988 3.396 0.188
69.5192 3.490 0.191
69.5397 3.323 0.186
69.5601 3.427 0.189
69.5806 3.219 0.183
69.6011 3.167 0.182
69.6215 3.656 0.195
69.6420 3.594 0.193
69.6625 3.313 0.186
69.6829 3.146 0.181
69.7034 3.313 0.186
69.7238 3.458 0.190
69.7443 3.406 0.188
69.7648 3.594 0.193
69.7852 3.115 0.180
69.8057 3.427 0.189
69.8262 3.385 0.188
69.8466 3.771 0.198
69.8671 3.198 0.183
69.8875 3.458 0.190
69.9080 3.125 0.180
69.9285 3.385 0.188
69.9489 3.438 0.189
69.9694 3.479 0.190
69.9899 3.375 0.188
70.0103 3.510 0.191
70.0308 3.385 0.188
70.0512 3.198 0.183
70.0717 3.677 0.196
70.0922 3.302 0.185
70.1126 3.656 0.195
70.1331 3.375 0.188
70.1536 3.333 0.186
70.1740 3.365 0.187
70.1945 3.156 0.181
70.2149 3.271 0.185
70.2354 3.302 0.185
70.2559 3.146 0.181
70.2763 3.104 0.180
70.2968 3.083 0.179
70.3173 2.906 0.174
70.3377 3.635 0.195
70.3582 3.385 0.188
70.3787 3.094 0.180
70.3991 3.396 0.188
70.4196 3.271 0.185
70.4400 3.333 0.186
70.4605 3.479 0.190
70.4810 3.302 0.185
70.5014 3.396 0.188
70.5219 3.281 0.185
70.5424 3.292 0.185
70.5628 3.323 0.186
70.5833 3.615 0.194
70.6037 3.833 0.200
70.6242 3.521 0.192
70.6447 3.802 0.199
70.6651 3.865 0.201
70.6856 3.708 0.197
70.7061 3.760 0.198
70.7265 3.479 0.190
70.7470 3.813 0.199
70.7674 3.552 0.192
70.7879 3.469 0.190
70.8084 3.448 0.190
70.8288 3.531 0.192
70.8493 3.604 0.194
70.8698 3.219 0.183
70.8902 3.510 0.191
70.9107 3.583 0.193
70.9311 3.479 0.190
70.9516 3.271 0.185
70.9721 3.521 0.192
70.9925 3.469 0.190
71.0130 3.771 0.198
71.0335 3.771 0.198
71.0539 3.531 0.192
71.0744 3.635 0.195
71.0948 2.927 0.175
71.1153 3.344 0.187
71.1358 3.333 0.186
71.1562 3.625 0.194
71.1767 3.521 0.192
71.1972 2.917 0.174
71.2176 3.406 0.188
71.2381 3.385 0.188
71.2586 3.396 0.188
71.2790 3.292 0.185
71.2995 3.167 0.182
71.3199 3.146 0.181
71.3404 3.500 0.191
71.3609 3.042 0.178
71.3813 3.229 0.183
71.4018 3.063 0.179
71.4223 3.260 0.184
71.4427 3.135 0.181
71.4632 3.458 0.190
71.4836 3.240 0.184
71.5041 3.021 0.177
71.5246 3.219 0.183
71.5450 3.146 0.181
71.5655 3.667 0.195
71.5860 3.375 0.188
71.6064 3.458 0.190
71.6269 3.656 0.195
71.6473 3.604 0.194
71.6678 3.208 0.183
71.6883 3.344 0.187
71.7087 3.260 0.184
71.7292 3.406 0.188
71.7497 3.313 0.186
71.7701 3.292 0.185
71.7906 3.073 0.179
71.8110 3.271 0.185
71.8315 3.094 0.180
71.8520 3.177 0.182
71.8724 3.427 0.189
71.8929 3.240 0.184
71.9134 3.281 0.185
71.9338 3.063 0.179
71.9543 3.010 0.177
71.9747 3.323 0.186
71.9952 3.240 0.184
72.0157 3.104 0.180
72.0361 3.292 0.185
72.0566 3.458 0.190
72.0771 2.896 0.174
72.0975 2.854 0.172
72.1180 2.708 0.168
72.1385 2.865 0.173
72.1589 3.344 0.187
72.1794 3.031 0.178
72.1998 3.125 0.180
72.2203 2.771 0.170
72.2408 3.156 0.181
72.2612 3.000 0.177
72.2817 2.833 0.172
72.3022 2.594 0.164
72.3226 3.052 0.178
72.3431 2.708 0.168
72.3635 3.010 0.177
72.3840 3.104 0.180
72.4045 3.104 0.180
72.4249 2.875 0.173
72.4454 2.917 0.174
72.4659 2.792 0.171
72.4863 3.198 0.183
72.5068 2.938 0.175
72.5272 3.052 0.178
72.5477 2.760 0.170
72.5682 2.823 0.171
72.5886 2.844 0.172
72.6091 3.240 0.184
72.6296 2.750 0.169
72.6500 3.198 0.183
72.6705 3.229 0.183
72.6909 3.250 0.184
72.7114 3.104 0.180
72.7319 3.177 0.182
72.7523 3.240 0.184
72.7728 3.302 0.185
72.7933 3.313 0.186
72.8137 3.438 0.189
72.8342 3.365 0.187
72.8547 3.240 0.184
72.8751 3.125 0.180
72.8956 2.958 0.176
72.9160 2.771 0.170
72.9365 2.427 0.159
72.9570 3.104 0.180
72.9774 3.104 0.180
72.9979 2.948 0.175
73.0184 2.979 0.176
73.0388 2.906 0.174
73.0593 2.896 0.174
73.0797 2.844 0.172
73.1002 2.792 0.171
73.1207 2.688 0.167
73.1411 2.813 0.171
73.1616 2.260 0.153
73.1821 2.354 0.157
73.2025 2.698 0.168
73.2230 2.313 0.155
73.2434 2.177 0.151
73.2639 2.542 0.163
73.2844 2.542 0.163
73.3048 2.635 0.166
73.3253 2.469 0.160
73.3458 2.323 0.156
73.3662 2.583 0.164
73.3867 2.198 0.151
73.4071 2.542 0.163
73.4276 2.594 0.164
73.4481 2.563 0.163
73.4685 2.667 0.167
73.4890 2.656 0.166
73.5095 2.625 0.165
73.5299 2.396 0.158
73.5504 2.500 0.161
73.5708 2.281 0.154
73.5913 2.365 0.157
73.6118 2.479 0.161
73.6322 2.698 0.168
73.6527 2.646 0.166
73.6732 2.667 0.167
73.6936 2.563 0.163
73.7141 2.667 0.167
73.7346 2.125 0.149
73.7550 2.635 0.166
73.7755 2.500 0.161
73.7959 2.510 0.162
73.8164 2.396 0.158
73.8369 2.469 0.160
73.8573 2.365 0.157
73.8778 2.656 0.166
73.8983 2.844 0.172
73.9187 2.583 0.164
73.9392 2.635 0.166
73.9596 2.771 0.170
73.9801 2.458 0.160
74.0006 2.646 0.166
74.0210 2.490 0.161
74.0415 2.688 0.167
74.0620 2.698 0.168
74.0824 2.729 0.169
74.1029 2.740 0.169
74.1233 2.698 0.168
74.1438 2.458 0.160
74.1643 2.625 0.165
74.1847 2.677 0.167
74.2052 2.990 0.176
74.2257 2.615 0.165
74.2461 2.417 0.159
74.2666 2.813 0.171
74.2870 2.656 0.166
74.3075 2.615 0.165
74.3280 2.833 0.172
74.3484 2.865 0.173
74.3689 2.469 0.160
74.3894 2.573 0.164
74.4098 2.427 0.159
74.4303 2.646 0.166
74.4507 2.292 0.155
74.4712 2.490 0.161
74.4917 2.396 0.158
74.5121 2.167 0.150
74.5326 2.771 0.170
74.5531 2.458 0.160
74.5735 2.698 0.168
74.5940 2.875 0.173
74.6145 2.635 0.166
74.6349 2.688 0.167
74.6554 2.708 0.168
74.6758 2.521 0.162
74.6963 2.760 0.170
74.7168 2.292 0.155
74.7372 2.771 0.170
74.7577 2.594 0.164
74.7782 2.615 0.165
74.7986 2.719 0.168
74.8191 2.740 0.169
74.8395 2.396 0.158
74.8600 2.885 0.173
74.8805 2.583 0.164
74.9009 2.594 0.164
74.9214 2.469 0.160
74.9419 2.521 0.162
74.9623 2.500 0.161
74.9828 2.448 0.160
75.0032 2.792 0.171
75.0237 2.771 0.170
75.0442 2.573 0.164
75.0646 2.396 0.158
75.0851 2.563 0.163
75.1056 2.448 0.160
75.1260 2.490 0.161
75.1465 2.427 0.159
75.1669 2.563 0.163
75.1874 2.458 0.160
75.2079 2.740 0.169
75.2283 2.615 0.165
75.2488 2.500 0.161
75.2693 2.802 0.171
75.2897 2.656 0.166
75.3102 2.500 0.161
75.3306 2.510 0.162
75.3511 2.635 0.166
75.3716 2.917 0.174
75.3920 2.760 0.170
75.4125 2.563 0.163
75.4330 2.729 0.169
75.4534 2.677 0.167
75.4739 2.906 0.174
75.4944 2.656 0.166
75.5148 2.833 0.172
75.5353 3.031 0.178
75.5557 2.813 0.171
75.5762 3.021 0.177
75.5967 3.115 0.180
75.6171 3.302 0.185
75.6376 3.458 0.190
75.6581 3.521 0.192
75.6785 4.094 0.207
75.6990 4.375 0.213
75.7194 4.385 0.214
75.7399 4.625 0.219
75.7604 5.281 0.235
75.7808 5.583 0.241
75.8013 4.917 0.226
75.8218 4.417 0.214
75.8422 4.010 0.204
75.8627 3.885 0.201
75.8831 4.031 0.205
75.9036 3.969 0.203
75.9241 4.104 0.207
75.9445 4.031 0.205
75.9650 4.438 0.215
75.9855 4.198 0.209
76.0059 4.396 0.214
76.0264 3.792 0.199
76.0468 3.958 0.203
76.0673 3.677 0.196
76.0878 3.594 0.193
76.1082 3.281 0.185
76.1287 3.323 0.186
76.1492 3.167 0.182
76.1696 3.021 0.177
76.1901 3.135 0.181
76.2105 2.990 0.176
76.2310 3.156 0.181
76.2515 3.250 0.184
76.2719 2.833 0.172
76.2924 2.990 0.176
76.3129 3.052 0.178
76.3333 3.115 0.180
76.3538 3.167 0.182
76.3743 3.010 0.177
76.3947 3.198 0.183
76.4152 3.188 0.182
76.4356 3.042 0.178
76.4561 2.938 0.175
76.4766 2.906 0.174
76.4970 3.031 0.178
76.5175 2.677 0.167
76.5380 3.021 0.177
76.5584 3.104 0.180
76.5789 2.698 0.168
76.5993 2.677 0.167
76.6198 2.927 0.175
76.6403 2.573 0.164
76.6607 2.969 0.176
76.6812 2.833 0.172
76.7017 2.802 0.171
76.7221 2.583 0.164
76.7426 2.656 0.166
76.7630 2.406 0.158
76.7835 2.979 0.176
76.8040 2.500 0.161
76.8244 2.656 0.166
76.8449 2.760 0.170
76.8654 2.688 0.167
76.8858 2.615 0.165
76.9063 2.531 0.162
76.9267 2.635 0.166
76.9472 2.729 0.169
76.9677 2.698 0.168
76.9881 2.750 0.169
77.0086 2.604 0.165
77.0291 2.896 0.174
77.0495 2.750 0.169
77.0700 2.583 0.164
77.0905 2.656 0.166
77.1109 2.490 0.161
77.1314 2.740 0.169
77.1518 3.104 0.180
77.1723 2.521 0.162
77.1928 2.771 0.170
77.2132 3.281 0.185
77.2337 3.073 0.179
77.2542 3.083 0.179
77.2746 2.885 0.173
77.2951 2.719 0.168
77.3155 3.240 0.184
77.3360 3.104 0.180
77.3565 3.104 0.180
77.3769 3.375 0.188
77.3974 3.094 0.180
77.4179 3.031 0.178
77.4383 3.271 0.185
77.4588 3.521 0.192
77.4792 3.479 0.190
77.4997 3.625 0.194
77.5202 3.719 0.197
77.5406 3.604 0.194
77.5611 3.354 0.187
77.5816 3.167 0.182
77.6020 3.573 0.193
77.6225 3.510 0.191
77.6429 3.615 0.194
77.6634 3.031 0.178
77.6839 3.208 0.183
77.7043 3.542 0.192
77.7248 3.292 0.185
77.7453 3.406 0.188
77.7657 3.490 0.191
77.7862 3.604 0.194
77.8066 3.281 0.185
77.8271 3.135 0.181
77.8476 3.146 0.181
77.8680 3.250 0.184
77.8885 3.052 0.178
77.9090 3.115 0.180
77.9294 2.760 0.170
77.9499 2.917 0.174
77.9704 2.833 0.172
77.9908 2.771 0.170
78.0113 2.875 0.173
78.0317 3.031 0.178
78.0522 3.146 0.181
78.0727 2.813 0.171
78.0931 2.885 0.173
78.1136 2.750 0.169
78.1341 2.854 0.172
78.1545 2.792 0.171
78.1750 2.688 0.167
78.1954 2.813 0.171
78.2159 3.167 0.182
78.2364 2.813 0.171
78.2568 2.677 0.167
78.2773 3.042 0.178
78.2978 2.656 0.166
78.3182 3.094 0.180
78.3387 2.885 0.173
78.3591 3.000 0.177
78.3796 3.083 0.179
78.4001 3.177 0.182
78.4205 3.042 0.178
78.4410 3.135 0.181
78.4615 3.240 0.184
78.4819 3.323 0.186
78.5024 3.490 0.191
78.5228 3.146 0.181
78.5433 2.927 0.175
78.5638 3.281 0.185
78.5842 3.510 0.191
78.6047 3.010 0.177
78.6252 3.823 0.200
78.6456 3.208 0.183
78.6661 3.146 0.181
78.6865 3.219 0.183
78.7070 3.208 0.183
78.7275 3.396 0.188
78.7479 3.313 0.186
78.7684 3.760 0.198
78.7889 3.396 0.188
78.8093 3.063 0.179
78.8298 3.448 0.190
78.8503 3.635 0.195
78.8707 3.719 0.197
78.8912 3.708 0.197
78.9116 3.490 0.191
78.9321 3.833 0.200
78.9526 3.594 0.193
78.9730 3.740 0.197
78.9935 3.438 0.189
79.0140 3.323 0.186
79.0344 3.021 0.177
79.0549 3.292 0.185
79.0753 3.083 0.179
79.0958 3.135 0.181
79.1163 3.281 0.185
79.1367 2.927 0.175
79.1572 3.323 0.186
79.1777 3.135 0.181
79.1981 3.635 0.195
79.2186 2.990 0.176
79.2390 2.990 0.176
79.2595 2.969 0.176
79.2800 2.927 0.175
79.3004 3.333 0.186
79.3209 3.281 0.185
79.3414 3.094 0.180
79.3618 3.156 0.181
79.3823 2.854 0.172
79.4027 3.219 0.183
79.4232 3.354 0.187
79.4437 2.927 0.175
79.4641 3.104 0.180
79.4846 3.198 0.183
79.5051 2.740 0.169
79.5255 3.406 0.188
79.5460 3.365 0.187
79.5664 2.958 0.176
79.5869 3.000 0.177
79.6074 2.625 0.165
79.6278 3.365 0.187
79.6483 2.885 0.173
79.6688 2.875 0.173
79.6892 2.990 0.176
79.7097 2.938 0.175
79.7302 2.865 0.173
79.7506 3.052 0.178
79.7711 3.229 0.183
79.7915 2.948 0.175
79.8120 2.865 0.173
79.8325 2.750 0.169
79.8529 3.115 0.180
79.8734 2.979 0.176
79.8939 3.010 0.177
79.9143 2.781 0.170
79.9348 2.885 0.173
79.9552 2.740 0.169
79.9757 2.719 0.168
79.9962 2.677 0.167
