'Id: "" Comment: "" Operator: "Lab Manager" Anode: "Cu" Scantype: "Locked Coupled" TimePerStep: "96" X: "0" Y: "0" Z: "0" 
5.0000 24.250 0.503
5.0205 23.125 0.491
5.0409 24.083 0.501
5.0614 23.500 0.495
5.0819 22.594 0.485
5.1023 23.083 0.490
5.1228 23.677 0.497
5.1432 22.990 0.489
5.1637 22.427 0.483
5.1842 23.052 0.490
5.2046 23.198 0.492
5.2251 23.417 0.494
5.2456 23.563 0.495
5.2660 22.521 0.484
5.2865 22.229 0.481
5.3069 22.896 0.488
5.3274 23.135 0.491
5.3479 22.406 0.483
5.3683 23.052 0.490
5.3888 22.427 0.483
5.4093 22.656 0.486
5.4297 22.646 0.486
5.4502 21.479 0.473
5.4706 22.531 0.484
5.4911 22.740 0.487
5.5116 22.552 0.485
5.5320 22.240 0.481
5.5525 22.260 0.482
5.5730 22.531 0.484
5.5934 22.531 0.484
5.6139 22.510 0.484
5.6343 22.781 0.487
5.6548 21.958 0.478
5.6753 21.354 0.472
5.6957 21.271 0.471
5.7162 22.094 0.480
5.7367 21.115 0.469
5.7571 21.406 0.472
5.7776 21.688 0.475
5.7980 21.677 0.475
5.8185 22.229 0.481
5.8390 23.135 0.491
5.8594 23.104 0.491
5.8799 21.563 0.474
5.9004 21.635 0.475
5.9208 22.021 0.479
5.9413 23.010 0.490
5.9618 22.948 0.489
5.9822 23.729 0.497
6.0027 23.448 0.494
6.0231 22.969 0.489
6.0436 23.635 0.496
6.0641 23.479 0.495
6.0845 24.052 0.501
6.1050 24.792 0.508
6.1255 25.073 0.511
6.1459 23.990 0.500
6.1664 24.927 0.510
6.1868 24.208 0.502
6.2073 24.927 0.510
6.2278 24.917 0.509
6.2482 24.354 0.504
6.2687 24.313 0.503
6.2892 24.323 0.503
6.3096 24.094 0.501
6.3301 23.156 0.491
6.3505 23.396 0.494
6.3710 23.677 0.497
6.3915 24.042 0.500
6.4119 23.729 0.497
6.4324 22.938 0.489
6.4529 22.990 0.489
6.4733 21.594 0.474
6.4938 22.323 0.482
6.5142 22.781 0.487
6.5347 21.698 0.475
6.5552 20.656 0.464
6.5756 21.813 0.477
6.5961 21.146 0.469
6.6166 22.250 0.481
6.6370 21.406 0.472
6.6575 21.010 0.468
6.6779 20.844 0.466
6.6984 20.490 0.462
6.7189 20.698 0.464
6.7393 20.844 0.466
6.7598 20.542 0.463
6.7803 20.333 0.460
6.8007 20.354 0.460
6.8212 21.667 0.475
6.8417 21.292 0.471
6.8621 19.969 0.456
6.8826 21.073 0.469
6.9030 21.125 0.469
6.9235 20.927 0.467
6.9440 20.740 0.465
6.9644 21.271 0.471
6.9849 20.906 0.467
7.0054 21.521 0.473
7.0258 20.573 0.463
7.0463 20.500 0.462
7.0667 20.948 0.467
7.0872 20.198 0.459
7.1077 20.677 0.464
7.1281 20.833 0.466
7.1486 21.000 0.468
7.1691 20.365 0.461
7.1895 20.615 0.463
7.2100 20.792 0.465
7.2304 20.344 0.460
7.2509 21.000 0.468
7.2714 21.271 0.471
7.2918 20.615 0.463
7.3123 20.260 0.459
7.3328 20.885 0.466
7.3532 19.885 0.455
7.3737 20.510 0.462
7.3941 21.188 0.470
7.4146 20.427 0.461
7.4351 20.406 0.461
7.4555 21.094 0.469
7.4760 20.552 0.463
7.4965 20.792 0.465
7.5169 21.031 0.468
7.5374 19.469 0.450
7.5579 19.969 0.456
7.5783 19.990 0.456
7.5988 21.760 0.476
7.6192 21.135 0.469
7.6397 20.229 0.459
7.6602 21.010 0.468
7.6806 20.969 0.467
7.7011 20.208 0.459
7.7216 21.625 0.475
7.7420 20.719 0.465
7.7625 20.906 0.467
7.7829 20.333 0.460
7.8034 20.854 0.466
7.8239 21.531 0.474
7.8443 20.740 0.465
7.8648 21.792 0.476
7.8853 20.844 0.466
7.9057 20.563 0.463
7.9262 21.094 0.469
7.9466 21.490 0.473
7.9671 21.260 0.471
7.9876 21.885 0.477
8.0080 20.938 0.467
8.0285 21.406 0.472
8.0490 21.260 0.471
8.0694 21.146 0.469
8.0899 22.146 0.480
8.1103 22.125 0.480
8.1308 21.271 0.471
8.1513 21.875 0.477
8.1717 22.083 0.480
8.1922 22.313 0.482
8.2127 22.667 0.486
8.2331 21.906 0.478
8.2536 21.427 0.472
8.2740 21.094 0.469
8.2945 22.448 0.484
8.3150 21.292 0.471
8.3354 20.896 0.467
8.3559 21.021 0.468
8.3764 21.042 0.468
8.3968 21.063 0.468
8.4173 21.198 0.470
8.4378 20.844 0.466
8.4582 20.635 0.464
8.4787 21.438 0.473
8.4991 20.969 0.467
8.5196 21.219 0.470
8.5401 21.813 0.477
8.5605 20.917 0.467
8.5810 20.271 0.460
8.6015 21.000 0.468
8.6219 21.969 0.478
8.6424 21.021 0.468
8.6628 21.365 0.472
8.6833 21.552 0.474
8.7038 22.417 0.483
8.7242 23.729 0.497
8.7447 23.396 0.494
8.7652 23.792 0.498
8.7856 24.458 0.505
8.8061 24.667 0.507
8.8265 24.833 0.509
8.8470 26.365 0.524
8.8675 25.948 0.520
8.8879 28.906 0.549
8.9084 31.469 0.573
8.9289 34.948 0.603
8.9493 40.406 0.649
8.9698 50.323 0.724
8.9902 63.375 0.813
9.0107 84.771 0.940
9.0312 110.010 1.070
9.0516 129.417 1.161
9.0721 114.479 1.092
9.0926 80.031 0.913
9.1130 54.385 0.753
9.1335 39.271 0.640
9.1539 32.104 0.578
9.1744 29.979 0.559
9.1949 27.563 0.536
9.2153 26.542 0.526
9.2358 26.427 0.525
9.2563 26.677 0.527
9.2767 27.427 0.535
9.2972 27.427 0.535
9.3177 25.479 0.515
9.3381 26.875 0.529
9.3586 26.229 0.523
9.3790 26.510 0.525
9.3995 26.063 0.521
9.4200 25.948 0.520
9.4404 25.885 0.519
9.4609 25.927 0.520
9.4814 25.917 0.520
9.5018 26.531 0.526
9.5223 27.208 0.532
9.5427 26.990 0.530
9.5632 27.781 0.538
9.5837 27.365 0.534
9.6041 29.073 0.550
9.6246 29.865 0.558
9.6451 30.115 0.560
9.6655 30.448 0.563
9.6860 32.073 0.578
9.7064 33.240 0.588
9.7269 36.677 0.618
9.7474 37.271 0.623
9.7678 42.219 0.663
9.7883 46.927 0.699
9.8088 54.365 0.753
9.8292 64.219 0.818
9.8497 70.385 0.856
9.8701 73.625 0.876
9.8906 68.083 0.842
9.9111 59.844 0.790
9.9315 55.865 0.763
9.9520 50.750 0.727
9.9725 47.208 0.701
9.9929 42.708 0.667
10.0134 40.354 0.648
10.0338 39.396 0.641
10.0543 37.260 0.623
10.0748 36.719 0.618
10.0952 34.958 0.603
10.1157 34.729 0.601
10.1362 34.635 0.601
10.1566 33.927 0.594
10.1771 33.208 0.588
10.1976 33.240 0.588
10.2180 32.708 0.584
10.2385 31.656 0.574
10.2589 30.927 0.568
10.2794 31.458 0.572
10.2999 31.229 0.570
10.3203 30.990 0.568
10.3408 31.063 0.569
10.3613 30.396 0.563
10.3817 31.031 0.569
10.4022 31.094 0.569
10.4226 29.677 0.556
10.4431 29.385 0.553
10.4636 29.479 0.554
10.4840 29.531 0.555
10.5045 29.510 0.554
10.5250 30.417 0.563
10.5454 29.031 0.550
10.5659 29.750 0.557
10.5863 29.656 0.556
10.6068 29.219 0.552
10.6273 29.302 0.552
10.6477 30.042 0.559
10.6682 29.479 0.554
10.6887 30.542 0.564
10.7091 31.135 0.569
10.7296 30.375 0.563
10.7500 30.063 0.560
10.7705 31.323 0.571
10.7910 29.552 0.555
10.8114 29.552 0.555
10.8319 27.948 0.540
10.8524 28.750 0.547
10.8728 27.167 0.532
10.8933 26.781 0.528
10.9137 27.188 0.532
10.9342 26.396 0.524
10.9547 25.917 0.520
10.9751 25.896 0.519
10.9956 25.469 0.515
11.0161 25.292 0.513
11.0365 25.094 0.511
11.0570 26.281 0.523
11.0775 24.771 0.508
11.0979 24.802 0.508
11.1184 24.833 0.509
11.1388 25.490 0.515
11.1593 24.146 0.502
11.1798 24.250 0.503
11.2002 24.375 0.504
11.2207 23.594 0.496
11.2412 23.479 0.495
11.2616 22.594 0.485
11.2821 22.250 0.481
11.3025 22.260 0.482
11.3230 21.594 0.474
11.3435 22.010 0.479
11.3639 22.135 0.480
11.3844 21.844 0.477
11.4049 20.396 0.461
11.4253 21.083 0.469
11.4458 20.260 0.459
11.4662 20.938 0.467
11.4867 19.906 0.455
11.5072 20.344 0.460
11.5276 19.906 0.455
11.5481 19.177 0.447
11.5686 18.552 0.440
11.5890 19.760 0.454
11.6095 18.771 0.442
11.6299 19.104 0.446
11.6504 18.677 0.441
11.6709 17.865 0.431
11.6913 17.292 0.424
11.7118 18.229 0.436
11.7323 16.677 0.417
11.7527 18.031 0.433
11.7732 17.781 0.430
11.7937 17.240 0.424
11.8141 16.990 0.421
11.8346 16.031 0.409
11.8550 16.781 0.418
11.8755 17.042 0.421
11.8960 16.240 0.411
11.9164 16.375 0.413
11.9369 16.333 0.412
11.9574 16.573 0.415
11.9778 17.438 0.426
11.9983 16.302 0.412
12.0187 16.104 0.410
12.0392 16.073 0.409
12.0597 16.771 0.418
12.0801 17.542 0.427
12.1006 16.865 0.419
12.1211 17.573 0.428
12.1415 17.448 0.426
12.1620 17.875 0.432
12.1824 19.365 0.449
12.2029 18.854 0.443
12.2234 19.813 0.454
12.2438 18.948 0.444
12.2643 20.052 0.457
12.2848 19.698 0.453
12.3052 19.396 0.449
12.3257 19.344 0.449
12.3461 18.188 0.435
12.3666 19.042 0.445
12.3871 18.510 0.439
12.4075 18.313 0.437
12.4280 17.323 0.425
12.4485 16.490 0.414
12.4689 15.813 0.406
12.4894 15.521 0.402
12.5098 15.938 0.407
12.5303 15.240 0.398
12.5508 14.708 0.391
12.5712 15.281 0.399
12.5917 15.240 0.398
12.6122 14.760 0.392
12.6326 14.323 0.386
12.6531 14.250 0.385
12.6736 14.521 0.389
12.6940 14.490 0.389
12.7145 14.479 0.388
12.7349 14.240 0.385
12.7554 13.938 0.381
12.7759 13.625 0.377
12.7963 13.563 0.376
12.8168 13.750 0.378
12.8373 13.813 0.379
12.8577 13.385 0.373
12.8782 13.646 0.377
12.8986 12.583 0.362
12.9191 13.281 0.372
12.9396 12.635 0.363
12.9600 13.510 0.375
12.9805 12.802 0.365
13.0010 13.125 0.370
13.0214 13.292 0.372
13.0419 12.542 0.361
13.0623 12.948 0.367
13.0828 12.896 0.367
13.1033 12.948 0.367
13.1237 12.250 0.357
13.1442 12.125 0.355
13.1647 12.010 0.354
13.1851 12.500 0.361
13.2056 12.146 0.356
13.2260 12.302 0.358
13.2465 12.010 0.354
13.2670 12.188 0.356
13.2874 11.854 0.351
13.3079 11.635 0.348
13.3284 12.594 0.362
13.3488 12.271 0.358
13.3693 11.760 0.350
13.3897 11.865 0.352
13.4102 11.875 0.352
13.4307 12.167 0.356
13.4511 11.000 0.339
13.4716 11.708 0.349
13.4921 11.219 0.342
13.5125 11.521 0.346
13.5330 11.042 0.339
13.5535 11.979 0.353
13.5739 11.333 0.344
13.5944 11.115 0.340
13.6148 11.510 0.346
13.6353 11.802 0.351
13.6558 11.500 0.346
13.6762 11.438 0.345
13.6967 11.563 0.347
13.7172 11.656 0.348
13.7376 11.260 0.342
13.7581 11.698 0.349
13.7785 11.885 0.352
13.7990 11.583 0.347
13.8195 10.594 0.332
13.8399 10.906 0.337
13.8604 11.563 0.347
13.8809 11.854 0.351
13.9013 10.885 0.337
13.9218 11.125 0.340
13.9422 11.292 0.343
13.9627 11.240 0.342
13.9832 10.979 0.338
14.0036 10.427 0.330
14.0241 11.344 0.344
14.0446 10.646 0.333
14.0650 11.052 0.339
14.0855 10.896 0.337
14.1059 10.792 0.335
14.1264 11.052 0.339
14.1469 10.729 0.334
14.1673 10.833 0.336
14.1878 10.833 0.336
14.2083 10.469 0.330
14.2287 11.094 0.340
14.2492 11.583 0.347
14.2696 11.021 0.339
14.2901 10.781 0.335
14.3106 11.250 0.342
14.3310 10.719 0.334
14.3515 10.833 0.336
14.3720 10.542 0.331
14.3924 10.302 0.328
14.4129 10.906 0.337
14.4334 10.250 0.327
14.4538 9.927 0.322
14.4743 10.604 0.332
14.4947 10.521 0.331
14.5152 10.885 0.337
14.5357 10.490 0.331
14.5561 9.927 0.322
14.5766 10.448 0.330
14.5971 10.615 0.333
14.6175 10.552 0.332
14.6380 10.969 0.338
14.6584 10.156 0.325
14.6789 10.490 0.331
14.6994 10.677 0.333
14.7198 10.104 0.324
14.7403 10.469 0.330
14.7608 10.156 0.325
14.7812 10.031 0.323
14.8017 10.594 0.332
14.8221 10.490 0.331
14.8426 10.198 0.326
14.8631 10.583 0.332
14.8835 10.479 0.330
14.9040 10.167 0.325
14.9245 10.531 0.331
14.9449 9.458 0.314
14.9654 10.521 0.331
14.9858 10.354 0.328
15.0063 10.219 0.326
15.0268 10.271 0.327
15.0472 10.406 0.329
15.0677 10.365 0.329
15.0882 10.010 0.323
15.1086 10.563 0.332
15.1291 10.719 0.334
15.1495 10.635 0.333
15.1700 10.490 0.331
15.1905 10.771 0.335
15.2109 10.271 0.327
15.2314 11.552 0.347
15.2519 11.354 0.344
15.2723 12.021 0.354
15.2928 12.688 0.364
15.3133 12.750 0.364
15.3337 12.792 0.365
15.3542 12.344 0.359
15.3746 12.604 0.362
15.3951 11.760 0.350
15.4156 11.594 0.348
15.4360 11.563 0.347
15.4565 11.531 0.347
15.4770 11.563 0.347
15.4974 11.490 0.346
15.5179 12.208 0.357
15.5383 12.073 0.355
15.5588 12.354 0.359
15.5793 13.083 0.369
15.5997 13.823 0.379
15.6202 14.958 0.395
15.6407 19.010 0.445
15.6611 25.083 0.511
15.6816 35.354 0.607
15.7020 48.052 0.707
15.7225 62.208 0.805
15.7430 59.854 0.790
15.7634 48.802 0.713
15.7839 35.583 0.609
15.8044 23.094 0.490
15.8248 18.292 0.437
15.8453 15.042 0.396
15.8657 13.271 0.372
15.8862 13.167 0.370
15.9067 11.969 0.353
15.9271 11.708 0.349
15.9476 11.438 0.345
15.9681 10.927 0.337
15.9885 11.490 0.346
16.0090 10.479 0.330
16.0295 10.698 0.334
16.0499 11.042 0.339
16.0704 10.708 0.334
16.0908 9.865 0.321
16.1113 11.333 0.344
16.1318 10.188 0.326
16.1522 10.792 0.335
16.1727 10.396 0.329
16.1932 10.073 0.324
16.2136 10.354 0.328
16.2341 10.177 0.326
16.2545 10.229 0.326
16.2750 10.656 0.333
16.2955 10.156 0.325
16.3159 10.813 0.336
16.3364 10.344 0.328
16.3569 10.333 0.328
16.3773 10.865 0.336
16.3978 10.729 0.334
16.4182 10.823 0.336
16.4387 10.729 0.334
16.4592 10.948 0.338
16.4796 10.469 0.330
16.5001 11.260 0.342
16.5206 10.698 0.334
16.5410 10.646 0.333
16.5615 10.781 0.335
16.5819 10.333 0.328
16.6024 10.396 0.329
16.6229 10.667 0.333
16.6433 9.969 0.322
16.6638 10.500 0.331
16.6843 10.781 0.335
16.7047 10.542 0.331
16.7252 10.708 0.334
16.7456 10.250 0.327
16.7661 10.500 0.331
16.7866 10.906 0.337
16.8070 10.969 0.338
16.8275 10.635 0.333
16.8480 11.365 0.344
16.8684 10.156 0.325
16.8889 11.510 0.346
16.9094 11.427 0.345
16.9298 11.240 0.342
16.9503 10.844 0.336
16.9707 11.781 0.350
16.9912 10.979 0.338
17.0117 11.042 0.339
17.0321 11.083 0.340
17.0526 10.875 0.337
17.0731 11.490 0.346
17.0935 11.969 0.353
17.1140 11.698 0.349
17.1344 11.469 0.346
17.1549 12.021 0.354
17.1754 11.500 0.346
17.1958 11.563 0.347
17.2163 12.135 0.356
17.2368 12.198 0.356
17.2572 11.635 0.348
17.2777 11.750 0.350
17.2981 12.604 0.362
17.3186 11.990 0.353
17.3391 12.198 0.356
17.3595 12.896 0.367
17.3800 12.542 0.361
17.4005 13.844 0.380
17.4209 13.000 0.368
17.4414 12.583 0.362
17.4618 13.844 0.380
17.4823 13.229 0.371
17.5028 13.177 0.370
17.5232 13.563 0.376
17.5437 13.500 0.375
17.5642 14.979 0.395
17.5846 14.208 0.385
17.6051 14.021 0.382
17.6255 14.323 0.386
17.6460 15.240 0.398
17.6665 15.938 0.407
17.6869 17.667 0.429
17.7074 18.885 0.444
17.7279 21.354 0.472
17.7483 24.708 0.507
17.7688 26.302 0.523
17.7893 25.635 0.517
17.8097 25.094 0.511
17.8302 22.958 0.489
17.8506 20.104 0.458
17.8711 19.583 0.452
17.8916 17.552 0.428
17.9120 17.771 0.430
17.9325 17.771 0.430
17.9530 17.385 0.426
17.9734 18.135 0.435
17.9939 18.500 0.439
18.0143 18.646 0.441
18.0348 18.427 0.438
18.0553 18.698 0.441
18.0757 18.177 0.435
18.0962 17.823 0.431
18.1167 17.448 0.426
18.1371 18.667 0.441
18.1576 19.563 0.451
18.1780 20.271 0.460
18.1985 20.531 0.462
18.2190 20.677 0.464
18.2394 20.719 0.465
18.2599 18.917 0.444
18.2804 19.000 0.445
18.3008 18.750 0.442
18.3213 18.688 0.441
18.3417 18.750 0.442
18.3622 18.646 0.441
18.3827 18.688 0.441
18.4031 18.854 0.443
18.4236 18.500 0.439
18.4441 18.490 0.439
18.4645 19.000 0.445
18.4850 17.969 0.433
18.5054 18.750 0.442
18.5259 18.688 0.441
18.5464 18.885 0.444
18.5668 18.396 0.438
18.5873 19.083 0.446
18.6078 19.135 0.446
18.6282 19.875 0.455
18.6487 19.146 0.447
18.6692 19.781 0.454
18.6896 19.208 0.447
18.7101 19.573 0.452
18.7305 20.094 0.458
18.7510 21.354 0.472
18.7715 23.052 0.490
18.7919 27.510 0.535
18.8124 34.333 0.598
18.8329 39.073 0.638
18.8533 38.094 0.630
18.8738 33.875 0.594
18.8942 28.021 0.540
18.9147 23.115 0.491
18.9352 20.500 0.462
18.9556 19.521 0.451
18.9761 17.781 0.430
18.9966 17.438 0.426
19.0170 15.656 0.404
19.0375 16.052 0.409
19.0579 15.948 0.408
19.0784 15.031 0.396
19.0989 15.760 0.405
19.1193 14.542 0.389
19.1398 13.875 0.380
19.1603 13.854 0.380
19.1807 13.969 0.381
19.2012 13.521 0.375
19.2216 13.906 0.381
19.2421 13.323 0.373
19.2626 13.656 0.377
19.2830 13.500 0.375
19.3035 13.333 0.373
19.3240 13.448 0.374
19.3444 13.292 0.372
19.3649 13.521 0.375
19.3853 12.583 0.362
19.4058 13.083 0.369
19.4263 12.979 0.368
19.4467 13.000 0.368
19.4672 13.813 0.379
19.4877 13.115 0.370
19.5081 13.042 0.369
19.5286 13.667 0.377
19.5491 13.583 0.376
19.5695 13.990 0.382
19.5900 13.813 0.379
19.6104 14.240 0.385
19.6309 13.948 0.381
19.6514 13.875 0.380
19.6718 14.635 0.390
19.6923 15.438 0.401
19.7128 16.885 0.419
19.7332 16.698 0.417
19.7537 19.156 0.447
19.7741 21.083 0.469
19.7946 22.438 0.483
19.8151 21.906 0.478
19.8355 21.813 0.477
19.8560 20.417 0.461
19.8765 19.115 0.446
19.8969 16.365 0.413
19.9174 17.146 0.423
19.9378 17.271 0.424
19.9583 15.708 0.405
19.9788 16.313 0.412
19.9992 16.708 0.417
20.0197 15.781 0.405
20.0402 15.646 0.404
20.0606 16.635 0.416
20.0811 16.813 0.418
20.1015 17.406 0.426
20.1220 17.792 0.430
20.1425 17.167 0.423
20.1629 17.885 0.432
20.1834 18.323 0.437
20.2039 19.531 0.451
20.2243 19.667 0.453
20.2448 19.958 0.456
20.2653 19.385 0.449
20.2857 20.063 0.457
20.3062 20.167 0.458
20.3266 21.354 0.472
20.3471 21.365 0.472
20.3676 20.823 0.466
20.3880 20.531 0.462
20.4085 20.698 0.464
20.4290 21.219 0.470
20.4494 19.729 0.453
20.4699 19.896 0.455
20.4903 19.854 0.455
20.5108 19.635 0.452
20.5313 18.188 0.435
20.5517 18.552 0.440
20.5722 17.521 0.427
20.5927 17.396 0.426
20.6131 16.417 0.414
20.6336 16.354 0.413
20.6540 15.646 0.404
20.6745 16.052 0.409
20.6950 14.469 0.388
20.7154 14.281 0.386
20.7359 13.510 0.375
20.7564 13.906 0.381
20.7768 12.938 0.367
20.7973 13.000 0.368
20.8177 12.948 0.367
20.8382 12.583 0.362
20.8587 12.208 0.357
20.8791 12.115 0.355
20.8996 12.281 0.358
20.9201 12.625 0.363
20.9405 13.052 0.369
20.9610 12.177 0.356
20.9814 11.813 0.351
21.0019 11.010 0.339
21.0224 11.271 0.343
21.0428 11.250 0.342
21.0633 11.208 0.342
21.0838 11.698 0.349
21.1042 11.438 0.345
21.1247 11.531 0.347
21.1452 11.594 0.348
21.1656 11.469 0.346
21.1861 11.198 0.342
21.2065 11.333 0.344
21.2270 11.260 0.342
21.2475 10.813 0.336
21.2679 11.188 0.341
21.2884 10.802 0.335
21.3089 10.969 0.338
21.3293 11.323 0.343
21.3498 11.552 0.347
21.3702 10.844 0.336
21.3907 11.302 0.343
21.4112 10.948 0.338
21.4316 10.438 0.330
21.4521 10.667 0.333
21.4726 10.854 0.336
21.4930 10.500 0.331
21.5135 10.948 0.338
21.5339 10.208 0.326
21.5544 11.063 0.339
21.5749 10.792 0.335
21.5953 11.010 0.339
21.6158 10.990 0.338
21.6363 10.750 0.335
21.6567 9.917 0.321
21.6772 10.729 0.334
21.6976 11.083 0.340
21.7181 10.969 0.338
21.7386 10.896 0.337
21.7590 11.271 0.343
21.7795 10.313 0.328
21.8000 11.219 0.342
21.8204 10.875 0.337
21.8409 10.708 0.334
21.8613 10.417 0.329
21.8818 11.135 0.341
21.9023 10.906 0.337
21.9227 11.115 0.340
21.9432 11.156 0.341
21.9637 11.938 0.353
21.9841 12.198 0.356
22.0046 13.469 0.375
22.0251 13.813 0.379
22.0455 14.385 0.387
22.0660 14.417 0.388
22.0864 13.625 0.377
22.1069 14.771 0.392
22.1274 15.552 0.402
22.1478 15.323 0.400
22.1683 15.615 0.403
22.1888 15.219 0.398
22.2092 14.094 0.383
22.2297 14.313 0.386
22.2501 13.146 0.370
22.2706 12.885 0.366
22.2911 12.198 0.356
22.3115 12.333 0.358
22.3320 12.302 0.358
22.3525 11.906 0.352
22.3729 11.448 0.345
22.3934 11.344 0.344
22.4138 11.292 0.343
22.4343 11.594 0.348
22.4548 11.448 0.345
22.4752 10.646 0.333
22.4957 12.115 0.355
22.5162 11.479 0.346
22.5366 11.198 0.342
22.5571 11.406 0.345
22.5775 11.615 0.348
22.5980 12.052 0.354
22.6185 11.875 0.352
22.6389 12.177 0.356
22.6594 11.656 0.348
22.6799 11.698 0.349
22.7003 12.010 0.354
22.7208 12.656 0.363
22.7412 13.833 0.380
22.7617 15.260 0.399
22.7822 16.458 0.414
22.8026 20.385 0.461
22.8231 27.813 0.538
22.8436 37.510 0.625
22.8640 43.406 0.672
22.8845 38.885 0.636
22.9050 34.010 0.595
22.9254 30.385 0.563
22.9459 24.865 0.509
22.9663 19.635 0.452
22.9868 16.719 0.417
23.0073 14.990 0.395
23.0277 13.802 0.379
23.0482 13.583 0.376
23.0687 12.333 0.358
23.0891 12.271 0.358
23.1096 11.948 0.353
23.1300 11.708 0.349
23.1505 10.531 0.331
23.1710 10.948 0.338
23.1914 10.396 0.329
23.2119 10.000 0.323
23.2324 10.302 0.328
23.2528 10.281 0.327
23.2733 10.354 0.328
23.2937 10.385 0.329
23.3142 10.188 0.326
23.3347 9.771 0.319
23.3551 10.281 0.327
23.3756 10.521 0.331
23.3961 9.698 0.318
23.4165 9.979 0.322
23.4370 9.927 0.322
23.4574 10.042 0.323
23.4779 10.438 0.330
23.4984 9.656 0.317
23.5188 10.917 0.337
23.5393 10.552 0.332
23.5598 10.906 0.337
23.5802 12.073 0.355
23.6007 14.042 0.382
23.6211 15.229 0.398
23.6416 16.615 0.416
23.6621 15.292 0.399
23.6825 14.677 0.391
23.7030 14.219 0.385
23.7235 11.885 0.352
23.7439 11.313 0.343
23.7644 10.802 0.335
23.7849 9.823 0.320
23.8053 9.198 0.310
23.8258 9.646 0.317
23.8462 9.240 0.310
23.8667 9.156 0.309
23.8872 9.135 0.308
23.9076 9.438 0.314
23.9281 9.073 0.307
23.9486 9.073 0.307
23.9690 9.219 0.310
23.9895 8.823 0.303
24.0099 9.375 0.313
24.0304 9.052 0.307
24.0509 9.323 0.312
24.0713 9.583 0.316
24.0918 9.615 0.316
24.1123 9.969 0.322
24.1327 10.198 0.326
24.1532 10.969 0.338
24.1736 10.021 0.323
24.1941 10.146 0.325
24.2146 9.990 0.323
24.2350 9.635 0.317
24.2555 9.510 0.315
24.2760 9.177 0.309
24.2964 9.625 0.317
24.3169 8.740 0.302
24.3373 9.156 0.309
24.3578 9.167 0.309
24.3783 9.198 0.310
24.3987 9.031 0.307
24.4192 9.115 0.308
24.4397 8.875 0.304
24.4601 8.844 0.304
24.4806 9.396 0.313
24.5011 9.094 0.308
24.5215 9.667 0.317
24.5420 9.667 0.317
24.5624 10.365 0.329
24.5829 10.698 0.334
24.6034 11.677 0.349
24.6238 13.427 0.374
24.6443 15.042 0.396
24.6648 14.063 0.383
24.6852 13.292 0.372
24.7057 12.646 0.363
24.7261 11.896 0.352
24.7466 10.281 0.327
24.7671 9.865 0.321
24.7875 9.385 0.313
24.8080 9.458 0.314
24.8285 9.594 0.316
24.8489 9.667 0.317
24.8694 9.500 0.315
24.8898 8.792 0.303
24.9103 8.833 0.303
24.9308 8.302 0.294
24.9512 9.042 0.307
24.9717 8.604 0.299
24.9922 8.052 0.290
25.0126 8.604 0.299
25.0331 8.698 0.301
25.0535 8.833 0.303
25.0740 9.042 0.307
25.0945 8.438 0.296
25.1149 8.427 0.296
25.1354 9.573 0.316
25.1559 8.656 0.300
25.1763 9.083 0.308
25.1968 8.427 0.296
25.2172 8.396 0.296
25.2377 9.021 0.307
25.2582 8.781 0.302
25.2786 8.354 0.295
25.2991 8.021 0.289
25.3196 8.948 0.305
25.3400 8.938 0.305
25.3605 8.167 0.292
25.3810 9.250 0.310
25.4014 8.625 0.300
25.4219 9.896 0.321
25.4423 10.073 0.324
25.4628 11.073 0.340
25.4833 13.385 0.373
25.5037 16.698 0.417
25.5242 21.656 0.475
25.5447 23.083 0.490
25.5651 21.240 0.470
25.5856 19.542 0.451
25.6060 17.771 0.430
25.6265 15.510 0.402
25.6470 12.969 0.368
25.6674 11.531 0.347
25.6879 10.563 0.332
25.7084 9.979 0.322
25.7288 9.344 0.312
25.7493 9.563 0.316
25.7697 8.854 0.304
25.7902 9.396 0.313
25.8107 9.490 0.314
25.8311 8.281 0.294
25.8516 8.229 0.293
25.8721 8.052 0.290
25.8925 8.271 0.294
25.9130 8.521 0.298
25.9334 8.646 0.300
25.9539 7.781 0.285
25.9744 7.823 0.285
25.9948 7.990 0.288
26.0153 7.677 0.283
26.0358 8.156 0.291
26.0562 7.823 0.285
26.0767 7.958 0.288
26.0971 7.615 0.282
26.1176 8.031 0.289
26.1381 7.656 0.282
26.1585 8.167 0.292
26.1790 8.521 0.298
26.1995 7.906 0.287
26.2199 8.083 0.290
26.2404 7.969 0.288
26.2609 8.313 0.294
26.2813 7.969 0.288
26.3018 8.000 0.289
26.3222 7.865 0.286
26.3427 7.833 0.286
26.3632 8.552 0.298
26.3836 7.844 0.286
26.4041 7.885 0.287
26.4246 8.083 0.290
26.4450 7.854 0.286
26.4655 8.281 0.294
26.4859 8.177 0.292
26.5064 7.792 0.285
26.5269 7.885 0.287
26.5473 8.240 0.293
26.5678 7.760 0.284
26.5883 8.052 0.290
26.6087 7.927 0.287
26.6292 8.177 0.292
26.6496 7.948 0.288
26.6701 7.750 0.284
26.6906 7.729 0.284
26.7110 8.313 0.294
26.7315 8.104 0.291
26.7520 8.625 0.300
26.7724 8.021 0.289
26.7929 7.865 0.286
26.8133 8.344 0.295
26.8338 7.885 0.287
26.8543 8.448 0.297
26.8747 7.667 0.283
26.8952 8.406 0.296
26.9157 8.438 0.296
26.9361 8.813 0.303
26.9566 8.010 0.289
26.9770 8.229 0.293
26.9975 8.313 0.294
27.0180 8.708 0.301
27.0384 8.688 0.301
27.0589 8.490 0.297
27.0794 8.875 0.304
27.0998 8.990 0.306
27.1203 8.781 0.302
27.1408 9.344 0.312
27.1612 10.240 0.327
27.1817 10.865 0.336
27.2021 10.958 0.338
27.2226 11.188 0.341
27.2431 10.260 0.327
27.2635 10.302 0.328
27.2840 10.125 0.325
27.3045 10.031 0.323
27.3249 10.177 0.326
27.3454 10.958 0.338
27.3658 11.625 0.348
27.3863 12.906 0.367
27.4068 14.969 0.395
27.4272 17.365 0.425
27.4477 16.823 0.419
27.4682 15.781 0.405
27.4886 14.219 0.385
27.5091 13.958 0.381
27.5295 11.531 0.347
27.5500 10.323 0.328
27.5705 9.563 0.316
27.5909 8.708 0.301
27.6114 9.125 0.308
27.6319 8.865 0.304
27.6523 9.010 0.306
27.6728 8.115 0.291
27.6932 8.385 0.296
27.7137 8.740 0.302
27.7342 8.313 0.294
27.7546 8.146 0.291
27.7751 8.281 0.294
27.7956 8.313 0.294
27.8160 7.938 0.288
27.8365 7.542 0.280
27.8569 7.542 0.280
27.8774 7.604 0.281
27.8979 7.094 0.272
27.9183 7.396 0.278
27.9388 7.708 0.283
27.9593 7.844 0.286
27.9797 8.167 0.292
28.0002 7.792 0.285
28.0207 7.385 0.277
28.0411 7.573 0.281
28.0616 7.302 0.276
28.0820 7.229 0.274
28.1025 7.385 0.277
28.1230 7.948 0.288
28.1434 7.635 0.282
28.1639 7.500 0.280
28.1844 7.490 0.279
28.2048 7.906 0.287
28.2253 7.313 0.276
28.2457 7.875 0.286
28.2662 7.125 0.272
28.2867 7.323 0.276
28.3071 7.146 0.273
28.3276 7.406 0.278
28.3481 7.490 0.279
28.3685 7.073 0.271
28.3890 7.177 0.273
28.4094 7.229 0.274
28.4299 7.448 0.279
28.4504 7.438 0.278
28.4708 6.917 0.268
28.4913 7.521 0.280
28.5118 7.958 0.288
28.5322 8.031 0.289
28.5527 7.698 0.283
28.5731 7.698 0.283
28.5936 7.229 0.274
28.6141 7.021 0.270
28.6345 7.490 0.279
28.6550 7.240 0.275
28.6755 7.667 0.283
28.6959 7.823 0.285
28.7164 7.646 0.282
28.7368 7.479 0.279
28.7573 7.938 0.288
28.7778 7.771 0.285
28.7982 7.292 0.276
28.8187 7.563 0.281
28.8392 7.417 0.278
28.8596 7.438 0.278
28.8801 7.500 0.280
28.9006 7.667 0.283
28.9210 7.281 0.275
28.9415 7.073 0.271
28.9619 7.688 0.283
28.9824 7.240 0.275
29.0029 7.260 0.275
29.0233 7.479 0.279
29.0438 7.740 0.284
29.0643 7.292 0.276
29.0847 7.833 0.286
29.1052 7.250 0.275
29.1256 7.677 0.283
29.1461 7.302 0.276
29.1666 8.760 0.302
29.1870 8.063 0.290
29.2075 8.302 0.294
29.2280 8.438 0.296
29.2484 8.896 0.304
29.2689 9.042 0.307
29.2893 10.208 0.326
29.3098 10.677 0.333
29.3303 10.417 0.329
29.3507 10.219 0.326
29.3712 10.438 0.330
29.3917 10.292 0.327
29.4121 9.750 0.319
29.4326 9.177 0.309
29.4530 9.146 0.309
29.4735 9.240 0.310
29.4940 9.740 0.319
29.5144 10.406 0.329
29.5349 11.177 0.341
29.5554 10.563 0.332
29.5758 9.833 0.320
29.5963 9.365 0.312
29.6168 8.708 0.301
29.6372 8.552 0.298
29.6577 8.198 0.292
29.6781 7.656 0.282
29.6986 7.250 0.275
29.7191 7.469 0.279
29.7395 7.021 0.270
29.7600 7.542 0.280
29.7805 7.135 0.273
29.8009 7.271 0.275
29.8214 7.167 0.273
29.8418 7.208 0.274
29.8623 7.208 0.274
29.8828 7.052 0.271
29.9032 6.490 0.260
29.9237 6.729 0.265
29.9442 6.969 0.269
29.9646 7.115 0.272
29.9851 6.615 0.262
30.0055 6.583 0.262
30.0260 6.510 0.260
30.0465 6.396 0.258
30.0669 6.500 0.260
30.0874 6.927 0.269
30.1079 7.115 0.272
30.1283 6.875 0.268
30.1488 6.656 0.263
30.1692 6.531 0.261
30.1897 6.771 0.266
30.2102 6.646 0.263
30.2306 6.927 0.269
30.2511 6.542 0.261
30.2716 6.719 0.265
30.2920 6.896 0.268
30.3125 6.563 0.261
30.3329 6.198 0.254
30.3534 6.448 0.259
30.3739 6.635 0.263
30.3943 6.990 0.270
30.4148 6.938 0.269
30.4353 6.615 0.262
30.4557 6.438 0.259
30.4762 6.750 0.265
30.4967 6.500 0.260
30.5171 7.010 0.270
30.5376 6.854 0.267
30.5580 6.667 0.264
30.5785 6.615 0.262
30.5990 7.198 0.274
30.6194 7.375 0.277
30.6399 7.188 0.274
30.6604 7.688 0.283
30.6808 7.344 0.277
30.7013 7.354 0.277
30.7217 7.438 0.278
30.7422 7.906 0.287
30.7627 7.479 0.279
30.7831 8.104 0.291
30.8036 7.885 0.287
30.8241 8.448 0.297
30.8445 7.917 0.287
30.8650 9.063 0.307
30.8854 9.469 0.314
30.9059 11.708 0.349
30.9264 13.854 0.380
30.9468 16.146 0.410
30.9673 19.281 0.448
30.9878 20.396 0.461
31.0082 22.052 0.479
31.0287 20.823 0.466
31.0491 20.688 0.464
31.0696 19.563 0.451
31.0901 19.688 0.453
31.1105 16.698 0.417
31.1310 14.802 0.393
31.1515 13.719 0.378
31.1719 12.729 0.364
31.1924 11.354 0.344
31.2128 10.875 0.337
31.2333 10.146 0.325
31.2538 10.510 0.331
31.2742 9.969 0.322
31.2947 9.469 0.314
31.3152 9.010 0.306
31.3356 9.156 0.309
31.3561 8.406 0.296
31.3766 8.938 0.305
31.3970 8.302 0.294
31.4175 7.635 0.282
31.4379 8.063 0.290
31.4584 8.156 0.291
31.4789 8.063 0.290
31.4993 7.927 0.287
31.5198 8.083 0.290
31.5403 7.760 0.284
31.5607 7.198 0.274
31.5812 7.281 0.275
31.6016 7.490 0.279
31.6221 7.771 0.285
31.6426 8.052 0.290
31.6630 8.010 0.289
31.6835 8.094 0.290
31.7040 8.365 0.295
31.7244 8.427 0.296
31.7449 8.740 0.302
31.7653 8.771 0.302
31.7858 9.688 0.318
31.8063 9.073 0.307
31.8267 9.250 0.310
31.8472 8.781 0.302
31.8677 8.771 0.302
31.8881 9.198 0.310
31.9086 8.708 0.301
31.9290 8.740 0.302
31.9495 8.760 0.302
31.9700 8.396 0.296
31.9904 8.896 0.304
32.0109 9.094 0.308
32.0314 9.135 0.308
32.0518 9.740 0.319
32.0723 10.521 0.331
32.0927 11.417 0.345
32.1132 13.885 0.380
32.1337 17.552 0.428
32.1541 21.833 0.477
32.1746 26.625 0.527
32.1951 24.760 0.508
32.2155 21.906 0.478
32.2360 19.521 0.451
32.2565 20.573 0.463
32.2769 18.854 0.443
32.2974 15.635 0.404
32.3178 13.448 0.374
32.3383 12.583 0.362
32.3588 12.219 0.357
32.3792 11.188 0.341
32.3997 11.094 0.340
32.4202 10.552 0.332
32.4406 11.104 0.340
32.4611 10.406 0.329
32.4815 10.531 0.331
32.5020 10.667 0.333
32.5225 10.521 0.331
32.5429 11.271 0.343
32.5634 10.948 0.338
32.5839 10.948 0.338
32.6043 10.469 0.330
32.6248 10.802 0.335
32.6452 10.729 0.334
32.6657 10.104 0.324
32.6862 10.281 0.327
32.7066 10.042 0.323
32.7271 9.313 0.311
32.7476 9.063 0.307
32.7680 8.781 0.302
32.7885 8.833 0.303
32.8089 8.656 0.300
32.8294 9.000 0.306
32.8499 8.927 0.305
32.8703 9.302 0.311
32.8908 9.125 0.308
32.9113 8.844 0.304
32.9317 8.615 0.300
32.9522 8.865 0.304
32.9726 8.000 0.289
32.9931 8.427 0.296
33.0136 8.635 0.300
33.0340 8.156 0.291
33.0545 8.688 0.301
33.0750 8.479 0.297
33.0954 9.781 0.319
33.1159 10.385 0.329
33.1364 10.469 0.330
33.1568 9.885 0.321
33.1773 10.052 0.324
33.1977 9.000 0.306
33.2182 9.417 0.313
33.2387 9.115 0.308
33.2591 8.635 0.300
33.2796 9.094 0.308
33.3001 9.823 0.320
33.3205 10.604 0.332
33.3410 11.354 0.344
33.3614 9.625 0.317
33.3819 9.896 0.321
33.4024 10.375 0.329
33.4228 9.625 0.317
33.4433 7.896 0.287
33.4638 7.958 0.288
33.4842 7.802 0.285
33.5047 7.969 0.288
33.5251 7.719 0.284
33.5456 7.594 0.281
33.5661 7.406 0.278
33.5865 7.719 0.284
33.6070 7.406 0.278
33.6275 8.125 0.291
33.6479 8.073 0.290
33.6684 8.490 0.297
33.6888 9.750 0.319
33.7093 9.156 0.309
33.7298 7.906 0.287
33.7502 6.854 0.267
33.7707 8.021 0.289
33.7912 8.010 0.289
33.8116 7.833 0.286
33.8321 7.104 0.272
33.8526 6.771 0.266
33.8730 7.083 0.272
33.8935 6.865 0.267
33.9139 7.167 0.273
33.9344 7.031 0.271
33.9549 7.125 0.272
33.9753 6.625 0.263
33.9958 7.271 0.275
34.0163 7.906 0.287
34.0367 7.271 0.275
34.0572 6.854 0.267
34.0776 7.510 0.280
34.0981 8.333 0.295
34.1186 8.990 0.306
34.1390 11.146 0.341
34.1595 13.052 0.369
34.1800 14.656 0.391
34.2004 14.458 0.388
34.2209 12.938 0.367
34.2413 11.802 0.351
34.2618 12.542 0.361
34.2823 11.271 0.343
34.3027 10.865 0.336
34.3232 9.219 0.310
34.3437 8.500 0.298
34.3641 8.563 0.299
34.3846 7.948 0.288
34.4050 8.146 0.291
34.4255 8.104 0.291
34.4460 7.583 0.281
34.4664 7.740 0.284
34.4869 7.521 0.280
34.5074 7.635 0.282
34.5278 7.906 0.287
34.5483 7.771 0.285
34.5687 7.156 0.273
34.5892 7.031 0.271
34.6097 7.552 0.280
34.6301 7.906 0.287
34.6506 7.354 0.277
34.6711 7.781 0.285
34.6915 7.740 0.284
34.7120 8.490 0.297
34.7325 8.469 0.297
34.7529 8.323 0.294
34.7734 8.365 0.295
34.7938 9.760 0.319
34.8143 9.990 0.323
34.8348 11.958 0.353
34.8552 14.625 0.390
34.8757 19.240 0.448
34.8962 25.229 0.513
34.9166 29.542 0.555
34.9371 26.292 0.523
34.9575 22.333 0.482
34.9780 21.656 0.475
34.9985 22.167 0.481
35.0189 19.521 0.451
35.0394 16.604 0.416
35.0599 14.125 0.384
35.0803 12.448 0.360
35.1008 11.990 0.353
35.1212 11.021 0.339
35.1417 9.938 0.322
35.1622 10.010 0.323
35.1826 9.271 0.311
35.2031 9.021 0.307
35.2236 8.979 0.306
35.2440 8.417 0.296
35.2645 8.490 0.297
35.2849 8.292 0.294
35.3054 7.563 0.281
35.3259 7.938 0.288
35.3463 8.552 0.298
35.3668 7.760 0.284
35.3873 8.573 0.299
35.4077 8.177 0.292
35.4282 8.021 0.289
35.4486 8.417 0.296
35.4691 9.104 0.308
35.4896 8.990 0.306
35.5100 8.896 0.304
35.5305 8.875 0.304
35.5510 8.719 0.301
35.5714 8.813 0.303
35.5919 8.573 0.299
35.6124 7.979 0.288
35.6328 7.615 0.282
35.6533 7.719 0.284
35.6737 7.969 0.288
35.6942 7.927 0.287
35.7147 8.125 0.291
35.7351 8.135 0.291
35.7556 8.552 0.298
35.7761 8.729 0.302
35.7965 8.406 0.296
35.8170 8.698 0.301
35.8374 8.927 0.305
35.8579 9.323 0.312
35.8784 9.635 0.317
35.8988 9.646 0.317
35.9193 9.844 0.320
35.9398 10.813 0.336
35.9602 11.240 0.342
35.9807 12.792 0.365
36.0011 13.063 0.369
36.0216 13.406 0.374
36.0421 13.958 0.381
36.0625 14.125 0.384
36.0830 14.031 0.382
36.1035 14.219 0.385
36.1239 13.833 0.380
36.1444 13.906 0.381
36.1648 14.917 0.394
36.1853 14.125 0.384
36.2058 13.948 0.381
36.2262 14.479 0.388
36.2467 14.260 0.385
36.2672 13.146 0.370
36.2876 13.823 0.379
36.3081 13.573 0.376
36.3285 13.781 0.379
36.3490 13.854 0.380
36.3695 13.740 0.378
36.3899 13.688 0.378
36.4104 14.375 0.387
36.4309 14.583 0.390
36.4513 14.906 0.394
36.4718 15.573 0.403
36.4923 15.458 0.401
36.5127 15.760 0.405
36.5332 15.583 0.403
36.5536 17.198 0.423
36.5741 16.896 0.420
36.5946 16.302 0.412
36.6150 16.625 0.416
36.6355 16.635 0.416
36.6560 16.135 0.410
36.6764 16.031 0.409
36.6969 16.156 0.410
36.7173 14.729 0.392
36.7378 13.948 0.381
36.7583 15.229 0.398
36.7787 14.094 0.383
36.7992 14.146 0.384
36.8197 14.594 0.390
36.8401 13.792 0.379
36.8606 14.406 0.387
36.8810 13.792 0.379
36.9015 14.521 0.389
36.9220 14.990 0.395
36.9424 14.240 0.385
36.9629 15.344 0.400
36.9834 15.438 0.401
37.0038 16.583 0.416
37.0243 16.073 0.409
37.0447 16.427 0.414
37.0652 17.042 0.421
37.0857 15.781 0.405
37.1061 15.917 0.407
37.1266 16.094 0.409
37.1471 16.188 0.411
37.1675 15.979 0.408
37.1880 16.208 0.411
37.2084 16.896 0.420
37.2289 17.031 0.421
37.2494 15.469 0.401
37.2698 14.594 0.390
37.2903 14.250 0.385
37.3108 14.833 0.393
37.3312 14.146 0.384
37.3517 13.167 0.370
37.3722 12.292 0.358
37.3926 12.313 0.358
37.4131 11.729 0.350
37.4335 11.698 0.349
37.4540 12.417 0.360
37.4745 11.802 0.351
37.4949 11.500 0.346
37.5154 10.990 0.338
37.5359 11.604 0.348
37.5563 11.083 0.340
37.5768 10.958 0.338
37.5972 10.875 0.337
37.6177 11.427 0.345
37.6382 11.083 0.340
37.6586 10.542 0.331
37.6791 11.323 0.343
37.6996 10.333 0.328
37.7200 10.344 0.328
37.7405 10.990 0.338
37.7609 11.083 0.340
37.7814 11.073 0.340
37.8019 11.083 0.340
37.8223 11.063 0.339
37.8428 11.406 0.345
37.8633 11.229 0.342
37.8837 10.865 0.336
37.9042 10.969 0.338
37.9246 11.010 0.339
37.9451 10.844 0.336
37.9656 11.604 0.348
37.9860 11.854 0.351
38.0065 11.396 0.345
38.0270 11.281 0.343
38.0474 10.875 0.337
38.0679 11.458 0.345
38.0884 11.396 0.345
38.1088 10.583 0.332
38.1293 11.542 0.347
38.1497 11.344 0.344
38.1702 11.219 0.342
38.1907 11.573 0.347
38.2111 11.479 0.346
38.2316 12.250 0.357
38.2521 12.083 0.355
38.2725 11.438 0.345
38.2930 11.740 0.350
38.3134 11.438 0.345
38.3339 10.958 0.338
38.3544 11.208 0.342
38.3748 10.708 0.334
38.3953 11.396 0.345
38.4158 11.219 0.342
38.4362 10.635 0.333
38.4567 10.375 0.329
38.4771 10.656 0.333
38.4976 11.260 0.342
38.5181 10.313 0.328
38.5385 9.656 0.317
38.5590 9.688 0.318
38.5795 9.938 0.322
38.5999 9.594 0.316
38.6204 9.531 0.315
38.6408 9.615 0.316
38.6613 8.948 0.305
38.6818 9.177 0.309
38.7022 8.792 0.303
38.7227 9.667 0.317
38.7432 9.271 0.311
38.7636 9.073 0.307
38.7841 8.771 0.302
38.8045 9.281 0.311
38.8250 9.333 0.312
38.8455 9.021 0.307
38.8659 9.125 0.308
38.8864 8.948 0.305
38.9069 9.281 0.311
38.9273 8.469 0.297
38.9478 8.563 0.299
38.9683 8.802 0.303
38.9887 8.885 0.304
39.0092 8.823 0.303
39.0296 9.604 0.316
39.0501 8.854 0.304
39.0706 8.740 0.302
39.0910 9.250 0.310
39.1115 9.208 0.310
39.1320 8.917 0.305
39.1524 8.688 0.301
39.1729 8.719 0.301
39.1933 8.313 0.294
39.2138 8.688 0.301
39.2343 8.854 0.304
39.2547 8.333 0.295
39.2752 8.823 0.303
39.2957 8.792 0.303
39.3161 9.146 0.309
39.3366 8.917 0.305
39.3570 9.333 0.312
39.3775 8.646 0.300
39.3980 8.969 0.306
39.4184 8.906 0.305
39.4389 8.781 0.302
39.4594 9.042 0.307
39.4798 8.677 0.301
39.5003 8.604 0.299
39.5207 8.219 0.293
39.5412 9.313 0.311
39.5617 8.479 0.297
39.5821 8.438 0.296
39.6026 8.521 0.298
39.6231 8.635 0.300
39.6435 8.552 0.298
39.6640 8.813 0.303
39.6844 9.115 0.308
39.7049 8.729 0.302
39.7254 9.271 0.311
39.7458 8.865 0.304
39.7663 9.083 0.308
39.7868 9.073 0.307
39.8072 9.250 0.310
39.8277 9.333 0.312
39.8482 8.740 0.302
39.8686 8.563 0.299
39.8891 8.490 0.297
39.9095 8.833 0.303
39.9300 8.583 0.299
39.9505 8.260 0.293
39.9709 7.802 0.285
39.9914 8.563 0.299
40.0119 8.802 0.303
40.0323 8.302 0.294
40.0528 8.729 0.302
40.0732 8.177 0.292
40.0937 8.729 0.302
40.1142 8.438 0.296
40.1346 8.844 0.304
40.1551 8.333 0.295
40.1756 8.479 0.297
40.1960 9.073 0.307
40.2165 8.938 0.305
40.2369 9.135 0.308
40.2574 9.365 0.312
40.2779 10.260 0.327
40.2983 10.844 0.336
40.3188 10.917 0.337
40.3393 11.302 0.343
40.3597 10.198 0.326
40.3802 10.031 0.323
40.4006 10.281 0.327
40.4211 9.500 0.315
40.4416 9.625 0.317
40.4620 9.542 0.315
40.4825 9.115 0.308
40.5030 9.427 0.313
40.5234 9.448 0.314
40.5439 9.594 0.316
40.5643 9.292 0.311
40.5848 10.313 0.328
40.6053 9.563 0.316
40.6257 10.146 0.325
40.6462 11.219 0.342
40.6667 11.990 0.353
40.6871 12.990 0.368
40.7076 15.323 0.400
40.7281 19.500 0.451
40.7485 22.958 0.489
40.7690 24.760 0.508
40.7894 21.917 0.478
40.8099 19.271 0.448
40.8304 17.792 0.430
40.8508 18.396 0.438
40.8713 18.104 0.434
40.8918 16.958 0.420
40.9122 14.500 0.389
40.9327 12.656 0.363
40.9531 12.219 0.357
40.9736 11.625 0.348
40.9941 10.875 0.337
41.0145 10.083 0.324
41.0350 10.479 0.330
41.0555 9.958 0.322
41.0759 9.750 0.319
41.0964 10.219 0.326
41.1168 9.740 0.319
41.1373 9.510 0.315
41.1578 10.333 0.328
41.1782 9.229 0.310
41.1987 10.417 0.329
41.2192 11.219 0.342
41.2396 10.438 0.330
41.2601 9.771 0.319
41.2805 8.781 0.302
41.3010 9.146 0.309
41.3215 9.188 0.309
41.3419 8.979 0.306
41.3624 8.688 0.301
41.3829 8.677 0.301
41.4033 8.417 0.296
41.4238 8.281 0.294
41.4442 8.125 0.291
41.4647 8.792 0.303
41.4852 8.885 0.304
41.5056 9.510 0.315
41.5261 9.177 0.309
41.5466 8.427 0.296
41.5670 9.104 0.308
41.5875 8.417 0.296
41.6080 9.146 0.309
41.6284 9.021 0.307
41.6489 9.333 0.312
41.6693 8.490 0.297
41.6898 9.094 0.308
41.7103 9.167 0.309
41.7307 9.375 0.313
41.7512 9.417 0.313
41.7717 10.896 0.337
41.7921 11.344 0.344
41.8126 13.510 0.375
41.8330 15.896 0.407
41.8535 16.958 0.420
41.8740 14.969 0.395
41.8944 14.677 0.391
41.9149 12.188 0.356
41.9354 12.563 0.362
41.9558 13.115 0.370
41.9763 12.094 0.355
41.9967 11.427 0.345
42.0172 9.656 0.317
42.0377 9.344 0.312
42.0581 9.031 0.307
42.0786 8.771 0.302
42.0991 8.469 0.297
42.1195 8.552 0.298
42.1400 8.469 0.297
42.1604 7.875 0.286
42.1809 8.552 0.298
42.2014 7.844 0.286
42.2218 8.240 0.293
42.2423 8.083 0.290
42.2628 7.948 0.288
42.2832 8.198 0.292
42.3037 8.740 0.302
42.3242 7.990 0.288
42.3446 8.979 0.306
42.3651 8.167 0.292
42.3855 8.344 0.295
42.4060 8.333 0.295
42.4265 8.302 0.294
42.4469 9.250 0.310
42.4674 9.042 0.307
42.4879 9.365 0.312
42.5083 9.229 0.310
42.5288 8.896 0.304
42.5492 9.146 0.309
42.5697 8.969 0.306
42.5902 8.563 0.299
42.6106 9.188 0.309
42.6311 8.823 0.303
42.6516 9.010 0.306
42.6720 8.167 0.292
42.6925 8.708 0.301
42.7129 8.688 0.301
42.7334 8.552 0.298
42.7539 8.385 0.296
42.7743 8.177 0.292
42.7948 8.281 0.294
42.8153 7.948 0.288
42.8357 7.990 0.288
42.8562 8.323 0.294
42.8766 7.844 0.286
42.8971 8.219 0.293
42.9176 7.708 0.283
42.9380 7.854 0.286
42.9585 8.073 0.290
42.9790 8.115 0.291
42.9994 7.344 0.277
43.0199 8.104 0.291
43.0403 7.531 0.280
43.0608 8.323 0.294
43.0813 8.438 0.296
43.1017 7.771 0.285
43.1222 8.010 0.289
43.1427 8.417 0.296
43.1631 8.448 0.297
43.1836 8.229 0.293
43.2041 8.521 0.298
43.2245 9.042 0.307
43.2450 8.448 0.297
43.2654 8.792 0.303
43.2859 9.156 0.309
43.3064 8.531 0.298
43.3268 9.031 0.307
43.3473 9.135 0.308
43.3678 9.281 0.311
43.3882 9.177 0.309
43.4087 8.656 0.300
43.4291 9.208 0.310
43.4496 9.646 0.317
43.4701 9.490 0.314
43.4905 9.250 0.310
43.5110 9.646 0.317
43.5315 9.125 0.308
43.5519 9.479 0.314
43.5724 9.604 0.316
43.5928 10.188 0.326
43.6133 10.063 0.324
43.6338 10.438 0.330
43.6542 10.354 0.328
43.6747 10.281 0.327
43.6952 10.219 0.326
43.7156 10.083 0.324
43.7361 10.396 0.329
43.7565 9.875 0.321
43.7770 10.458 0.330
43.7975 10.354 0.328
43.8179 11.146 0.341
43.8384 10.375 0.329
43.8589 10.698 0.334
43.8793 9.990 0.323
43.8998 9.354 0.312
43.9202 9.604 0.316
43.9407 9.740 0.319
43.9612 9.646 0.317
43.9816 9.583 0.316
44.0021 9.156 0.309
44.0226 8.760 0.302
44.0430 8.927 0.305
44.0635 8.385 0.296
44.0840 8.802 0.303
44.1044 8.458 0.297
44.1249 8.354 0.295
44.1453 8.135 0.291
44.1658 7.844 0.286
44.1863 7.875 0.286
44.2067 7.865 0.286
44.2272 8.083 0.290
44.2477 8.385 0.296
44.2681 7.667 0.283
44.2886 8.229 0.293
44.3090 7.906 0.287
44.3295 8.188 0.292
44.3500 7.844 0.286
44.3704 8.177 0.292
44.3909 7.760 0.284
44.4114 8.188 0.292
44.4318 8.042 0.289
44.4523 8.323 0.294
44.4727 7.719 0.284
44.4932 8.010 0.289
44.5137 7.833 0.286
44.5341 8.094 0.290
44.5546 7.427 0.278
44.5751 8.146 0.291
44.5955 8.365 0.295
44.6160 8.323 0.294
44.6364 7.781 0.285
44.6569 7.792 0.285
44.6774 8.177 0.292
44.6978 7.583 0.281
44.7183 7.448 0.279
44.7388 7.458 0.279
44.7592 7.688 0.283
44.7797 8.000 0.289
44.8001 7.479 0.279
44.8206 7.427 0.278
44.8411 7.792 0.285
44.8615 7.375 0.277
44.8820 7.917 0.287
44.9025 7.865 0.286
44.9229 7.771 0.285
44.9434 8.021 0.289
44.9639 7.625 0.282
44.9843 7.552 0.280
45.0048 8.083 0.290
45.0252 8.292 0.294
45.0457 7.729 0.284
45.0662 8.010 0.289
45.0866 8.063 0.290
45.1071 8.125 0.291
45.1276 8.125 0.291
45.1480 8.719 0.301
45.1685 8.250 0.293
45.1889 8.438 0.296
45.2094 8.563 0.299
45.2299 8.917 0.305
45.2503 8.875 0.304
45.2708 8.063 0.290
45.2913 7.958 0.288
45.3117 8.208 0.292
45.3322 8.177 0.292
45.3526 8.042 0.289
45.3731 7.938 0.288
45.3936 7.615 0.282
45.4140 7.771 0.285
45.4345 7.542 0.280
45.4550 7.656 0.282
45.4754 6.969 0.269
45.4959 8.115 0.291
45.5163 7.854 0.286
45.5368 6.990 0.270
45.5573 7.688 0.283
45.5777 7.365 0.277
45.5982 7.333 0.276
45.6187 7.656 0.282
45.6391 7.250 0.275
45.6596 7.021 0.270
45.6800 8.073 0.290
45.7005 7.625 0.282
45.7210 7.510 0.280
45.7414 7.698 0.283
45.7619 7.354 0.277
45.7824 8.094 0.290
45.8028 7.833 0.286
45.8233 8.083 0.290
45.8438 8.063 0.290
45.8642 8.104 0.291
45.8847 7.875 0.286
45.9051 8.448 0.297
45.9256 7.625 0.282
45.9461 7.583 0.281
45.9665 7.698 0.283
45.9870 7.146 0.273
46.0075 7.844 0.286
46.0279 6.938 0.269
46.0484 7.469 0.279
46.0688 7.771 0.285
46.0893 7.063 0.271
46.1098 6.635 0.263
46.1302 6.948 0.269
46.1507 6.917 0.268
46.1712 7.469 0.279
46.1916 6.396 0.258
46.2121 6.833 0.267
46.2325 6.813 0.266
46.2530 7.198 0.274
46.2735 7.115 0.272
46.2939 6.719 0.265
46.3144 6.688 0.264
46.3349 6.375 0.258
46.3553 6.927 0.269
46.3758 6.552 0.261
46.3962 7.552 0.280
46.4167 7.125 0.272
46.4372 7.198 0.274
46.4576 7.438 0.278
46.4781 7.865 0.286
46.4986 8.125 0.291
46.5190 8.688 0.301
46.5395 9.469 0.314
46.5600 9.885 0.321
46.5804 10.792 0.335
46.6009 10.917 0.337
46.6213 9.490 0.314
46.6418 8.917 0.305
46.6623 8.823 0.303
46.6827 9.635 0.317
46.7032 9.521 0.315
46.7237 9.875 0.321
46.7441 8.875 0.304
46.7646 8.240 0.293
46.7850 8.042 0.289
46.8055 7.833 0.286
46.8260 7.448 0.279
46.8464 7.625 0.282
46.8669 7.802 0.285
46.8874 7.583 0.281
46.9078 7.010 0.270
46.9283 7.385 0.277
46.9487 7.229 0.274
46.9692 7.510 0.280
46.9897 6.448 0.259
47.0101 6.938 0.269
47.0306 6.917 0.268
47.0511 6.938 0.269
47.0715 6.938 0.269
47.0920 6.594 0.262
47.1124 6.938 0.269
47.1329 6.510 0.260
47.1534 6.646 0.263
47.1738 6.969 0.269
47.1943 7.219 0.274
47.2148 6.667 0.264
47.2352 6.802 0.266
47.2557 7.500 0.280
47.2761 7.302 0.276
47.2966 6.698 0.264
47.3171 7.531 0.280
47.3375 7.271 0.275
47.3580 7.271 0.275
47.3785 6.854 0.267
47.3989 6.635 0.263
47.4194 7.177 0.273
47.4399 6.917 0.268
47.4603 7.115 0.272
47.4808 6.823 0.267
47.5012 6.854 0.267
47.5217 7.104 0.272
47.5422 7.010 0.270
47.5626 6.698 0.264
47.5831 7.010 0.270
47.6036 6.948 0.269
47.6240 7.458 0.279
47.6445 7.802 0.285
47.6649 7.510 0.280
47.6854 7.625 0.282
47.7059 7.438 0.278
47.7263 7.302 0.276
47.7468 7.208 0.274
47.7673 6.948 0.269
47.7877 6.833 0.267
47.8082 6.823 0.267
47.8286 7.583 0.281
47.8491 6.708 0.264
47.8696 7.479 0.279
47.8900 6.469 0.260
47.9105 6.281 0.256
47.9310 6.990 0.270
47.9514 6.740 0.265
47.9719 6.604 0.262
47.9923 6.490 0.260
48.0128 6.365 0.257
48.0333 6.438 0.259
48.0537 6.708 0.264
48.0742 6.281 0.256
48.0947 6.708 0.264
48.1151 6.688 0.264
48.1356 6.604 0.262
48.1560 6.615 0.262
48.1765 6.552 0.261
48.1970 7.094 0.272
48.2174 6.365 0.257
48.2379 6.427 0.259
48.2584 6.948 0.269
48.2788 6.969 0.269
48.2993 7.000 0.270
48.3198 7.396 0.278
48.3402 7.167 0.273
48.3607 7.385 0.277
48.3811 7.521 0.280
48.4016 7.240 0.275
48.4221 7.490 0.279
48.4425 7.677 0.283
48.4630 7.229 0.274
48.4835 7.240 0.275
48.5039 7.240 0.275
48.5244 7.188 0.274
48.5448 7.500 0.280
48.5653 7.010 0.270
48.5858 6.844 0.267
48.6062 7.313 0.276
48.6267 7.375 0.277
48.6472 6.813 0.266
48.6676 6.583 0.262
48.6881 6.813 0.266
48.7085 6.896 0.268
48.7290 6.292 0.256
48.7495 6.490 0.260
48.7699 6.240 0.255
48.7904 6.438 0.259
48.8109 6.677 0.264
48.8313 6.198 0.254
48.8518 6.865 0.267
48.8722 6.438 0.259
48.8927 6.677 0.264
48.9132 6.510 0.260
48.9336 6.615 0.262
48.9541 6.292 0.256
48.9746 7.385 0.277
48.9950 7.385 0.277
49.0155 7.781 0.285
49.0359 8.823 0.303
49.0564 8.438 0.296
49.0769 8.677 0.301
49.0973 8.323 0.294
49.1178 8.250 0.293
49.1383 7.656 0.282
49.1587 8.146 0.291
49.1792 8.292 0.294
49.1997 8.615 0.300
49.2201 8.344 0.295
49.2406 7.771 0.285
49.2610 8.844 0.304
49.2815 8.229 0.293
49.3020 8.688 0.301
49.3224 8.573 0.299
49.3429 8.292 0.294
49.3634 8.365 0.295
49.3838 7.740 0.284
49.4043 7.781 0.285
49.4247 8.323 0.294
49.4452 8.104 0.291
49.4657 7.917 0.287
49.4861 7.719 0.284
49.5066 7.677 0.283
49.5271 7.208 0.274
49.5475 7.229 0.274
49.5680 8.052 0.290
49.5884 8.021 0.289
49.6089 7.188 0.274
49.6294 7.906 0.287
49.6498 7.771 0.285
49.6703 7.854 0.286
49.6908 8.500 0.298
49.7112 8.146 0.291
49.7317 8.719 0.301
49.7521 8.385 0.296
49.7726 8.917 0.305
49.7931 8.781 0.302
49.8135 9.146 0.309
49.8340 8.427 0.296
49.8545 8.698 0.301
49.8749 8.448 0.297
49.8954 8.646 0.300
49.9158 8.563 0.299
49.9363 8.021 0.289
49.9568 8.688 0.301
49.9772 7.625 0.282
49.9977 7.927 0.287
50.0182 7.792 0.285
50.0386 7.417 0.278
50.0591 7.427 0.278
50.0796 7.594 0.281
50.1000 7.188 0.274
50.1205 7.563 0.281
50.1409 7.760 0.284
50.1614 7.573 0.281
50.1819 7.958 0.288
50.2023 7.281 0.275
50.2228 8.188 0.292
50.2433 8.198 0.292
50.2637 8.281 0.294
50.2842 7.573 0.281
50.3046 7.771 0.285
50.3251 7.563 0.281
50.3456 7.292 0.276
50.3660 7.240 0.275
50.3865 7.010 0.270
50.4070 7.646 0.282
50.4274 7.167 0.273
50.4479 7.010 0.270
50.4683 7.125 0.272
50.4888 7.188 0.274
50.5093 7.021 0.270
50.5297 6.729 0.265
50.5502 7.302 0.276
50.5707 6.885 0.268
50.5911 7.031 0.271
50.6116 6.802 0.266
50.6320 7.063 0.271
50.6525 6.594 0.262
50.6730 6.656 0.263
50.6934 6.729 0.265
50.7139 6.250 0.255
50.7344 6.635 0.263
50.7548 6.063 0.251
50.7753 5.510 0.240
50.7958 6.031 0.251
50.8162 6.240 0.255
50.8367 6.583 0.262
50.8571 6.219 0.255
50.8776 6.240 0.255
50.8981 6.490 0.260
50.9185 6.396 0.258
50.9390 6.917 0.268
50.9595 6.865 0.267
50.9799 6.760 0.265
51.0004 6.458 0.259
51.0208 6.219 0.255
51.0413 6.740 0.265
51.0618 6.854 0.267
51.0822 6.281 0.256
51.1027 6.094 0.252
51.1232 6.552 0.261
51.1436 6.135 0.253
51.1641 6.208 0.254
51.1845 6.479 0.260
51.2050 5.990 0.250
51.2255 6.073 0.252
51.2459 6.156 0.253
51.2664 6.094 0.252
51.2869 6.125 0.253
51.3073 6.104 0.252
51.3278 5.865 0.247
51.3482 6.125 0.253
51.3687 6.094 0.252
51.3892 6.042 0.251
51.4096 6.042 0.251
51.4301 6.104 0.252
51.4506 6.125 0.253
51.4710 5.802 0.246
51.4915 5.781 0.245
51.5119 5.542 0.240
51.5324 6.438 0.259
51.5529 6.396 0.258
51.5733 6.344 0.257
51.5938 7.281 0.275
51.6143 7.156 0.273
51.6347 7.396 0.278
51.6552 6.729 0.265
51.6757 6.927 0.269
51.6961 6.313 0.256
51.7166 6.625 0.263
51.7370 6.938 0.269
51.7575 7.042 0.271
51.7780 6.656 0.263
51.7984 5.792 0.246
51.8189 6.344 0.257
51.8394 6.281 0.256
51.8598 6.594 0.262
51.8803 7.281 0.275
51.9007 6.271 0.256
51.9212 6.490 0.260
51.9417 7.167 0.273
51.9621 6.313 0.256
51.9826 6.313 0.256
52.0031 6.208 0.254
52.0235 6.625 0.263
52.0440 6.646 0.263
52.0644 6.344 0.257
52.0849 6.250 0.255
52.1054 6.354 0.257
52.1258 6.125 0.253
52.1463 5.844 0.247
52.1668 5.688 0.243
52.1872 5.667 0.243
52.2077 6.229 0.255
52.2281 6.188 0.254
52.2486 6.396 0.258
52.2691 6.271 0.256
52.2895 6.208 0.254
52.3100 5.917 0.248
52.3305 5.583 0.241
52.3509 5.656 0.243
52.3714 5.990 0.250
52.3918 5.573 0.241
52.4123 5.865 0.247
52.4328 5.563 0.241
52.4532 5.281 0.235
52.4737 5.594 0.241
52.4942 5.281 0.235
52.5146 5.229 0.233
52.5351 5.406 0.237
52.5556 5.698 0.244
52.5760 5.010 0.228
52.5965 5.594 0.241
52.6169 5.563 0.241
52.6374 5.042 0.229
52.6579 5.354 0.236
52.6783 5.365 0.236
52.6988 5.344 0.236
52.7193 5.104 0.231
52.7397 5.479 0.239
52.7602 5.260 0.234
52.7806 5.385 0.237
52.8011 5.292 0.235
52.8216 5.406 0.237
52.8420 5.156 0.232
52.8625 5.417 0.238
52.8830 6.042 0.251
52.9034 5.323 0.235
52.9239 5.083 0.230
52.9443 5.688 0.243
52.9648 5.865 0.247
52.9853 5.927 0.248
53.0057 5.271 0.234
53.0262 5.656 0.243
53.0467 5.229 0.233
53.0671 5.771 0.245
53.0876 5.563 0.241
53.1080 5.250 0.234
53.1285 5.917 0.248
53.1490 5.250 0.234
53.1694 5.625 0.242
53.1899 5.354 0.236
53.2104 5.271 0.234
53.2308 5.167 0.232
53.2513 5.094 0.230
53.2717 4.760 0.223
53.2922 5.073 0.230
53.3127 5.344 0.236
53.3331 5.260 0.234
53.3536 5.083 0.230
53.3741 5.375 0.237
53.3945 5.177 0.232
53.4150 4.875 0.225
53.4355 5.031 0.229
53.4559 5.135 0.231
53.4764 5.271 0.234
53.4968 5.146 0.232
53.5173 5.385 0.237
53.5378 5.208 0.233
53.5582 5.521 0.240
53.5787 5.063 0.230
53.5992 5.865 0.247
53.6196 5.667 0.243
53.6401 5.979 0.250
53.6605 6.604 0.262
53.6810 6.302 0.256
53.7015 6.729 0.265
53.7219 6.229 0.255
53.7424 5.917 0.248
53.7629 5.781 0.245
53.7833 6.406 0.258
53.8038 6.073 0.252
53.8242 6.073 0.252
53.8447 5.542 0.240
53.8652 5.604 0.242
53.8856 5.656 0.243
53.9061 5.115 0.231
53.9266 5.281 0.235
53.9470 5.219 0.233
53.9675 5.292 0.235
53.9879 5.125 0.231
54.0084 5.083 0.230
54.0289 5.135 0.231
54.0493 5.167 0.232
54.0698 4.813 0.224
54.0903 5.083 0.230
54.1107 5.323 0.235
54.1312 5.271 0.234
54.1516 4.760 0.223
54.1721 4.906 0.226
54.1926 5.448 0.238
54.2130 4.750 0.222
54.2335 5.042 0.229
54.2540 5.167 0.232
54.2744 4.958 0.227
54.2949 5.281 0.235
54.3154 5.344 0.236
54.3358 5.542 0.240
54.3563 5.260 0.234
54.3767 5.115 0.231
54.3972 5.323 0.235
54.4177 5.573 0.241
54.4381 5.448 0.238
54.4586 6.010 0.250
54.4791 6.313 0.256
54.4995 6.208 0.254
54.5200 6.521 0.261
54.5404 7.115 0.272
54.5609 6.240 0.255
54.5814 6.156 0.253
54.6018 6.208 0.254
54.6223 5.958 0.249
54.6428 6.719 0.265
54.6632 5.969 0.249
54.6837 5.875 0.247
54.7041 6.219 0.255
54.7246 5.719 0.244
54.7451 5.813 0.246
54.7655 5.896 0.248
54.7860 5.500 0.239
54.8065 5.875 0.247
54.8269 5.448 0.238
54.8474 5.698 0.244
54.8678 5.656 0.243
54.8883 5.938 0.249
54.9088 6.271 0.256
54.9292 5.990 0.250
54.9497 6.844 0.267
54.9702 6.583 0.262
54.9906 7.667 0.283
55.0111 9.083 0.308
55.0316 9.219 0.310
55.0520 11.010 0.339
55.0725 10.646 0.333
55.0929 10.208 0.326
55.1134 11.229 0.342
55.1339 10.771 0.335
55.1543 11.771 0.350
55.1748 12.240 0.357
55.1953 12.198 0.356
55.2157 11.479 0.346
55.2362 11.240 0.342
55.2566 10.542 0.331
55.2771 10.469 0.330
55.2976 9.615 0.316
55.3180 9.271 0.311
55.3385 9.583 0.316
55.3590 8.667 0.300
55.3794 8.708 0.301
55.3999 7.865 0.286
55.4203 7.865 0.286
55.4408 7.500 0.280
55.4613 6.938 0.269
55.4817 7.073 0.271
55.5022 6.344 0.257
55.5227 6.438 0.259
55.5431 6.771 0.266
55.5636 6.115 0.252
55.5840 5.885 0.248
55.6045 6.344 0.257
55.6250 6.344 0.257
55.6454 6.135 0.253
55.6659 6.000 0.250
55.6864 5.365 0.236
55.7068 5.917 0.248
55.7273 5.458 0.238
55.7477 5.708 0.244
55.7682 5.865 0.247
55.7887 5.813 0.246
55.8091 5.875 0.247
55.8296 5.948 0.249
55.8501 5.875 0.247
55.8705 5.969 0.249
55.8910 6.094 0.252
55.9115 5.781 0.245
55.9319 6.240 0.255
55.9524 6.396 0.258
55.9728 6.406 0.258
55.9933 6.271 0.256
56.0138 6.354 0.257
56.0342 6.667 0.264
56.0547 6.167 0.253
56.0752 6.156 0.253
56.0956 6.521 0.261
56.1161 6.563 0.261
56.1365 6.781 0.266
56.1570 6.958 0.269
56.1775 6.854 0.267
56.1979 6.188 0.254
56.2184 6.406 0.258
56.2389 6.406 0.258
56.2593 6.510 0.260
56.2798 6.344 0.257
56.3002 6.698 0.264
56.3207 5.938 0.249
56.3412 6.458 0.259
56.3616 5.958 0.249
56.3821 5.865 0.247
56.4026 5.865 0.247
56.4230 5.531 0.240
56.4435 5.198 0.233
56.4639 5.406 0.237
56.4844 6.240 0.255
56.5049 5.604 0.242
56.5253 6.083 0.252
56.5458 6.260 0.255
56.5663 5.844 0.247
56.5867 6.667 0.264
56.6072 6.677 0.264
56.6276 6.927 0.269
56.6481 7.240 0.275
56.6686 7.510 0.280
56.6890 7.031 0.271
56.7095 6.542 0.261
56.7300 6.135 0.253
56.7504 6.813 0.266
56.7709 6.427 0.259
56.7914 5.792 0.246
56.8118 5.979 0.250
56.8323 6.333 0.257
56.8527 5.688 0.243
56.8732 5.521 0.240
56.8937 5.365 0.236
56.9141 5.104 0.231
56.9346 5.167 0.232
56.9551 4.792 0.223
56.9755 5.219 0.233
56.9960 4.365 0.213
57.0164 4.490 0.216
57.0369 5.104 0.231
57.0574 4.500 0.217
57.0778 4.625 0.219
57.0983 4.667 0.220
57.1188 4.417 0.214
57.1392 4.792 0.223
57.1597 4.490 0.216
57.1801 4.750 0.222
57.2006 4.969 0.228
57.2211 5.010 0.228
57.2415 4.833 0.224
57.2620 4.583 0.219
57.2825 4.729 0.222
57.3029 4.667 0.220
57.3234 5.177 0.232
57.3438 5.125 0.231
57.3643 4.656 0.220
57.3848 4.979 0.228
57.4052 5.219 0.233
57.4257 5.260 0.234
57.4462 4.667 0.220
57.4666 4.979 0.228
57.4871 5.083 0.230
57.5075 5.198 0.233
57.5280 5.552 0.240
57.5485 5.167 0.232
57.5689 5.375 0.237
57.5894 5.198 0.233
57.6099 5.031 0.229
57.6303 5.031 0.229
57.6508 4.844 0.225
57.6713 5.021 0.229
57.6917 5.094 0.230
57.7122 4.896 0.226
57.7326 5.281 0.235
57.7531 5.063 0.230
57.7736 4.927 0.227
57.7940 5.156 0.232
57.8145 4.948 0.227
57.8350 4.938 0.227
57.8554 5.115 0.231
57.8759 4.927 0.227
57.8963 4.646 0.220
57.9168 4.990 0.228
57.9373 5.073 0.230
57.9577 5.448 0.238
57.9782 5.094 0.230
57.9987 4.948 0.227
58.0191 4.615 0.219
58.0396 5.302 0.235
58.0600 4.854 0.225
58.0805 5.188 0.232
58.1010 5.740 0.245
58.1214 5.208 0.233
58.1419 5.281 0.235
58.1624 5.323 0.235
58.1828 5.281 0.235
58.2033 5.844 0.247
58.2237 5.448 0.238
58.2442 5.813 0.246
58.2647 6.073 0.252
58.2851 5.344 0.236
58.3056 5.521 0.240
58.3261 5.302 0.235
58.3465 4.948 0.227
58.3670 5.719 0.244
58.3874 5.656 0.243
58.4079 5.188 0.232
58.4284 6.167 0.253
58.4488 6.188 0.254
58.4693 6.313 0.256
58.4898 6.385 0.258
58.5102 6.583 0.262
58.5307 6.031 0.251
58.5512 5.875 0.247
58.5716 5.667 0.243
58.5921 5.938 0.249
58.6125 5.521 0.240
58.6330 5.667 0.243
58.6535 5.833 0.247
58.6739 5.281 0.235
58.6944 5.479 0.239
58.7149 5.479 0.239
58.7353 4.958 0.227
58.7558 5.094 0.230
58.7762 4.885 0.226
58.7967 5.448 0.238
58.8172 5.115 0.231
58.8376 4.875 0.225
58.8581 5.542 0.240
58.8786 4.906 0.226
58.8990 4.906 0.226
58.9195 5.177 0.232
58.9399 5.208 0.233
58.9604 5.063 0.230
58.9809 4.917 0.226
59.0013 5.073 0.230
59.0218 4.802 0.224
59.0423 5.135 0.231
59.0627 5.281 0.235
59.0832 5.260 0.234
59.1036 4.760 0.223
59.1241 5.198 0.233
59.1446 4.979 0.228
59.1650 5.052 0.229
59.1855 5.083 0.230
59.2060 5.271 0.234
59.2264 4.948 0.227
59.2469 4.823 0.224
59.2674 4.729 0.222
59.2878 4.667 0.220
59.3083 4.396 0.214
59.3287 4.542 0.218
59.3492 4.813 0.224
59.3697 4.427 0.215
59.3901 4.323 0.212
59.4106 4.125 0.207
59.4311 4.875 0.225
59.4515 4.802 0.224
59.4720 4.417 0.214
59.4924 4.000 0.204
59.5129 3.760 0.198
59.5334 4.302 0.212
59.5538 4.323 0.212
59.5743 4.271 0.211
59.5948 4.646 0.220
59.6152 4.063 0.206
59.6357 4.427 0.215
59.6561 4.083 0.206
59.6766 4.479 0.216
59.6971 4.167 0.208
59.7175 4.208 0.209
59.7380 4.625 0.219
59.7585 4.365 0.213
59.7789 4.521 0.217
59.7994 4.542 0.218
59.8198 4.698 0.221
59.8403 4.365 0.213
59.8608 4.552 0.218
59.8812 4.500 0.217
59.9017 4.104 0.207
59.9222 4.760 0.223
59.9426 4.438 0.215
59.9631 4.354 0.213
59.9835 4.604 0.219
60.0040 4.625 0.219
60.0245 4.333 0.212
60.0449 4.250 0.210
60.0654 4.396 0.214
60.0859 4.229 0.210
60.1063 4.250 0.210
60.1268 4.313 0.212
60.1473 4.094 0.207
60.1677 3.865 0.201
60.1882 4.313 0.212
60.2086 4.135 0.208
60.2291 4.510 0.217
60.2496 4.500 0.217
60.2700 4.240 0.210
60.2905 4.490 0.216
60.3110 4.396 0.214
60.3314 3.833 0.200
60.3519 4.292 0.211
60.3723 3.917 0.202
60.3928 4.063 0.206
60.4133 4.031 0.205
60.4337 4.250 0.210
60.4542 4.208 0.209
60.4747 4.063 0.206
60.4951 4.250 0.210
60.5156 4.250 0.210
60.5360 4.323 0.212
60.5565 4.167 0.208
60.5770 4.281 0.211
60.5974 3.531 0.192
60.6179 4.052 0.205
60.6384 4.563 0.218
60.6588 4.615 0.219
60.6793 4.104 0.207
60.6997 4.458 0.216
60.7202 4.135 0.208
60.7407 4.333 0.212
60.7611 4.583 0.219
60.7816 4.260 0.211
60.8021 4.510 0.217
60.8225 4.260 0.211
60.8430 4.313 0.212
60.8634 4.323 0.212
60.8839 4.354 0.213
60.9044 4.531 0.217
60.9248 4.906 0.226
60.9453 4.677 0.221
60.9658 4.729 0.222
60.9862 4.896 0.226
61.0067 4.510 0.217
61.0272 4.771 0.223
61.0476 4.552 0.218
61.0681 4.844 0.225
61.0885 4.615 0.219
61.1090 4.458 0.216
61.1295 4.396 0.214
61.1499 4.677 0.221
61.1704 4.938 0.227
61.1909 4.583 0.219
61.2113 4.594 0.219
61.2318 4.896 0.226
61.2522 4.500 0.217
61.2727 4.781 0.223
61.2932 5.417 0.238
61.3136 5.510 0.240
61.3341 5.833 0.247
61.3546 5.365 0.236
61.3750 5.292 0.235
61.3955 4.667 0.220
61.4159 4.458 0.216
61.4364 4.802 0.224
61.4569 4.625 0.219
61.4773 4.958 0.227
61.4978 4.667 0.220
61.5183 4.948 0.227
61.5387 4.573 0.218
61.5592 4.729 0.222
61.5796 4.146 0.208
61.6001 4.344 0.213
61.6206 4.156 0.208
61.6410 4.156 0.208
61.6615 4.125 0.207
61.6820 4.448 0.215
61.7024 4.198 0.209
61.7229 3.938 0.203
61.7433 3.521 0.192
61.7638 3.948 0.203
61.7843 4.094 0.207
61.8047 4.167 0.208
61.8252 4.281 0.211
61.8457 3.927 0.202
61.8661 4.260 0.211
61.8866 4.427 0.215
61.9071 4.167 0.208
61.9275 4.156 0.208
61.9480 4.063 0.206
61.9684 4.208 0.209
61.9889 4.375 0.213
62.0094 3.948 0.203
62.0298 4.365 0.213
62.0503 4.198 0.209
62.0708 4.479 0.216
62.0912 4.344 0.213
62.1117 4.073 0.206
62.1321 4.385 0.214
62.1526 4.240 0.210
62.1731 4.010 0.204
62.1935 4.010 0.204
62.2140 4.063 0.206
62.2345 4.354 0.213
62.2549 4.021 0.205
62.2754 4.417 0.214
62.2958 4.104 0.207
62.3163 3.854 0.200
62.3368 4.177 0.209
62.3572 4.167 0.208
62.3777 3.813 0.199
62.3982 3.760 0.198
62.4186 3.781 0.198
62.4391 3.802 0.199
62.4595 3.750 0.198
62.4800 3.854 0.200
62.5005 3.542 0.192
62.5209 3.656 0.195
62.5414 3.490 0.191
62.5619 3.677 0.196
62.5823 3.885 0.201
62.6028 3.406 0.188
62.6232 4.073 0.206
62.6437 3.688 0.196
62.6642 3.677 0.196
62.6846 3.844 0.200
62.7051 3.583 0.193
62.7256 4.073 0.206
62.7460 3.740 0.197
62.7665 3.833 0.200
62.7870 3.427 0.189
62.8074 3.854 0.200
62.8279 3.458 0.190
62.8483 3.802 0.199
62.8688 3.844 0.200
62.8893 3.646 0.195
62.9097 3.719 0.197
62.9302 3.781 0.198
62.9507 3.563 0.193
62.9711 3.542 0.192
62.9916 3.771 0.198
63.0120 3.740 0.197
63.0325 3.781 0.198
63.0530 4.135 0.208
63.0734 4.021 0.205
63.0939 3.573 0.193
63.1144 4.052 0.205
63.1348 3.729 0.197
63.1553 3.865 0.201
63.1757 3.760 0.198
63.1962 3.875 0.201
63.2167 4.042 0.205
63.2371 4.073 0.206
63.2576 3.833 0.200
63.2781 3.656 0.195
63.2985 4.063 0.206
63.3190 4.313 0.212
63.3394 4.156 0.208
63.3599 4.323 0.212
63.3804 4.125 0.207
63.4008 4.323 0.212
63.4213 4.802 0.224
63.4418 4.427 0.215
63.4622 4.969 0.228
63.4827 4.573 0.218
63.5032 4.708 0.221
63.5236 4.448 0.215
63.5441 4.792 0.223
63.5645 4.625 0.219
63.5850 5.125 0.231
63.6055 5.031 0.229
63.6259 5.156 0.232
63.6464 5.010 0.228
63.6669 5.021 0.229
63.6873 4.698 0.221
63.7078 5.302 0.235
63.7282 4.740 0.222
63.7487 4.635 0.220
63.7692 4.729 0.222
63.7896 4.833 0.224
63.8101 5.104 0.231
63.8306 5.281 0.235
63.8510 5.198 0.233
63.8715 4.969 0.228
63.8919 4.688 0.221
63.9124 4.635 0.220
63.9329 4.906 0.226
63.9533 4.969 0.228
63.9738 4.885 0.226
63.9943 4.938 0.227
64.0147 4.615 0.219
64.0352 4.365 0.213
64.0556 4.469 0.216
64.0761 4.635 0.220
64.0966 4.906 0.226
64.1170 4.688 0.221
64.1375 4.521 0.217
64.1580 4.125 0.207
64.1784 4.490 0.216
64.1989 4.521 0.217
64.2193 4.417 0.214
64.2398 4.583 0.219
64.2603 4.250 0.210
64.2807 4.635 0.220
64.3012 4.667 0.220
64.3217 4.385 0.214
64.3421 4.198 0.209
64.3626 4.688 0.221
64.3831 4.281 0.211
64.4035 4.375 0.213
64.4240 4.781 0.223
64.4444 4.635 0.220
64.4649 4.875 0.225
64.4854 4.385 0.214
64.5058 4.854 0.225
64.5263 5.021 0.229
64.5468 4.552 0.218
64.5672 5.333 0.236
64.5877 5.438 0.238
64.6081 4.885 0.226
64.6286 5.563 0.241
64.6491 5.333 0.236
64.6695 5.229 0.233
64.6900 5.177 0.232
64.7105 5.990 0.250
64.7309 5.375 0.237
64.7514 5.573 0.241
64.7718 5.208 0.233
64.7923 4.938 0.227
64.8128 4.885 0.226
64.8332 4.698 0.221
64.8537 4.823 0.224
64.8742 4.896 0.226
64.8946 5.073 0.230
64.9151 4.552 0.218
64.9355 4.354 0.213
64.9560 4.188 0.209
64.9765 4.219 0.210
64.9969 4.604 0.219
65.0174 4.271 0.211
65.0379 4.375 0.213
65.0583 4.417 0.214
65.0788 4.292 0.211
65.0992 4.073 0.206
65.1197 4.365 0.213
65.1402 4.385 0.214
65.1606 3.854 0.200
65.1811 4.073 0.206
65.2016 4.219 0.210
65.2220 4.823 0.224
65.2425 4.052 0.205
65.2630 3.938 0.203
65.2834 4.135 0.208
65.3039 4.542 0.218
65.3243 4.333 0.212
65.3448 4.146 0.208
65.3653 4.094 0.207
65.3857 4.094 0.207
65.4062 4.198 0.209
65.4267 4.521 0.217
65.4471 4.292 0.211
65.4676 4.021 0.205
65.4880 4.000 0.204
65.5085 4.469 0.216
65.5290 4.073 0.206
65.5494 4.563 0.218
65.5699 4.594 0.219
65.5904 4.438 0.215
65.6108 4.125 0.207
65.6313 4.531 0.217
65.6517 4.417 0.214
65.6722 4.375 0.213
65.6927 4.646 0.220
65.7131 4.448 0.215
65.7336 4.583 0.219
65.7541 4.021 0.205
65.7745 4.323 0.212
65.7950 4.135 0.208
65.8154 4.156 0.208
65.8359 4.125 0.207
65.8564 4.115 0.207
65.8768 4.198 0.209
65.8973 4.229 0.210
65.9178 4.063 0.206
65.9382 4.010 0.204
65.9587 4.229 0.210
65.9791 4.010 0.204
65.9996 4.094 0.207
66.0201 3.802 0.199
66.0405 4.219 0.210
66.0610 4.573 0.218
66.0815 4.219 0.210
66.1019 4.177 0.209
66.1224 4.250 0.210
66.1429 4.052 0.205
66.1633 4.000 0.204
66.1838 4.115 0.207
66.2042 3.927 0.202
66.2247 3.729 0.197
66.2452 3.990 0.204
66.2656 4.000 0.204
66.2861 3.938 0.203
66.3066 4.135 0.208
66.3270 4.156 0.208
66.3475 3.656 0.195
66.3679 3.677 0.196
66.3884 3.583 0.193
66.4089 3.823 0.200
66.4293 3.646 0.195
66.4498 4.052 0.205
66.4703 3.906 0.202
66.4907 3.667 0.195
66.5112 3.833 0.200
66.5316 4.010 0.204
66.5521 3.781 0.198
66.5726 3.833 0.200
66.5930 3.979 0.204
66.6135 4.083 0.206
66.6340 3.865 0.201
66.6544 3.531 0.192
66.6749 3.740 0.197
66.6953 3.781 0.198
66.7158 3.750 0.198
66.7363 3.750 0.198
66.7567 3.896 0.201
66.7772 3.542 0.192
66.7977 3.865 0.201
66.8181 3.646 0.195
66.8386 3.896 0.201
66.8590 3.875 0.201
66.8795 3.604 0.194
66.9000 4.083 0.206
66.9204 3.969 0.203
66.9409 3.792 0.199
66.9614 4.260 0.211
66.9818 3.802 0.199
67.0023 4.042 0.205
67.0228 4.115 0.207
67.0432 4.208 0.209
67.0637 4.302 0.212
67.0841 4.792 0.223
67.1046 4.427 0.215
67.1251 4.750 0.222
67.1455 4.604 0.219
67.1660 4.781 0.223
67.1865 4.135 0.208
67.2069 4.323 0.212
67.2274 4.635 0.220
67.2478 4.792 0.223
67.2683 4.323 0.212
67.2888 4.260 0.211
67.3092 4.688 0.221
67.3297 4.260 0.211
67.3502 4.542 0.218
67.3706 4.708 0.221
67.3911 4.354 0.213
67.4115 4.510 0.217
67.4320 4.479 0.216
67.4525 4.021 0.205
67.4729 4.729 0.222
67.4934 4.219 0.210
67.5139 4.396 0.214
67.5343 4.302 0.212
67.5548 4.302 0.212
67.5752 3.927 0.202
67.5957 4.698 0.221
67.6162 4.281 0.211
67.6366 3.844 0.200
67.6571 3.875 0.201
67.6776 3.885 0.201
67.6980 3.896 0.201
67.7185 4.073 0.206
67.7389 4.135 0.208
67.7594 4.188 0.209
67.7799 4.188 0.209
67.8003 4.135 0.208
67.8208 4.167 0.208
67.8413 3.854 0.200
67.8617 3.865 0.201
67.8822 4.083 0.206
67.9027 4.208 0.209
67.9231 4.021 0.205
67.9436 4.052 0.205
67.9640 3.927 0.202
67.9845 3.760 0.198
68.0050 3.990 0.204
68.0254 3.844 0.200
68.0459 3.885 0.201
68.0664 4.042 0.205
68.0868 3.708 0.197
68.1073 4.083 0.206
68.1277 3.979 0.204
68.1482 3.958 0.203
68.1687 4.271 0.211
68.1891 3.531 0.192
68.2096 3.417 0.189
68.2301 3.917 0.202
68.2505 3.844 0.200
68.2710 3.844 0.200
68.2914 3.865 0.201
68.3119 3.844 0.200
68.3324 3.969 0.203
68.3528 4.052 0.205
68.3733 3.938 0.203
68.3938 3.740 0.197
68.4142 3.781 0.198
68.4347 3.844 0.200
68.4551 3.760 0.198
68.4756 3.771 0.198
68.4961 3.802 0.199
68.5165 3.750 0.198
68.5370 3.927 0.202
68.5575 3.813 0.199
68.5779 3.479 0.190
68.5984 3.625 0.194
68.6189 3.500 0.191
68.6393 3.708 0.197
68.6598 3.438 0.189
68.6802 3.552 0.192
68.7007 3.760 0.198
68.7212 3.771 0.198
68.7416 3.667 0.195
68.7621 3.667 0.195
68.7826 3.646 0.195
68.8030 3.635 0.195
68.8235 3.448 0.190
68.8439 3.729 0.197
68.8644 3.594 0.193
68.8849 3.229 0.183
68.9053 3.760 0.198
68.9258 3.521 0.192
68.9463 4.042 0.205
68.9667 3.646 0.195
68.9872 3.958 0.203
69.0076 4.052 0.205
69.0281 4.010 0.204
69.0486 3.917 0.202
69.0690 3.906 0.202
69.0895 3.531 0.192
69.1100 3.823 0.200
69.1304 3.552 0.192
69.1509 3.490 0.191
69.1713 3.917 0.202
69.1918 4.104 0.207
69.2123 3.781 0.198
69.2327 3.792 0.199
69.2532 3.896 0.201
69.2737 3.885 0.201
69.2941 3.552 0.192
69.3146 3.385 0.188
69.3350 3.563 0.193
69.3555 3.771 0.198
69.3760 3.500 0.191
69.3964 3.542 0.192
69.4169 3.677 0.196
69.4374 3.740 0.197
69.4578 3.667 0.195
69.4783 3.417 0.189
69.4988 3.240 0.184
69.5192 3.375 0.188
69.5397 3.490 0.191
69.5601 2.781 0.170
69.5806 3.563 0.193
69.6011 3.438 0.189
69.6215 3.510 0.191
69.6420 3.490 0.191
69.6625 3.313 0.186
69.6829 3.302 0.185
69.7034 3.448 0.190
69.7238 3.563 0.193
69.7443 3.479 0.190
69.7648 3.531 0.192
69.7852 3.052 0.178
69.8057 3.510 0.191
69.8262 3.333 0.186
69.8466 3.198 0.183
69.8671 3.458 0.190
69.8875 3.146 0.181
69.9080 3.365 0.187
69.9285 3.375 0.188
69.9489 3.500 0.191
69.9694 3.760 0.198
69.9899 3.667 0.195
70.0103 3.521 0.192
70.0308 3.625 0.194
70.0512 3.521 0.192
70.0717 3.729 0.197
70.0922 3.708 0.197
70.1126 3.479 0.190
70.1331 3.500 0.191
70.1536 3.625 0.194
70.1740 3.823 0.200
70.1945 3.333 0.186
70.2149 3.302 0.185
70.2354 3.573 0.193
70.2559 3.760 0.198
70.2763 3.427 0.189
70.2968 3.490 0.191
70.3173 3.146 0.181
70.3377 3.208 0.183
70.3582 3.469 0.190
70.3787 3.604 0.194
70.3991 3.500 0.191
70.4196 3.104 0.180
70.4400 3.354 0.187
70.4605 3.396 0.188
70.4810 3.396 0.188
70.5014 3.354 0.187
70.5219 2.979 0.176
70.5424 3.406 0.188
70.5628 3.406 0.188
70.5833 3.354 0.187
70.6037 3.469 0.190
70.6242 3.375 0.188
70.6447 3.240 0.184
70.6651 3.313 0.186
70.6856 3.229 0.183
70.7061 3.375 0.188
70.7265 3.698 0.196
70.7470 3.219 0.183
70.7674 3.198 0.183
70.7879 3.604 0.194
70.8084 3.375 0.188
70.8288 2.885 0.173
70.8493 3.219 0.183
70.8698 3.385 0.188
70.8902 3.760 0.198
70.9107 3.354 0.187
70.9311 3.271 0.185
70.9516 3.344 0.187
70.9721 3.573 0.193
70.9925 3.406 0.188
71.0130 3.104 0.180
71.0335 3.031 0.178
71.0539 3.333 0.186
71.0744 3.156 0.181
71.0948 3.198 0.183
71.1153 3.313 0.186
71.1358 3.406 0.188
71.1562 3.094 0.180
71.1767 3.365 0.187
71.1972 3.396 0.188
71.2176 3.073 0.179
71.2381 3.219 0.183
71.2586 3.229 0.183
71.2790 2.958 0.176
71.2995 3.000 0.177
71.3199 2.938 0.175
71.3404 2.823 0.171
71.3609 3.115 0.180
71.3813 3.052 0.178
71.4018 3.198 0.183
71.4223 3.083 0.179
71.4427 2.875 0.173
71.4632 3.135 0.181
71.4836 3.510 0.191
71.5041 3.469 0.190
71.5246 3.073 0.179
71.5450 3.344 0.187
71.5655 3.188 0.182
71.5860 3.167 0.182
71.6064 3.042 0.178
71.6269 3.365 0.187
71.6473 2.906 0.174
71.6678 2.979 0.176
71.6883 3.250 0.184
71.7087 3.010 0.177
71.7292 3.177 0.182
71.7497 2.792 0.171
71.7701 3.292 0.185
71.7906 3.188 0.182
71.8110 3.135 0.181
71.8315 2.760 0.170
71.8520 2.948 0.175
71.8724 2.854 0.172
71.8929 2.979 0.176
71.9134 3.115 0.180
71.9338 3.083 0.179
71.9543 3.010 0.177
71.9747 3.521 0.192
71.9952 3.052 0.178
72.0157 2.938 0.175
72.0361 3.260 0.184
72.0566 3.354 0.187
72.0771 3.021 0.177
72.0975 3.167 0.182
72.1180 3.469 0.190
72.1385 3.531 0.192
72.1589 3.625 0.194
72.1794 3.625 0.194
72.1998 3.615 0.194
72.2203 3.594 0.193
72.2408 3.521 0.192
72.2612 3.135 0.181
72.2817 3.542 0.192
72.3022 3.677 0.196
72.3226 2.990 0.176
72.3431 3.531 0.192
72.3635 3.417 0.189
72.3840 3.125 0.180
72.4045 2.917 0.174
72.4249 3.167 0.182
72.4454 3.615 0.194
72.4659 3.177 0.182
72.4863 3.219 0.183
72.5068 2.969 0.176
72.5272 2.938 0.175
72.5477 2.969 0.176
72.5682 2.635 0.166
72.5886 3.052 0.178
72.6091 2.656 0.166
72.6296 3.073 0.179
72.6500 3.198 0.183
72.6705 2.896 0.174
72.6909 2.948 0.175
72.7114 2.948 0.175
72.7319 3.073 0.179
72.7523 2.656 0.166
72.7728 2.833 0.172
72.7933 2.667 0.167
72.8137 2.979 0.176
72.8342 3.104 0.180
72.8547 2.927 0.175
72.8751 2.958 0.176
72.8956 3.281 0.185
72.9160 2.917 0.174
72.9365 2.958 0.176
72.9570 3.031 0.178
72.9774 2.781 0.170
72.9979 2.667 0.167
73.0184 2.896 0.174
73.0388 3.125 0.180
73.0593 2.990 0.176
73.0797 2.542 0.163
73.1002 3.260 0.184
73.1207 3.000 0.177
73.1411 3.198 0.183
73.1616 2.927 0.175
73.1821 2.854 0.172
73.2025 2.906 0.174
73.2230 2.906 0.174
73.2434 3.177 0.182
73.2639 2.708 0.168
73.2844 2.948 0.175
73.3048 2.760 0.170
73.3253 3.219 0.183
73.3458 2.604 0.165
73.3662 2.844 0.172
73.3867 3.250 0.184
73.4071 2.688 0.167
73.4276 2.802 0.171
73.4481 2.781 0.170
73.4685 2.833 0.172
73.4890 2.760 0.170
73.5095 2.833 0.172
73.5299 2.802 0.171
73.5504 2.750 0.169
73.5708 3.000 0.177
73.5913 2.833 0.172
73.6118 2.792 0.171
73.6322 2.854 0.172
73.6527 2.885 0.173
73.6732 2.896 0.174
73.6936 2.990 0.176
73.7141 2.604 0.165
73.7346 2.594 0.164
73.7550 2.781 0.170
73.7755 2.927 0.175
73.7959 2.563 0.163
73.8164 2.760 0.170
73.8369 2.781 0.170
73.8573 2.979 0.176
73.8778 3.135 0.181
73.8983 2.917 0.174
73.9187 2.958 0.176
73.9392 3.313 0.186
73.9596 3.406 0.188
73.9801 3.146 0.181
74.0006 2.750 0.169
74.0210 3.313 0.186
74.0415 2.573 0.164
74.0620 2.844 0.172
74.0824 2.969 0.176
74.1029 2.719 0.168
74.1233 2.958 0.176
74.1438 3.396 0.188
74.1643 3.208 0.183
74.1847 2.792 0.171
74.2052 2.969 0.176
74.2257 2.917 0.174
74.2461 2.635 0.166
74.2666 2.698 0.168
74.2870 2.708 0.168
74.3075 2.833 0.172
74.3280 2.656 0.166
74.3484 2.573 0.164
74.3689 2.594 0.164
74.3894 2.563 0.163
74.4098 2.604 0.165
74.4303 2.833 0.172
74.4507 2.427 0.159
74.4712 2.583 0.164
74.4917 2.510 0.162
74.5121 2.906 0.174
74.5326 2.792 0.171
74.5531 2.625 0.165
74.5735 2.688 0.167
74.5940 2.583 0.164
74.6145 2.552 0.163
74.6349 2.813 0.171
74.6554 2.302 0.155
74.6758 2.542 0.163
74.6963 2.625 0.165
74.7168 2.667 0.167
74.7372 2.448 0.160
74.7577 2.375 0.157
74.7782 2.646 0.166
74.7986 2.542 0.163
74.8191 2.521 0.162
74.8395 2.917 0.174
74.8600 2.656 0.166
74.8805 2.583 0.164
74.9009 2.604 0.165
74.9214 2.729 0.169
74.9419 3.042 0.178
74.9623 2.688 0.167
74.9828 2.802 0.171
75.0032 2.740 0.169
75.0237 2.583 0.164
75.0442 2.625 0.165
75.0646 3.031 0.178
75.0851 2.938 0.175
75.1056 3.063 0.179
75.1260 2.583 0.164
75.1465 2.729 0.169
75.1669 2.427 0.159
75.1874 2.927 0.175
75.2079 2.750 0.169
75.2283 2.594 0.164
75.2488 3.021 0.177
75.2693 3.063 0.179
75.2897 2.792 0.171
75.3102 2.667 0.167
75.3306 3.031 0.178
75.3511 2.771 0.170
75.3716 2.469 0.160
75.3920 2.719 0.168
75.4125 2.677 0.167
75.4330 2.833 0.172
75.4534 2.927 0.175
75.4739 2.917 0.174
75.4944 2.760 0.170
75.5148 2.938 0.175
75.5353 2.875 0.173
75.5557 2.656 0.166
75.5762 2.677 0.167
75.5967 3.021 0.177
75.6171 2.802 0.171
75.6376 2.958 0.176
75.6581 2.948 0.175
75.6785 3.083 0.179
75.6990 3.375 0.188
75.7194 3.219 0.183
75.7399 2.927 0.175
75.7604 3.385 0.188
75.7808 3.156 0.181
75.8013 3.740 0.197
75.8218 3.135 0.181
75.8422 3.167 0.182
75.8627 3.125 0.180
75.8831 3.229 0.183
75.9036 2.833 0.172
75.9241 3.240 0.184
75.9445 3.010 0.177
75.9650 3.167 0.182
75.9855 3.646 0.195
76.0059 3.208 0.183
76.0264 3.354 0.187
76.0468 3.365 0.187
76.0673 3.229 0.183
76.0878 3.250 0.184
76.1082 2.854 0.172
76.1287 3.094 0.180
76.1492 3.385 0.188
76.1696 2.854 0.172
76.1901 2.917 0.174
76.2105 3.083 0.179
76.2310 2.698 0.168
76.2515 3.281 0.185
76.2719 2.865 0.173
76.2924 2.865 0.173
76.3129 2.865 0.173
76.3333 2.875 0.173
76.3538 2.813 0.171
76.3743 2.708 0.168
76.3947 2.927 0.175
76.4152 2.865 0.173
76.4356 2.542 0.163
76.4561 2.854 0.172
76.4766 2.771 0.170
76.4970 2.990 0.176
76.5175 2.708 0.168
76.5380 2.969 0.176
76.5584 2.865 0.173
76.5789 2.656 0.166
76.5993 2.740 0.169
76.6198 2.938 0.175
76.6403 2.917 0.174
76.6607 2.896 0.174
76.6812 2.719 0.168
76.7017 2.781 0.170
76.7221 2.646 0.166
76.7426 2.490 0.161
76.7630 2.385 0.158
76.7835 2.698 0.168
76.8040 2.708 0.168
76.8244 2.760 0.170
76.8449 3.073 0.179
76.8654 2.750 0.169
76.8858 2.854 0.172
76.9063 2.563 0.163
76.9267 2.854 0.172
76.9472 2.875 0.173
76.9677 2.969 0.176
76.9881 2.906 0.174
77.0086 2.448 0.160
77.0291 2.854 0.172
77.0495 2.760 0.170
77.0700 2.490 0.161
77.0905 2.958 0.176
77.1109 2.521 0.162
77.1314 2.938 0.175
77.1518 2.823 0.171
77.1723 2.656 0.166
77.1928 2.719 0.168
77.2132 2.771 0.170
77.2337 2.938 0.175
77.2542 2.896 0.174
77.2746 2.833 0.172
77.2951 2.667 0.167
77.3155 2.448 0.160
77.3360 2.927 0.175
77.3565 2.875 0.173
77.3769 3.031 0.178
77.3974 2.885 0.173
77.4179 2.729 0.169
77.4383 2.948 0.175
77.4588 2.573 0.164
77.4792 2.573 0.164
77.4997 3.021 0.177
77.5202 2.938 0.175
77.5406 2.760 0.170
77.5611 3.250 0.184
77.5816 2.802 0.171
77.6020 2.875 0.173
77.6225 2.885 0.173
77.6429 2.927 0.175
77.6634 3.052 0.178
77.6839 2.604 0.165
77.7043 2.760 0.170
77.7248 3.135 0.181
77.7453 3.177 0.182
77.7657 3.427 0.189
77.7862 3.073 0.179
77.8066 3.240 0.184
77.8271 3.302 0.185
77.8476 2.688 0.167
77.8680 3.010 0.177
77.8885 3.365 0.187
77.9090 3.208 0.183
77.9294 3.156 0.181
77.9499 3.198 0.183
77.9704 2.885 0.173
77.9908 3.198 0.183
78.0113 3.083 0.179
78.0317 2.906 0.174
78.0522 2.958 0.176
78.0727 2.823 0.171
78.0931 3.042 0.178
78.1136 3.052 0.178
78.1341 2.802 0.171
78.1545 2.865 0.173
78.1750 3.031 0.178
78.1954 3.156 0.181
78.2159 2.917 0.174
78.2364 2.625 0.165
78.2568 2.667 0.167
78.2773 2.844 0.172
78.2978 2.802 0.171
78.3182 2.698 0.168
78.3387 2.833 0.172
78.3591 2.833 0.172
78.3796 2.885 0.173
78.4001 3.208 0.183
78.4205 2.917 0.174
78.4410 2.948 0.175
78.4615 2.813 0.171
78.4819 2.854 0.172
78.5024 3.344 0.187
78.5228 3.000 0.177
78.5433 3.052 0.178
78.5638 3.083 0.179
78.5842 3.042 0.178
78.6047 2.792 0.171
78.6252 2.708 0.168
78.6456 3.333 0.186
78.6661 3.375 0.188
78.6865 2.958 0.176
78.7070 3.188 0.182
78.7275 3.010 0.177
78.7479 2.760 0.170
78.7684 2.760 0.170
78.7889 2.885 0.173
78.8093 3.115 0.180
78.8298 3.208 0.183
78.8503 2.917 0.174
78.8707 3.052 0.178
78.8912 3.104 0.180
78.9116 3.177 0.182
78.9321 3.000 0.177
78.9526 2.823 0.171
78.9730 2.708 0.168
78.9935 2.854 0.172
79.0140 2.719 0.168
79.0344 2.583 0.164
79.0549 2.802 0.171
79.0753 2.865 0.173
79.0958 2.833 0.172
79.1163 2.854 0.172
79.1367 3.115 0.180
79.1572 2.740 0.169
79.1777 3.219 0.183
79.1981 2.771 0.170
79.2186 2.927 0.175
79.2390 2.604 0.165
79.2595 3.073 0.179
79.2800 2.844 0.172
79.3004 2.969 0.176
79.3209 2.896 0.174
79.3414 2.875 0.173
79.3618 2.771 0.170
79.3823 2.729 0.169
79.4027 2.979 0.176
79.4232 3.208 0.183
79.4437 3.010 0.177
79.4641 3.313 0.186
79.4846 2.885 0.173
79.5051 2.729 0.169
79.5255 2.948 0.175
79.5460 2.990 0.176
79.5664 2.958 0.176
79.5869 3.063 0.179
79.6074 2.927 0.175
79.6278 2.990 0.176
79.6483 2.979 0.176
79.6688 3.125 0.180
79.6892 2.885 0.173
79.7097 3.323 0.186
79.7302 2.594 0.164
79.7506 3.156 0.181
79.7711 3.167 0.182
79.7915 2.760 0.170
79.8120 2.771 0.170
79.8325 3.365 0.187
79.8529 3.042 0.178
79.8734 3.063 0.179
79.8939 2.906 0.174
79.9143 2.844 0.172
79.9348 2.854 0.172
79.9552 3.177 0.182
79.9757 2.802 0.171
79.9962 2.750 0.169
