'Id: "" Comment: "" Operator: "Lab Manager" Anode: "Cu" Scantype: "Locked Coupled" TimePerStep: "96" X: "0" Y: "0" Z: "0" 
5.0000 22.729 0.487
5.0205 23.938 0.499
5.0409 23.583 0.496
5.0614 23.531 0.495
5.0819 24.115 0.501
5.1023 22.417 0.483
5.1228 22.740 0.487
5.1432 22.917 0.489
5.1637 23.260 0.492
5.1842 22.667 0.486
5.2046 22.958 0.489
5.2251 22.552 0.485
5.2456 22.844 0.488
5.2660 22.260 0.482
5.2865 22.083 0.480
5.3069 22.396 0.483
5.3274 22.542 0.485
5.3479 21.958 0.478
5.3683 23.333 0.493
5.3888 22.083 0.480
5.4093 22.979 0.489
5.4297 23.156 0.491
5.4502 22.927 0.489
5.4706 22.208 0.481
5.4911 21.552 0.474
5.5116 20.656 0.464
5.5320 22.271 0.482
5.5525 21.104 0.469
5.5730 22.635 0.486
5.5934 21.042 0.468
5.6139 21.375 0.472
5.6343 21.250 0.470
5.6548 21.833 0.477
5.6753 21.771 0.476
5.6957 22.260 0.482
5.7162 21.354 0.472
5.7367 21.021 0.468
5.7571 20.531 0.462
5.7776 20.698 0.464
5.7980 20.229 0.459
5.8185 20.729 0.465
5.8390 20.542 0.463
5.8594 20.823 0.466
5.8799 20.031 0.457
5.9004 20.073 0.457
5.9208 20.677 0.464
5.9413 20.219 0.459
5.9618 19.896 0.455
5.9822 20.604 0.463
6.0027 21.063 0.468
6.0231 20.333 0.460
6.0436 20.781 0.465
6.0641 20.333 0.460
6.0845 20.906 0.467
6.1050 19.688 0.453
6.1255 20.250 0.459
6.1459 20.677 0.464
6.1664 20.000 0.456
6.1868 20.208 0.459
6.2073 20.344 0.460
6.2278 20.313 0.460
6.2482 19.396 0.449
6.2687 20.479 0.462
6.2892 20.938 0.467
6.3096 20.563 0.463
6.3301 19.813 0.454
6.3505 19.729 0.453
6.3710 19.552 0.451
6.3915 19.604 0.452
6.4119 20.615 0.463
6.4324 19.948 0.456
6.4529 19.740 0.453
6.4733 19.969 0.456
6.4938 20.156 0.458
6.5142 20.177 0.458
6.5347 20.073 0.457
6.5552 19.896 0.455
6.5756 19.677 0.453
6.5961 19.969 0.456
6.6166 19.521 0.451
6.6370 19.365 0.449
6.6575 19.635 0.452
6.6779 19.979 0.456
6.6984 19.927 0.456
6.7189 18.854 0.443
6.7393 19.938 0.456
6.7598 19.635 0.452
6.7803 19.406 0.450
6.8007 20.500 0.462
6.8212 19.615 0.452
6.8417 20.177 0.458
6.8621 20.188 0.459
6.8826 20.063 0.457
6.9030 20.375 0.461
6.9235 19.542 0.451
6.9440 20.708 0.464
6.9644 20.792 0.465
6.9849 20.146 0.458
7.0054 19.052 0.445
7.0258 20.115 0.458
7.0463 20.490 0.462
7.0667 19.802 0.454
7.0872 19.542 0.451
7.1077 20.052 0.457
7.1281 19.417 0.450
7.1486 19.823 0.454
7.1691 19.052 0.445
7.1895 19.250 0.448
7.2100 19.677 0.453
7.2304 19.979 0.456
7.2509 19.469 0.450
7.2714 19.604 0.452
7.2918 18.229 0.436
7.3123 19.979 0.456
7.3328 20.229 0.459
7.3532 19.875 0.455
7.3737 18.792 0.442
7.3941 19.667 0.453
7.4146 20.583 0.463
7.4351 19.979 0.456
7.4555 20.146 0.458
7.4760 20.135 0.458
7.4965 20.021 0.457
7.5169 19.813 0.454
7.5374 19.865 0.455
7.5579 20.063 0.457
7.5783 20.333 0.460
7.5988 19.750 0.454
7.6192 19.635 0.452
7.6397 20.094 0.458
7.6602 19.406 0.450
7.6806 20.490 0.462
7.7011 20.448 0.462
7.7216 19.500 0.451
7.7420 20.281 0.460
7.7625 19.948 0.456
7.7829 20.021 0.457
7.8034 20.177 0.458
7.8239 20.333 0.460
7.8443 19.406 0.450
7.8648 19.688 0.453
7.8853 20.281 0.460
7.9057 20.365 0.461
7.9262 20.302 0.460
7.9466 20.708 0.464
7.9671 20.833 0.466
7.9876 20.500 0.462
8.0080 20.063 0.457
8.0285 21.094 0.469
8.0490 21.021 0.468
8.0694 20.792 0.465
8.0899 20.344 0.460
8.1103 20.542 0.463
8.1308 20.427 0.461
8.1513 20.927 0.467
8.1717 21.021 0.468
8.1922 20.813 0.466
8.2127 20.250 0.459
8.2331 20.375 0.461
8.2536 20.344 0.460
8.2740 19.750 0.454
8.2945 21.146 0.469
8.3150 21.229 0.470
8.3354 21.135 0.469
8.3559 19.802 0.454
8.3764 20.177 0.458
8.3968 20.813 0.466
8.4173 19.813 0.454
8.4378 20.510 0.462
8.4582 20.354 0.460
8.4787 21.385 0.472
8.4991 21.052 0.468
8.5196 21.146 0.469
8.5401 19.906 0.455
8.5605 20.365 0.461
8.5810 20.875 0.466
8.6015 21.313 0.471
8.6219 21.083 0.469
8.6424 21.104 0.469
8.6628 20.635 0.464
8.6833 21.375 0.472
8.7038 20.438 0.461
8.7242 20.354 0.460
8.7447 20.958 0.467
8.7652 21.115 0.469
8.7856 21.188 0.470
8.8061 21.604 0.474
8.8265 21.604 0.474
8.8470 21.469 0.473
8.8675 21.042 0.468
8.8879 22.917 0.489
8.9084 22.552 0.485
8.9289 22.313 0.482
8.9493 22.719 0.486
8.9698 23.417 0.494
8.9902 23.375 0.493
9.0107 22.281 0.482
9.0312 22.729 0.487
9.0516 23.792 0.498
9.0721 23.656 0.496
9.0926 24.010 0.500
9.1130 24.510 0.505
9.1335 24.979 0.510
9.1539 24.781 0.508
9.1744 25.740 0.518
9.1949 26.906 0.529
9.2153 27.531 0.536
9.2358 28.990 0.550
9.2563 30.740 0.566
9.2767 33.240 0.588
9.2972 33.313 0.589
9.3177 32.354 0.581
9.3381 33.115 0.587
9.3586 33.781 0.593
9.3790 32.656 0.583
9.3995 31.760 0.575
9.4200 33.802 0.593
9.4404 34.219 0.597
9.4609 34.385 0.598
9.4814 33.979 0.595
9.5018 35.667 0.610
9.5223 36.948 0.620
9.5427 38.458 0.633
9.5632 40.313 0.648
9.5837 41.563 0.658
9.6041 44.625 0.682
9.6246 46.406 0.695
9.6451 50.698 0.727
9.6655 52.625 0.740
9.6860 57.813 0.776
9.7064 62.667 0.808
9.7269 68.302 0.843
9.7474 76.896 0.895
9.7678 90.094 0.969
9.7883 111.000 1.075
9.8088 140.469 1.210
9.8292 187.010 1.396
9.8497 259.646 1.645
9.8701 370.146 1.964
9.8906 497.719 2.277
9.9111 540.219 2.372
9.9315 432.885 2.123
9.9520 283.365 1.718
9.9725 186.583 1.394
9.9929 135.813 1.189
10.0134 112.010 1.080
10.0338 95.771 0.999
10.0543 84.979 0.941
10.0748 77.417 0.898
10.0952 71.823 0.865
10.1157 66.125 0.830
10.1362 60.927 0.797
10.1566 56.104 0.764
10.1771 51.917 0.735
10.1976 48.802 0.713
10.2180 46.792 0.698
10.2385 44.188 0.678
10.2589 42.021 0.662
10.2794 41.490 0.657
10.2999 39.271 0.640
10.3203 40.042 0.646
10.3408 38.031 0.629
10.3613 36.135 0.614
10.3817 36.156 0.614
10.4022 34.083 0.596
10.4226 34.854 0.603
10.4431 33.792 0.593
10.4636 33.833 0.594
10.4840 33.604 0.592
10.5045 32.656 0.583
10.5250 32.646 0.583
10.5454 31.667 0.574
10.5659 31.208 0.570
10.5863 30.083 0.560
10.6068 29.906 0.558
10.6273 29.833 0.557
10.6477 30.219 0.561
10.6682 30.240 0.561
10.6887 30.313 0.562
10.7091 29.365 0.553
10.7296 27.958 0.540
10.7500 28.490 0.545
10.7705 26.448 0.525
10.7910 26.750 0.528
10.8114 26.604 0.526
10.8319 24.990 0.510
10.8524 23.677 0.497
10.8728 23.646 0.496
10.8933 23.188 0.491
10.9137 22.083 0.480
10.9342 21.885 0.477
10.9547 20.917 0.467
10.9751 22.073 0.480
10.9956 20.677 0.464
11.0161 20.094 0.458
11.0365 20.240 0.459
11.0570 19.833 0.455
11.0775 20.479 0.462
11.0979 19.521 0.451
11.1184 19.542 0.451
11.1388 19.781 0.454
11.1593 19.156 0.447
11.1798 18.927 0.444
11.2002 19.865 0.455
11.2207 18.635 0.441
11.2412 19.427 0.450
11.2616 18.417 0.438
11.2821 18.958 0.444
11.3025 18.833 0.443
11.3230 18.729 0.442
11.3435 18.667 0.441
11.3639 17.563 0.428
11.3844 17.573 0.428
11.4049 17.146 0.423
11.4253 17.781 0.430
11.4458 18.083 0.434
11.4662 17.656 0.429
11.4867 18.031 0.433
11.5072 17.333 0.425
11.5276 17.615 0.428
11.5481 16.740 0.418
11.5686 17.552 0.428
11.5890 17.167 0.423
11.6095 16.719 0.417
11.6299 17.333 0.425
11.6504 17.031 0.421
11.6709 17.208 0.423
11.6913 16.229 0.411
11.7118 16.188 0.411
11.7323 16.625 0.416
11.7527 16.604 0.416
11.7732 16.344 0.413
11.7937 16.385 0.413
11.8141 15.917 0.407
11.8346 16.146 0.410
11.8550 16.521 0.415
11.8755 16.698 0.417
11.8960 15.635 0.404
11.9164 16.292 0.412
11.9369 15.240 0.398
11.9574 16.604 0.416
11.9778 16.115 0.410
11.9983 15.156 0.397
12.0187 15.521 0.402
12.0392 16.594 0.416
12.0597 14.854 0.393
12.0801 15.396 0.400
12.1006 14.781 0.392
12.1211 15.813 0.406
12.1415 15.365 0.400
12.1620 15.479 0.402
12.1824 14.875 0.394
12.2029 15.521 0.402
12.2234 15.073 0.396
12.2438 15.406 0.401
12.2643 15.094 0.397
12.2848 15.260 0.399
12.3052 14.583 0.390
12.3257 14.594 0.390
12.3461 15.427 0.401
12.3666 14.948 0.395
12.3871 14.896 0.394
12.4075 14.760 0.392
12.4280 14.563 0.389
12.4485 14.135 0.384
12.4689 14.125 0.384
12.4894 14.469 0.388
12.5098 14.281 0.386
12.5303 14.667 0.391
12.5508 14.125 0.384
12.5712 14.333 0.386
12.5917 14.448 0.388
12.6122 13.844 0.380
12.6326 13.990 0.382
12.6531 14.333 0.386
12.6736 13.448 0.374
12.6940 13.969 0.381
12.7145 13.521 0.375
12.7349 14.479 0.388
12.7554 13.688 0.378
12.7759 13.813 0.379
12.7963 13.813 0.379
12.8168 13.427 0.374
12.8373 13.385 0.373
12.8577 13.479 0.375
12.8782 13.417 0.374
12.8986 13.438 0.374
12.9191 13.146 0.370
12.9396 12.792 0.365
12.9600 13.792 0.379
12.9805 12.865 0.366
13.0010 12.823 0.365
13.0214 12.833 0.366
13.0419 12.927 0.367
13.0623 12.865 0.366
13.0828 12.958 0.367
13.1033 13.021 0.368
13.1237 12.625 0.363
13.1442 12.927 0.367
13.1647 12.583 0.362
13.1851 12.438 0.360
13.2056 12.552 0.362
13.2260 12.281 0.358
13.2465 12.563 0.362
13.2670 11.406 0.345
13.2874 12.594 0.362
13.3079 13.010 0.368
13.3284 12.990 0.368
13.3488 12.760 0.365
13.3693 12.177 0.356
13.3897 12.625 0.363
13.4102 12.438 0.360
13.4307 12.646 0.363
13.4511 11.458 0.345
13.4716 12.667 0.363
13.4921 12.542 0.361
13.5125 12.167 0.356
13.5330 11.813 0.351
13.5535 12.240 0.357
13.5739 12.323 0.358
13.5944 11.667 0.349
13.6148 11.750 0.350
13.6353 11.938 0.353
13.6558 11.844 0.351
13.6762 11.260 0.342
13.6967 11.635 0.348
13.7172 11.677 0.349
13.7376 11.135 0.341
13.7581 11.906 0.352
13.7785 11.698 0.349
13.7990 10.938 0.338
13.8195 11.000 0.339
13.8399 11.875 0.352
13.8604 11.250 0.342
13.8809 11.469 0.346
13.9013 11.635 0.348
13.9218 10.990 0.338
13.9422 11.500 0.346
13.9627 11.156 0.341
13.9832 10.469 0.330
14.0036 11.240 0.342
14.0241 11.188 0.341
14.0446 11.135 0.341
14.0650 11.344 0.344
14.0855 11.396 0.345
14.1059 11.240 0.342
14.1264 11.438 0.345
14.1469 10.677 0.333
14.1673 11.344 0.344
14.1878 11.135 0.341
14.2083 10.948 0.338
14.2287 11.115 0.340
14.2492 10.781 0.335
14.2696 11.469 0.346
14.2901 10.646 0.333
14.3106 11.354 0.344
14.3310 11.208 0.342
14.3515 11.135 0.341
14.3720 10.813 0.336
14.3924 10.958 0.338
14.4129 10.458 0.330
14.4334 9.948 0.322
14.4538 10.188 0.326
14.4743 10.802 0.335
14.4947 10.385 0.329
14.5152 10.781 0.335
14.5357 10.708 0.334
14.5561 11.135 0.341
14.5766 10.531 0.331
14.5971 11.042 0.339
14.6175 10.375 0.329
14.6380 10.792 0.335
14.6584 10.750 0.335
14.6789 10.698 0.334
14.6994 10.052 0.324
14.7198 10.260 0.327
14.7403 10.750 0.335
14.7608 10.729 0.334
14.7812 9.573 0.316
14.8017 9.958 0.322
14.8221 10.563 0.332
14.8426 10.333 0.328
14.8631 10.198 0.326
14.8835 10.083 0.324
14.9040 10.073 0.324
14.9245 10.990 0.338
14.9449 9.823 0.320
14.9654 9.979 0.322
14.9858 10.479 0.330
15.0063 10.323 0.328
15.0268 10.417 0.329
15.0472 10.354 0.328
15.0677 10.677 0.333
15.0882 9.813 0.320
15.1086 10.260 0.327
15.1291 9.823 0.320
15.1495 9.948 0.322
15.1700 10.042 0.323
15.1905 10.615 0.333
15.2109 9.969 0.322
15.2314 9.813 0.320
15.2519 10.438 0.330
15.2723 10.115 0.325
15.2928 10.125 0.325
15.3133 9.490 0.314
15.3337 9.740 0.319
15.3542 10.354 0.328
15.3746 9.177 0.309
15.3951 9.833 0.320
15.4156 10.135 0.325
15.4360 10.240 0.327
15.4565 9.458 0.314
15.4770 9.844 0.320
15.4974 10.417 0.329
15.5179 9.583 0.316
15.5383 9.979 0.322
15.5588 9.417 0.313
15.5793 9.750 0.319
15.5997 9.896 0.321
15.6202 9.521 0.315
15.6407 10.115 0.325
15.6611 9.781 0.319
15.6816 9.646 0.317
15.7020 10.229 0.326
15.7225 10.146 0.325
15.7430 10.219 0.326
15.7634 9.792 0.319
15.7839 10.427 0.330
15.8044 9.531 0.315
15.8248 10.198 0.326
15.8453 10.115 0.325
15.8657 9.958 0.322
15.8862 10.552 0.332
15.9067 10.458 0.330
15.9271 9.813 0.320
15.9476 9.594 0.316
15.9681 9.469 0.314
15.9885 10.021 0.323
16.0090 10.417 0.329
16.0295 10.594 0.332
16.0499 9.823 0.320
16.0704 9.833 0.320
16.0908 9.292 0.311
16.1113 9.531 0.315
16.1318 9.698 0.318
16.1522 9.802 0.320
16.1727 10.000 0.323
16.1932 9.802 0.320
16.2136 9.656 0.317
16.2341 9.479 0.314
16.2545 10.313 0.328
16.2750 9.375 0.313
16.2955 9.385 0.313
16.3159 9.854 0.320
16.3364 9.542 0.315
16.3569 9.823 0.320
16.3773 8.958 0.305
16.3978 9.281 0.311
16.4182 9.083 0.308
16.4387 9.708 0.318
16.4592 10.083 0.324
16.4796 9.427 0.313
16.5001 9.719 0.318
16.5206 10.177 0.326
16.5410 9.990 0.323
16.5615 9.635 0.317
16.5819 9.281 0.311
16.6024 9.094 0.308
16.6229 9.615 0.316
16.6433 9.938 0.322
16.6638 9.625 0.317
16.6843 10.125 0.325
16.7047 9.760 0.319
16.7252 9.500 0.315
16.7456 10.010 0.323
16.7661 9.938 0.322
16.7866 9.802 0.320
16.8070 10.135 0.325
16.8275 10.188 0.326
16.8480 10.188 0.326
16.8684 9.979 0.322
16.8889 10.271 0.327
16.9094 9.594 0.316
16.9298 9.833 0.320
16.9503 11.510 0.346
16.9707 9.948 0.322
16.9912 10.521 0.331
17.0117 9.813 0.320
17.0321 9.625 0.317
17.0526 10.604 0.332
17.0731 10.396 0.329
17.0935 9.906 0.321
17.1140 10.240 0.327
17.1344 10.740 0.334
17.1549 11.344 0.344
17.1754 10.760 0.335
17.1958 10.698 0.334
17.2163 10.208 0.326
17.2368 10.552 0.332
17.2572 10.438 0.330
17.2777 10.188 0.326
17.2981 11.052 0.339
17.3186 10.771 0.335
17.3391 11.208 0.342
17.3595 10.948 0.338
17.3800 10.375 0.329
17.4005 10.938 0.338
17.4209 10.906 0.337
17.4414 10.885 0.337
17.4618 11.885 0.352
17.4823 11.667 0.349
17.5028 12.063 0.354
17.5232 11.583 0.347
17.5437 11.792 0.350
17.5642 12.031 0.354
17.5846 12.354 0.359
17.6051 12.333 0.358
17.6255 12.240 0.357
17.6460 11.917 0.352
17.6665 13.104 0.369
17.6869 12.448 0.360
17.7074 13.469 0.375
17.7279 12.875 0.366
17.7483 13.708 0.378
17.7688 14.583 0.390
17.7893 14.563 0.389
17.8097 15.125 0.397
17.8302 14.667 0.391
17.8506 14.750 0.392
17.8711 15.448 0.401
17.8916 15.917 0.407
17.9120 16.458 0.414
17.9325 16.406 0.413
17.9530 16.896 0.420
17.9734 16.802 0.418
17.9939 17.229 0.424
18.0143 18.104 0.434
18.0348 20.240 0.459
18.0553 20.500 0.462
18.0757 20.802 0.465
18.0962 21.281 0.471
18.1167 20.792 0.465
18.1371 20.042 0.457
18.1576 19.021 0.445
18.1780 18.906 0.444
18.1985 19.063 0.446
18.2190 19.448 0.450
18.2394 19.167 0.447
18.2599 18.583 0.440
18.2804 18.885 0.444
18.3008 19.531 0.451
18.3213 19.667 0.453
18.3417 19.625 0.452
18.3622 19.323 0.449
18.3827 20.625 0.464
18.4031 20.344 0.460
18.4236 19.823 0.454
18.4441 20.865 0.466
18.4645 20.708 0.464
18.4850 20.604 0.463
18.5054 20.563 0.463
18.5259 20.313 0.460
18.5464 20.281 0.460
18.5668 21.042 0.468
18.5873 21.615 0.475
18.6078 21.240 0.470
18.6282 21.156 0.469
18.6487 21.740 0.476
18.6692 21.521 0.473
18.6896 21.063 0.468
18.7101 20.906 0.467
18.7305 20.260 0.459
18.7510 20.271 0.460
18.7715 20.719 0.465
18.7919 20.344 0.460
18.8124 20.063 0.457
18.8329 19.052 0.445
18.8533 19.354 0.449
18.8738 18.771 0.442
18.8942 18.135 0.435
18.9147 17.490 0.427
18.9352 17.302 0.425
18.9556 17.240 0.424
18.9761 17.031 0.421
18.9966 16.542 0.415
19.0170 16.073 0.409
19.0375 15.125 0.397
19.0579 15.469 0.401
19.0784 14.375 0.387
19.0989 15.646 0.404
19.1193 14.573 0.390
19.1398 14.802 0.393
19.1603 14.938 0.394
19.1807 14.667 0.391
19.2012 14.521 0.389
19.2216 15.021 0.396
19.2421 15.396 0.400
19.2626 15.469 0.401
19.2830 14.458 0.388
19.3035 14.948 0.395
19.3240 14.417 0.388
19.3444 14.271 0.386
19.3649 14.677 0.391
19.3853 14.302 0.386
19.4058 14.677 0.391
19.4263 15.010 0.395
19.4467 15.146 0.397
19.4672 15.313 0.399
19.4877 15.635 0.404
19.5081 15.281 0.399
19.5286 15.417 0.401
19.5491 16.740 0.418
19.5695 16.708 0.417
19.5900 17.292 0.424
19.6104 18.406 0.438
19.6309 19.688 0.453
19.6514 19.635 0.452
19.6718 22.229 0.481
19.6923 22.563 0.485
19.7128 24.708 0.507
19.7332 29.115 0.551
19.7537 32.510 0.582
19.7741 41.406 0.657
19.7946 54.438 0.753
19.8151 75.469 0.887
19.8355 108.073 1.061
19.8560 128.396 1.156
19.8765 116.167 1.100
19.8969 99.406 1.018
19.9174 80.823 0.918
19.9378 59.802 0.789
19.9583 45.885 0.691
19.9788 38.063 0.630
19.9992 33.167 0.588
20.0197 30.104 0.560
20.0402 28.250 0.542
20.0606 26.927 0.530
20.0811 26.802 0.528
20.1015 24.344 0.504
20.1220 24.198 0.502
20.1425 22.594 0.485
20.1629 21.615 0.475
20.1834 21.531 0.474
20.2039 22.490 0.484
20.2243 23.260 0.492
20.2448 23.781 0.498
20.2653 23.250 0.492
20.2857 23.406 0.494
20.3062 24.365 0.504
20.3266 24.479 0.505
20.3471 23.760 0.497
20.3676 23.958 0.500
20.3880 24.406 0.504
20.4085 23.865 0.499
20.4290 23.188 0.491
20.4494 23.604 0.496
20.4699 23.802 0.498
20.4903 22.250 0.481
20.5108 21.417 0.472
20.5313 22.396 0.483
20.5517 21.458 0.473
20.5722 20.448 0.462
20.5927 19.427 0.450
20.6131 19.094 0.446
20.6336 18.115 0.434
20.6540 17.479 0.427
20.6745 17.510 0.427
20.6950 16.531 0.415
20.7154 17.188 0.423
20.7359 16.177 0.411
20.7564 14.792 0.393
20.7768 14.594 0.390
20.7973 14.583 0.390
20.8177 14.438 0.388
20.8382 13.917 0.381
20.8587 13.927 0.381
20.8791 13.604 0.376
20.8996 13.688 0.378
20.9201 14.448 0.388
20.9405 13.302 0.372
20.9610 13.313 0.372
20.9814 12.500 0.361
21.0019 12.865 0.366
21.0224 13.135 0.370
21.0428 12.760 0.365
21.0633 12.896 0.367
21.0838 13.229 0.371
21.1042 13.083 0.369
21.1247 12.583 0.362
21.1452 12.240 0.357
21.1656 12.385 0.359
21.1861 12.365 0.359
21.2065 12.667 0.363
21.2270 12.594 0.362
21.2475 12.458 0.360
21.2679 11.344 0.344
21.2884 12.354 0.359
21.3089 12.323 0.358
21.3293 12.094 0.355
21.3498 11.385 0.344
21.3702 12.042 0.354
21.3907 11.813 0.351
21.4112 12.396 0.359
21.4316 12.031 0.354
21.4521 11.708 0.349
21.4726 11.667 0.349
21.4930 12.594 0.362
21.5135 12.083 0.355
21.5339 12.219 0.357
21.5544 12.229 0.357
21.5749 12.208 0.357
21.5953 12.604 0.362
21.6158 11.938 0.353
21.6363 12.219 0.357
21.6567 11.625 0.348
21.6772 12.667 0.363
21.6976 12.563 0.362
21.7181 12.760 0.365
21.7386 12.073 0.355
21.7590 12.094 0.355
21.7795 12.031 0.354
21.8000 13.021 0.368
21.8204 12.177 0.356
21.8409 12.000 0.354
21.8613 13.021 0.368
21.8818 11.958 0.353
21.9023 12.750 0.364
21.9227 13.073 0.369
21.9432 12.781 0.365
21.9637 13.063 0.369
21.9841 13.313 0.372
22.0046 14.104 0.383
22.0251 14.250 0.385
22.0455 15.010 0.395
22.0660 16.906 0.420
22.0864 18.885 0.444
22.1069 22.521 0.484
22.1274 26.469 0.525
22.1478 34.083 0.596
22.1683 39.750 0.643
22.1888 45.490 0.688
22.2092 42.208 0.663
22.2297 36.542 0.617
22.2501 33.010 0.586
22.2706 28.250 0.542
22.2911 21.667 0.475
22.3115 19.250 0.448
22.3320 17.802 0.431
22.3525 16.448 0.414
22.3729 15.063 0.396
22.3934 14.313 0.386
22.4138 13.781 0.379
22.4343 12.802 0.365
22.4548 12.688 0.364
22.4752 12.385 0.359
22.4957 11.708 0.349
22.5162 11.958 0.353
22.5366 11.427 0.345
22.5571 11.063 0.339
22.5775 10.708 0.334
22.5980 11.406 0.345
22.6185 9.990 0.323
22.6389 10.510 0.331
22.6594 10.125 0.325
22.6799 11.208 0.342
22.7003 10.229 0.326
22.7208 10.885 0.337
22.7412 10.229 0.326
22.7617 10.385 0.329
22.7822 10.094 0.324
22.8026 9.656 0.317
22.8231 9.979 0.322
22.8436 9.760 0.319
22.8640 9.906 0.321
22.8845 9.625 0.317
22.9050 9.479 0.314
22.9254 9.104 0.308
22.9459 9.510 0.315
22.9663 9.333 0.312
22.9868 9.406 0.313
23.0073 9.385 0.313
23.0277 9.656 0.317
23.0482 9.521 0.315
23.0687 9.667 0.317
23.0891 9.729 0.318
23.1096 9.021 0.307
23.1300 9.208 0.310
23.1505 9.469 0.314
23.1710 9.198 0.310
23.1914 10.313 0.328
23.2119 9.344 0.312
23.2324 9.844 0.320
23.2528 9.708 0.318
23.2733 8.625 0.300
23.2937 8.927 0.305
23.3142 9.042 0.307
23.3347 9.417 0.313
23.3551 9.104 0.308
23.3756 8.750 0.302
23.3961 9.625 0.317
23.4165 9.302 0.311
23.4370 9.010 0.306
23.4574 9.521 0.315
23.4779 9.573 0.316
23.4984 9.469 0.314
23.5188 9.385 0.313
23.5393 9.885 0.321
23.5598 10.281 0.327
23.5802 10.990 0.338
23.6007 11.458 0.345
23.6211 13.594 0.376
23.6416 15.198 0.398
23.6621 15.229 0.398
23.6825 15.323 0.400
23.7030 15.010 0.395
23.7235 14.792 0.393
23.7439 13.896 0.380
23.7644 12.229 0.357
23.7849 10.792 0.335
23.8053 9.698 0.318
23.8258 9.094 0.308
23.8462 9.177 0.309
23.8667 9.094 0.308
23.8872 8.604 0.299
23.9076 8.865 0.304
23.9281 9.552 0.315
23.9486 9.115 0.308
23.9690 8.438 0.296
23.9895 8.115 0.291
24.0099 8.698 0.301
24.0304 8.521 0.298
24.0509 8.292 0.294
24.0713 8.979 0.306
24.0918 8.635 0.300
24.1123 8.969 0.306
24.1327 8.708 0.301
24.1532 8.438 0.296
24.1736 8.458 0.297
24.1941 8.083 0.290
24.2146 8.896 0.304
24.2350 9.469 0.314
24.2555 9.167 0.309
24.2760 10.146 0.325
24.2964 10.896 0.337
24.3169 10.844 0.336
24.3373 11.344 0.344
24.3578 10.781 0.335
24.3783 10.615 0.333
24.3987 10.250 0.327
24.4192 9.865 0.321
24.4397 9.313 0.311
24.4601 8.615 0.300
24.4806 8.802 0.303
24.5011 8.323 0.294
24.5215 7.396 0.278
24.5420 8.240 0.293
24.5624 8.177 0.292
24.5829 7.677 0.283
24.6034 8.052 0.290
24.6238 7.469 0.279
24.6443 7.875 0.286
24.6648 8.031 0.289
24.6852 7.969 0.288
24.7057 7.802 0.285
24.7261 7.542 0.280
24.7466 7.688 0.283
24.7671 8.198 0.292
24.7875 8.167 0.292
24.8080 7.198 0.274
24.8285 7.979 0.288
24.8489 7.094 0.272
24.8694 8.188 0.292
24.8898 7.604 0.281
24.9103 7.708 0.283
24.9308 7.875 0.286
24.9512 8.531 0.298
24.9717 7.323 0.276
24.9922 8.500 0.298
25.0126 7.948 0.288
25.0331 7.438 0.278
25.0535 7.781 0.285
25.0740 7.635 0.282
25.0945 7.500 0.280
25.1149 8.240 0.293
25.1354 7.563 0.281
25.1559 7.875 0.286
25.1763 7.573 0.281
25.1968 7.885 0.287
25.2172 7.854 0.286
25.2377 7.354 0.277
25.2582 7.438 0.278
25.2786 7.260 0.275
25.2991 7.260 0.275
25.3196 7.698 0.283
25.3400 7.698 0.283
25.3605 7.469 0.279
25.3810 7.646 0.282
25.4014 7.313 0.276
25.4219 7.323 0.276
25.4423 7.771 0.285
25.4628 7.927 0.287
25.4833 7.458 0.279
25.5037 6.990 0.270
25.5242 7.396 0.278
25.5447 7.375 0.277
25.5651 7.188 0.274
25.5856 7.615 0.282
25.6060 7.792 0.285
25.6265 7.563 0.281
25.6470 7.458 0.279
25.6674 7.250 0.275
25.6879 7.313 0.276
25.7084 7.396 0.278
25.7288 7.292 0.276
25.7493 7.594 0.281
25.7697 7.354 0.277
25.7902 7.552 0.280
25.8107 7.719 0.284
25.8311 7.531 0.280
25.8516 7.833 0.286
25.8721 7.302 0.276
25.8925 7.583 0.281
25.9130 7.635 0.282
25.9334 7.896 0.287
25.9539 7.240 0.275
25.9744 7.917 0.287
25.9948 7.448 0.279
26.0153 8.094 0.290
26.0358 7.427 0.278
26.0562 7.323 0.276
26.0767 7.396 0.278
26.0971 8.073 0.290
26.1176 8.302 0.294
26.1381 7.708 0.283
26.1585 7.198 0.274
26.1790 7.500 0.280
26.1995 8.115 0.291
26.2199 7.719 0.284
26.2404 7.729 0.284
26.2609 7.781 0.285
26.2813 7.844 0.286
26.3018 7.656 0.282
26.3222 7.781 0.285
26.3427 7.104 0.272
26.3632 7.646 0.282
26.3836 7.625 0.282
26.4041 7.573 0.281
26.4246 7.813 0.285
26.4450 7.500 0.280
26.4655 7.323 0.276
26.4859 7.802 0.285
26.5064 7.448 0.279
26.5269 6.729 0.265
26.5473 7.740 0.284
26.5678 7.604 0.281
26.5883 7.198 0.274
26.6087 7.542 0.280
26.6292 7.333 0.276
26.6496 7.688 0.283
26.6701 7.833 0.286
26.6906 7.823 0.285
26.7110 8.333 0.295
26.7315 7.594 0.281
26.7520 7.271 0.275
26.7724 7.500 0.280
26.7929 7.688 0.283
26.8133 7.885 0.287
26.8338 7.656 0.282
26.8543 7.563 0.281
26.8747 7.583 0.281
26.8952 8.031 0.289
26.9157 7.333 0.276
26.9361 7.688 0.283
26.9566 8.229 0.293
26.9770 7.656 0.282
26.9975 7.323 0.276
27.0180 7.563 0.281
27.0384 7.698 0.283
27.0589 7.917 0.287
27.0794 7.344 0.277
27.0998 7.969 0.288
27.1203 8.042 0.289
27.1408 7.771 0.285
27.1612 7.615 0.282
27.1817 7.250 0.275
27.2021 7.833 0.286
27.2226 7.792 0.285
27.2431 7.573 0.281
27.2635 7.323 0.276
27.2840 7.865 0.286
27.3045 7.833 0.286
27.3249 7.375 0.277
27.3454 7.313 0.276
27.3658 7.573 0.281
27.3863 7.427 0.278
27.4068 7.833 0.286
27.4272 8.740 0.302
27.4477 8.042 0.289
27.4682 7.781 0.285
27.4886 7.656 0.282
27.5091 7.167 0.273
27.5295 7.542 0.280
27.5500 7.823 0.285
27.5705 7.615 0.282
27.5909 7.677 0.283
27.6114 6.635 0.263
27.6319 7.573 0.281
27.6523 7.708 0.283
27.6728 7.417 0.278
27.6932 7.583 0.281
27.7137 7.344 0.277
27.7342 7.438 0.278
27.7546 7.531 0.280
27.7751 7.448 0.279
27.7956 7.365 0.277
27.8160 8.073 0.290
27.8365 7.583 0.281
27.8569 7.854 0.286
27.8774 7.740 0.284
27.8979 7.667 0.283
27.9183 7.760 0.284
27.9388 7.688 0.283
27.9593 8.063 0.290
27.9797 7.792 0.285
28.0002 7.490 0.279
28.0207 7.948 0.288
28.0411 7.719 0.284
28.0616 7.271 0.275
28.0820 7.094 0.272
28.1025 6.792 0.266
28.1230 7.417 0.278
28.1434 6.969 0.269
28.1639 7.292 0.276
28.1844 7.208 0.274
28.2048 7.042 0.271
28.2253 6.729 0.265
28.2457 6.990 0.270
28.2662 7.365 0.277
28.2867 7.573 0.281
28.3071 7.448 0.279
28.3276 7.115 0.272
28.3481 7.438 0.278
28.3685 6.979 0.270
28.3890 7.354 0.277
28.4094 6.750 0.265
28.4299 7.271 0.275
28.4504 7.365 0.277
28.4708 7.177 0.273
28.4913 6.875 0.268
28.5118 7.031 0.271
28.5322 6.917 0.268
28.5527 6.802 0.266
28.5731 6.760 0.265
28.5936 6.906 0.268
28.6141 6.896 0.268
28.6345 7.240 0.275
28.6550 6.635 0.263
28.6755 7.094 0.272
28.6959 6.427 0.259
28.7164 7.052 0.271
28.7368 6.854 0.267
28.7573 7.292 0.276
28.7778 6.979 0.270
28.7982 6.563 0.261
28.8187 6.479 0.260
28.8392 6.740 0.265
28.8596 6.885 0.268
28.8801 6.865 0.267
28.9006 7.052 0.271
28.9210 6.750 0.265
28.9415 7.000 0.270
28.9619 6.729 0.265
28.9824 6.323 0.257
29.0029 6.490 0.260
29.0233 6.563 0.261
29.0438 7.042 0.271
29.0643 6.510 0.260
29.0847 6.948 0.269
29.1052 6.521 0.261
29.1256 6.406 0.258
29.1461 6.521 0.261
29.1666 6.396 0.258
29.1870 6.531 0.261
29.2075 6.604 0.262
29.2280 7.010 0.270
29.2484 6.833 0.267
29.2689 7.000 0.270
29.2893 6.708 0.264
29.3098 7.208 0.274
29.3303 7.135 0.273
29.3507 6.813 0.266
29.3712 7.281 0.275
29.3917 7.250 0.275
29.4121 7.344 0.277
29.4326 6.625 0.263
29.4530 6.271 0.256
29.4735 7.438 0.278
29.4940 6.740 0.265
29.5144 7.042 0.271
29.5349 7.156 0.273
29.5554 6.229 0.255
29.5758 6.302 0.256
29.5963 6.406 0.258
29.6168 6.646 0.263
29.6372 6.833 0.267
29.6577 6.635 0.263
29.6781 6.427 0.259
29.6986 6.552 0.261
29.7191 6.729 0.265
29.7395 6.385 0.258
29.7600 6.740 0.265
29.7805 6.844 0.267
29.8009 6.438 0.259
29.8214 6.427 0.259
29.8418 6.854 0.267
29.8623 6.385 0.258
29.8828 6.729 0.265
29.9032 6.833 0.267
29.9237 6.708 0.264
29.9442 6.563 0.261
29.9646 6.792 0.266
29.9851 6.813 0.266
30.0055 6.510 0.260
30.0260 7.073 0.271
30.0465 6.583 0.262
30.0669 7.250 0.275
30.0874 6.635 0.263
30.1079 6.469 0.260
30.1283 6.042 0.251
30.1488 6.344 0.257
30.1692 7.083 0.272
30.1897 6.417 0.259
30.2102 6.740 0.265
30.2306 5.823 0.246
30.2511 6.083 0.252
30.2716 6.156 0.253
30.2920 6.656 0.263
30.3125 6.615 0.262
30.3329 6.750 0.265
30.3534 6.229 0.255
30.3739 6.688 0.264
30.3943 6.344 0.257
30.4148 6.635 0.263
30.4353 6.344 0.257
30.4557 6.510 0.260
30.4762 6.188 0.254
30.4967 6.677 0.264
30.5171 6.896 0.268
30.5376 6.406 0.258
30.5580 6.625 0.263
30.5785 6.906 0.268
30.5990 6.646 0.263
30.6194 6.844 0.267
30.6399 7.073 0.271
30.6604 7.104 0.272
30.6808 7.333 0.276
30.7013 7.229 0.274
30.7217 7.323 0.276
30.7422 7.667 0.283
30.7627 8.135 0.291
30.7831 8.052 0.290
30.8036 7.802 0.285
30.8241 8.219 0.293
30.8445 8.583 0.299
30.8650 9.823 0.320
30.8854 9.948 0.322
30.9059 11.896 0.352
30.9264 15.271 0.399
30.9468 19.302 0.448
30.9673 27.010 0.530
30.9878 37.021 0.621
31.0082 48.510 0.711
31.0287 52.948 0.743
31.0491 48.094 0.708
31.0696 41.563 0.658
31.0901 39.906 0.645
31.1105 36.167 0.614
31.1310 27.344 0.534
31.1515 22.229 0.481
31.1719 17.167 0.423
31.1924 14.677 0.391
31.2128 12.323 0.358
31.2333 11.448 0.345
31.2538 9.990 0.323
31.2742 9.323 0.312
31.2947 8.958 0.305
31.3152 9.323 0.312
31.3356 8.125 0.291
31.3561 8.052 0.290
31.3766 7.865 0.286
31.3970 7.573 0.281
31.4175 7.375 0.277
31.4379 7.271 0.275
31.4584 7.427 0.278
31.4789 7.125 0.272
31.4993 7.583 0.281
31.5198 7.073 0.271
31.5403 7.094 0.272
31.5607 7.240 0.275
31.5812 7.292 0.276
31.6016 7.375 0.277
31.6221 7.031 0.271
31.6426 6.750 0.265
31.6630 6.875 0.268
31.6835 6.771 0.266
31.7040 6.802 0.266
31.7244 6.667 0.264
31.7449 6.469 0.260
31.7653 7.052 0.271
31.7858 6.740 0.265
31.8063 6.708 0.264
31.8267 6.979 0.270
31.8472 7.250 0.275
31.8677 7.333 0.276
31.8881 7.833 0.286
31.9086 7.375 0.277
31.9290 7.260 0.275
31.9495 7.219 0.274
31.9700 7.135 0.273
31.9904 7.938 0.288
32.0109 8.406 0.296
32.0314 7.604 0.281
32.0518 8.865 0.304
32.0723 9.031 0.307
32.0927 9.073 0.307
32.1132 8.990 0.306
32.1337 9.208 0.310
32.1541 9.094 0.308
32.1746 9.135 0.308
32.1951 8.948 0.305
32.2155 8.563 0.299
32.2360 8.250 0.293
32.2565 8.021 0.289
32.2769 8.688 0.301
32.2974 8.083 0.290
32.3178 8.229 0.293
32.3383 8.208 0.292
32.3588 8.521 0.298
32.3792 8.156 0.291
32.3997 8.771 0.302
32.4202 9.229 0.310
32.4406 9.802 0.320
32.4611 9.906 0.321
32.4815 10.448 0.330
32.5020 10.792 0.335
32.5225 11.479 0.346
32.5429 12.135 0.356
32.5634 13.969 0.381
32.5839 14.917 0.394
32.6043 18.323 0.437
32.6248 20.094 0.458
32.6452 19.990 0.456
32.6657 18.333 0.437
32.6862 17.010 0.421
32.7066 15.323 0.400
32.7271 14.938 0.394
32.7476 13.125 0.370
32.7680 11.021 0.339
32.7885 9.885 0.321
32.8089 9.365 0.312
32.8294 8.833 0.303
32.8499 8.708 0.301
32.8703 7.677 0.283
32.8908 7.781 0.285
32.9113 8.156 0.291
32.9317 7.906 0.287
32.9522 7.479 0.279
32.9726 7.885 0.287
32.9931 7.771 0.285
33.0136 7.167 0.273
33.0340 7.438 0.278
33.0545 6.979 0.270
33.0750 6.781 0.266
33.0954 6.906 0.268
33.1159 6.729 0.265
33.1364 6.719 0.265
33.1568 7.000 0.270
33.1773 6.823 0.267
33.1977 6.625 0.263
33.2182 6.552 0.261
33.2387 6.521 0.261
33.2591 6.365 0.257
33.2796 6.260 0.255
33.3001 6.219 0.255
33.3205 6.625 0.263
33.3410 6.396 0.258
33.3614 6.375 0.258
33.3819 6.667 0.264
33.4024 6.688 0.264
33.4228 6.865 0.267
33.4433 6.365 0.257
33.4638 6.052 0.251
33.4842 6.417 0.259
33.5047 6.469 0.260
33.5251 6.292 0.256
33.5456 5.854 0.247
33.5661 6.427 0.259
33.5865 6.219 0.255
33.6070 6.271 0.256
33.6275 6.146 0.253
33.6479 6.604 0.262
33.6684 6.635 0.263
33.6888 7.313 0.276
33.7093 7.365 0.277
33.7298 7.198 0.274
33.7502 7.438 0.278
33.7707 7.500 0.280
33.7912 6.792 0.266
33.8116 7.135 0.273
33.8321 7.156 0.273
33.8526 6.521 0.261
33.8730 6.563 0.261
33.8935 6.917 0.268
33.9139 6.458 0.259
33.9344 6.240 0.255
33.9549 6.510 0.260
33.9753 6.083 0.252
33.9958 6.083 0.252
34.0163 6.177 0.254
34.0367 6.354 0.257
34.0572 6.583 0.262
34.0776 6.146 0.253
34.0981 5.552 0.240
34.1186 6.115 0.252
34.1390 6.271 0.256
34.1595 6.365 0.257
34.1800 6.458 0.259
34.2004 5.740 0.245
34.2209 6.344 0.257
34.2413 6.104 0.252
34.2618 5.969 0.249
34.2823 5.792 0.246
34.3027 5.969 0.249
34.3232 5.719 0.244
34.3437 5.990 0.250
34.3641 5.729 0.244
34.3846 6.313 0.256
34.4050 6.000 0.250
34.4255 6.438 0.259
34.4460 5.979 0.250
34.4664 6.115 0.252
34.4869 6.167 0.253
34.5074 5.698 0.244
34.5278 5.917 0.248
34.5483 5.813 0.246
34.5687 5.656 0.243
34.5892 6.073 0.252
34.6097 6.354 0.257
34.6301 6.156 0.253
34.6506 6.094 0.252
34.6711 5.646 0.243
34.6915 5.958 0.249
34.7120 6.135 0.253
34.7325 5.750 0.245
34.7529 6.021 0.250
34.7734 5.875 0.247
34.7938 5.875 0.247
34.8143 6.063 0.251
34.8348 5.854 0.247
34.8552 6.271 0.256
34.8757 6.146 0.253
34.8962 6.073 0.252
34.9166 6.094 0.252
34.9371 6.104 0.252
34.9575 5.875 0.247
34.9780 5.969 0.249
34.9985 5.719 0.244
35.0189 6.010 0.250
35.0394 5.948 0.249
35.0599 5.948 0.249
35.0803 5.865 0.247
35.1008 6.052 0.251
35.1212 6.260 0.255
35.1417 6.115 0.252
35.1622 5.833 0.247
35.1826 5.750 0.245
35.2031 6.458 0.259
35.2236 6.333 0.257
35.2440 6.292 0.256
35.2645 5.844 0.247
35.2849 6.250 0.255
35.3054 5.823 0.246
35.3259 6.302 0.256
35.3463 6.646 0.263
35.3668 6.344 0.257
35.3873 6.604 0.262
35.4077 6.292 0.256
35.4282 6.208 0.254
35.4486 6.156 0.253
35.4691 6.135 0.253
35.4896 6.490 0.260
35.5100 6.219 0.255
35.5305 6.635 0.263
35.5510 6.927 0.269
35.5714 7.302 0.276
35.5919 6.948 0.269
35.6124 6.583 0.262
35.6328 6.656 0.263
35.6533 6.792 0.266
35.6737 6.594 0.262
35.6942 7.104 0.272
35.7147 6.760 0.265
35.7351 6.813 0.266
35.7556 7.063 0.271
35.7761 7.135 0.273
35.7965 7.240 0.275
35.8170 7.458 0.279
35.8374 7.240 0.275
35.8579 7.313 0.276
35.8784 7.896 0.287
35.8988 8.802 0.303
35.9193 8.188 0.292
35.9398 9.208 0.310
35.9602 9.802 0.320
35.9807 10.250 0.327
36.0011 9.635 0.317
36.0216 10.615 0.333
36.0421 11.333 0.344
36.0625 11.792 0.350
36.0830 11.594 0.348
36.1035 12.375 0.359
36.1239 13.083 0.369
36.1444 13.594 0.376
36.1648 13.271 0.372
36.1853 12.896 0.367
36.2058 13.198 0.371
36.2262 14.042 0.382
36.2467 13.365 0.373
36.2672 13.073 0.369
36.2876 13.313 0.372
36.3081 12.646 0.363
36.3285 12.833 0.366
36.3490 14.396 0.387
36.3695 14.104 0.383
36.3899 14.146 0.384
36.4104 15.010 0.395
36.4309 15.135 0.397
36.4513 15.375 0.400
36.4718 15.698 0.404
36.4923 17.146 0.423
36.5127 18.240 0.436
36.5332 20.260 0.459
36.5536 22.115 0.480
36.5741 25.729 0.518
36.5946 28.979 0.549
36.6150 29.688 0.556
36.6355 27.354 0.534
36.6560 25.594 0.516
36.6764 23.354 0.493
36.6969 22.990 0.489
36.7173 21.771 0.476
36.7378 19.490 0.451
36.7583 17.625 0.428
36.7787 16.708 0.417
36.7992 16.271 0.412
36.8197 15.469 0.401
36.8401 16.115 0.410
36.8606 16.688 0.417
36.8810 16.656 0.417
36.9015 16.865 0.419
36.9220 16.927 0.420
36.9424 17.104 0.422
36.9629 17.969 0.433
36.9834 19.802 0.454
37.0038 21.708 0.476
37.0243 24.583 0.506
37.0447 27.479 0.535
37.0652 31.115 0.569
37.0857 32.396 0.581
37.1061 33.354 0.589
37.1266 28.771 0.547
37.1471 27.781 0.538
37.1675 26.146 0.522
37.1880 24.083 0.501
37.2084 22.198 0.481
37.2289 19.427 0.450
37.2494 16.792 0.418
37.2698 15.625 0.403
37.2903 14.750 0.392
37.3108 12.958 0.367
37.3312 13.125 0.370
37.3517 12.729 0.364
37.3722 12.042 0.354
37.3926 11.750 0.350
37.4131 11.604 0.348
37.4335 11.813 0.351
37.4540 11.677 0.349
37.4745 11.760 0.350
37.4949 11.094 0.340
37.5154 11.063 0.339
37.5359 11.073 0.340
37.5563 11.125 0.340
37.5768 10.750 0.335
37.5972 11.188 0.341
37.6177 11.500 0.346
37.6382 10.448 0.330
37.6586 10.125 0.325
37.6791 11.115 0.340
37.6996 10.844 0.336
37.7200 10.656 0.333
37.7405 10.427 0.330
37.7609 10.677 0.333
37.7814 10.594 0.332
37.8019 10.385 0.329
37.8223 10.563 0.332
37.8428 10.990 0.338
37.8633 10.844 0.336
37.8837 11.833 0.351
37.9042 11.229 0.342
37.9246 11.646 0.348
37.9451 11.927 0.352
37.9656 13.354 0.373
37.9860 13.917 0.381
38.0065 14.792 0.393
38.0270 15.531 0.402
38.0474 15.333 0.400
38.0679 14.688 0.391
38.0884 14.771 0.392
38.1088 14.573 0.390
38.1293 14.021 0.382
38.1497 13.885 0.380
38.1702 13.094 0.369
38.1907 12.719 0.364
38.2111 11.771 0.350
38.2316 12.292 0.358
38.2521 11.458 0.345
38.2725 11.823 0.351
38.2930 11.917 0.352
38.3134 11.563 0.347
38.3339 11.563 0.347
38.3544 11.573 0.347
38.3748 12.260 0.357
38.3953 13.219 0.371
38.4158 14.260 0.385
38.4362 14.740 0.392
38.4567 15.896 0.407
38.4771 15.083 0.396
38.4976 14.865 0.393
38.5181 13.688 0.378
38.5385 13.833 0.380
38.5590 13.635 0.377
38.5795 12.344 0.359
38.5999 12.281 0.358
38.6204 11.198 0.342
38.6408 10.917 0.337
38.6613 9.813 0.320
38.6818 10.333 0.328
38.7022 8.990 0.306
38.7227 9.833 0.320
38.7432 9.281 0.311
38.7636 9.385 0.313
38.7841 9.208 0.310
38.8045 9.615 0.316
38.8250 8.844 0.304
38.8455 9.271 0.311
38.8659 9.031 0.307
38.8864 8.448 0.297
38.9069 9.063 0.307
38.9273 8.500 0.298
38.9478 9.177 0.309
38.9683 8.917 0.305
38.9887 8.375 0.295
39.0092 8.417 0.296
39.0296 8.854 0.304
39.0501 8.656 0.300
39.0706 9.323 0.312
39.0910 8.760 0.302
39.1115 8.292 0.294
39.1320 8.344 0.295
39.1524 9.063 0.307
39.1729 8.688 0.301
39.1933 8.250 0.293
39.2138 8.208 0.292
39.2343 8.719 0.301
39.2547 8.750 0.302
39.2752 8.521 0.298
39.2957 9.021 0.307
39.3161 8.771 0.302
39.3366 8.552 0.298
39.3570 8.365 0.295
39.3775 8.167 0.292
39.3980 8.417 0.296
39.4184 8.552 0.298
39.4389 8.375 0.295
39.4594 8.469 0.297
39.4798 8.469 0.297
39.5003 8.927 0.305
39.5207 8.240 0.293
39.5412 8.260 0.293
39.5617 8.104 0.291
39.5821 8.760 0.302
39.6026 8.750 0.302
39.6231 8.531 0.298
39.6435 8.823 0.303
39.6640 8.635 0.300
39.6844 8.802 0.303
39.7049 10.021 0.323
39.7254 9.792 0.319
39.7458 9.969 0.322
39.7663 10.969 0.338
39.7868 11.344 0.344
39.8072 11.906 0.352
39.8277 11.583 0.347
39.8482 11.115 0.340
39.8686 10.781 0.335
39.8891 10.813 0.336
39.9095 10.594 0.332
39.9300 10.573 0.332
39.9505 10.177 0.326
39.9709 8.667 0.300
39.9914 8.760 0.302
40.0119 8.760 0.302
40.0323 9.021 0.307
40.0528 8.510 0.298
40.0732 7.958 0.288
40.0937 8.698 0.301
40.1142 9.042 0.307
40.1346 8.292 0.294
40.1551 8.802 0.303
40.1756 8.396 0.296
40.1960 9.104 0.308
40.2165 8.927 0.305
40.2369 9.188 0.309
40.2574 9.854 0.320
40.2779 10.302 0.328
40.2983 11.542 0.347
40.3188 11.385 0.344
40.3393 10.865 0.336
40.3597 9.802 0.320
40.3802 9.792 0.319
40.4006 10.167 0.325
40.4211 9.500 0.315
40.4416 9.615 0.316
40.4620 9.542 0.315
40.4825 9.052 0.307
40.5030 8.865 0.304
40.5234 8.875 0.304
40.5439 8.271 0.294
40.5643 8.469 0.297
40.5848 8.729 0.302
40.6053 8.313 0.294
40.6257 8.313 0.294
40.6462 8.052 0.290
40.6667 8.573 0.299
40.6871 8.500 0.298
40.7076 7.896 0.287
40.7281 8.333 0.295
40.7485 8.208 0.292
40.7690 7.865 0.286
40.7894 7.573 0.281
40.8099 7.792 0.285
40.8304 8.219 0.293
40.8508 8.167 0.292
40.8713 7.500 0.280
40.8918 8.073 0.290
40.9122 8.010 0.289
40.9327 7.927 0.287
40.9531 8.781 0.302
40.9736 8.313 0.294
40.9941 8.906 0.305
41.0145 8.875 0.304
41.0350 8.938 0.305
41.0555 9.417 0.313
41.0759 10.635 0.333
41.0964 10.896 0.337
41.1168 12.406 0.359
41.1373 12.854 0.366
41.1578 13.427 0.374
41.1782 13.219 0.371
41.1987 11.333 0.344
41.2192 11.458 0.345
41.2396 11.292 0.343
41.2601 10.823 0.336
41.2805 9.844 0.320
41.3010 9.583 0.316
41.3215 8.427 0.296
41.3419 8.250 0.293
41.3624 8.479 0.297
41.3829 7.594 0.281
41.4033 7.729 0.284
41.4238 7.771 0.285
41.4442 7.542 0.280
41.4647 8.083 0.290
41.4852 7.760 0.284
41.5056 7.740 0.284
41.5261 8.250 0.293
41.5466 8.375 0.295
41.5670 8.177 0.292
41.5875 7.813 0.285
41.6080 7.573 0.281
41.6284 7.969 0.288
41.6489 8.490 0.297
41.6693 8.198 0.292
41.6898 7.563 0.281
41.7103 8.125 0.291
41.7307 7.563 0.281
41.7512 8.010 0.289
41.7717 7.698 0.283
41.7921 7.510 0.280
41.8126 6.729 0.265
41.8330 7.104 0.272
41.8535 6.771 0.266
41.8740 6.896 0.268
41.8944 7.146 0.273
41.9149 6.885 0.268
41.9354 6.802 0.266
41.9558 7.083 0.272
41.9763 6.990 0.270
41.9967 7.313 0.276
42.0172 6.563 0.261
42.0377 7.042 0.271
42.0581 6.958 0.269
42.0786 7.177 0.273
42.0991 6.823 0.267
42.1195 7.552 0.280
42.1400 7.292 0.276
42.1604 6.771 0.266
42.1809 6.958 0.269
42.2014 7.563 0.281
42.2218 6.792 0.266
42.2423 7.146 0.273
42.2628 7.031 0.271
42.2832 7.448 0.279
42.3037 6.958 0.269
42.3242 7.281 0.275
42.3446 6.469 0.260
42.3651 7.365 0.277
42.3855 7.479 0.279
42.4060 7.250 0.275
42.4265 7.427 0.278
42.4469 7.500 0.280
42.4674 7.625 0.282
42.4879 7.427 0.278
42.5083 7.063 0.271
42.5288 6.969 0.269
42.5492 7.313 0.276
42.5697 7.458 0.279
42.5902 7.708 0.283
42.6106 7.625 0.282
42.6311 7.573 0.281
42.6516 7.938 0.288
42.6720 7.604 0.281
42.6925 7.563 0.281
42.7129 7.927 0.287
42.7334 8.000 0.289
42.7539 7.688 0.283
42.7743 7.948 0.288
42.7948 8.219 0.293
42.8153 7.417 0.278
42.8357 7.229 0.274
42.8562 7.531 0.280
42.8766 7.625 0.282
42.8971 7.458 0.279
42.9176 7.990 0.288
42.9380 7.271 0.275
42.9585 7.073 0.271
42.9790 7.885 0.287
42.9994 7.948 0.288
43.0199 7.500 0.280
43.0403 7.448 0.279
43.0608 7.740 0.284
43.0813 8.375 0.295
43.1017 7.927 0.287
43.1222 8.052 0.290
43.1427 8.563 0.299
43.1631 9.167 0.309
43.1836 9.938 0.322
43.2041 9.781 0.319
43.2245 9.823 0.320
43.2450 10.021 0.323
43.2654 9.510 0.315
43.2859 9.802 0.320
43.3064 10.208 0.326
43.3268 9.844 0.320
43.3473 10.021 0.323
43.3678 10.552 0.332
43.3882 9.625 0.317
43.4087 10.271 0.327
43.4291 10.260 0.327
43.4496 10.688 0.334
43.4701 10.188 0.326
43.4905 11.490 0.346
43.5110 11.365 0.344
43.5315 12.573 0.362
43.5519 13.927 0.381
43.5724 15.292 0.399
43.5928 16.427 0.414
43.6133 18.115 0.434
43.6338 18.594 0.440
43.6542 20.365 0.461
43.6747 18.906 0.444
43.6952 18.479 0.439
43.7156 16.500 0.415
43.7361 15.958 0.408
43.7565 14.823 0.393
43.7770 14.521 0.389
43.7975 14.198 0.385
43.8179 11.854 0.351
43.8384 10.771 0.335
43.8589 9.927 0.322
43.8793 9.573 0.316
43.8998 8.823 0.303
43.9202 9.583 0.316
43.9407 9.010 0.306
43.9612 8.417 0.296
43.9816 8.229 0.293
44.0021 8.260 0.293
44.0226 7.740 0.284
44.0430 7.750 0.284
44.0635 7.896 0.287
44.0840 7.729 0.284
44.1044 7.375 0.277
44.1249 7.792 0.285
44.1453 7.458 0.279
44.1658 7.677 0.283
44.1863 7.292 0.276
44.2067 7.208 0.274
44.2272 7.281 0.275
44.2477 7.167 0.273
44.2681 7.188 0.274
44.2886 6.906 0.268
44.3090 7.208 0.274
44.3295 7.073 0.271
44.3500 7.021 0.270
44.3704 7.438 0.278
44.3909 6.969 0.269
44.4114 7.010 0.270
44.4318 7.094 0.272
44.4523 7.292 0.276
44.4727 7.115 0.272
44.4932 7.510 0.280
44.5137 7.031 0.271
44.5341 7.250 0.275
44.5546 6.740 0.265
44.5751 6.625 0.263
44.5955 7.188 0.274
44.6160 6.771 0.266
44.6364 6.208 0.254
44.6569 6.885 0.268
44.6774 6.833 0.267
44.6978 6.969 0.269
44.7183 6.427 0.259
44.7388 7.042 0.271
44.7592 7.240 0.275
44.7797 6.656 0.263
44.8001 7.125 0.272
44.8206 6.365 0.257
44.8411 6.531 0.261
44.8615 7.042 0.271
44.8820 6.646 0.263
44.9025 6.448 0.259
44.9229 7.073 0.271
44.9434 6.958 0.269
44.9639 6.979 0.270
44.9843 6.583 0.262
45.0048 7.073 0.271
45.0252 7.052 0.271
45.0457 6.979 0.270
45.0662 6.833 0.267
45.0866 7.365 0.277
45.1071 7.146 0.273
45.1276 7.854 0.286
45.1480 7.823 0.285
45.1685 7.844 0.286
45.1889 8.938 0.305
45.2094 8.938 0.305
45.2299 9.510 0.315
45.2503 9.802 0.320
45.2708 9.875 0.321
45.2913 9.542 0.315
45.3117 9.083 0.308
45.3322 8.771 0.302
45.3526 9.010 0.306
45.3731 9.375 0.313
45.3936 8.521 0.298
45.4140 8.104 0.291
45.4345 7.667 0.283
45.4550 7.500 0.280
45.4754 7.792 0.285
45.4959 6.823 0.267
45.5163 6.958 0.269
45.5368 6.260 0.255
45.5573 6.646 0.263
45.5777 6.260 0.255
45.5982 6.344 0.257
45.6187 7.042 0.271
45.6391 5.896 0.248
45.6596 6.333 0.257
45.6800 6.125 0.253
45.7005 6.135 0.253
45.7210 6.500 0.260
45.7414 5.833 0.247
45.7619 5.896 0.248
45.7824 6.219 0.255
45.8028 6.125 0.253
45.8233 6.479 0.260
45.8438 6.177 0.254
45.8642 5.979 0.250
45.8847 6.281 0.256
45.9051 5.719 0.244
45.9256 5.823 0.246
45.9461 6.083 0.252
45.9665 6.458 0.259
45.9870 5.729 0.244
46.0075 5.948 0.249
46.0279 5.906 0.248
46.0484 5.854 0.247
46.0688 6.000 0.250
46.0893 5.771 0.245
46.1098 5.760 0.245
46.1302 6.031 0.251
46.1507 5.729 0.244
46.1712 5.615 0.242
46.1916 6.156 0.253
46.2121 5.635 0.242
46.2325 6.031 0.251
46.2530 6.104 0.252
46.2735 5.969 0.249
46.2939 5.813 0.246
46.3144 6.521 0.261
46.3349 6.271 0.256
46.3553 5.479 0.239
46.3758 5.469 0.239
46.3962 6.281 0.256
46.4167 5.615 0.242
46.4372 5.990 0.250
46.4576 6.115 0.252
46.4781 5.854 0.247
46.4986 5.813 0.246
46.5190 5.740 0.245
46.5395 5.958 0.249
46.5600 5.865 0.247
46.5804 5.729 0.244
46.6009 5.854 0.247
46.6213 5.604 0.242
46.6418 5.604 0.242
46.6623 5.490 0.239
46.6827 6.094 0.252
46.7032 5.854 0.247
46.7237 6.031 0.251
46.7441 5.333 0.236
46.7646 6.115 0.252
46.7850 5.427 0.238
46.8055 5.563 0.241
46.8260 5.781 0.245
46.8464 5.958 0.249
46.8669 5.740 0.245
46.8874 5.771 0.245
46.9078 5.854 0.247
46.9283 5.500 0.239
46.9487 5.583 0.241
46.9692 5.427 0.238
46.9897 5.573 0.241
47.0101 5.917 0.248
47.0306 5.583 0.241
47.0511 5.646 0.243
47.0715 5.844 0.247
47.0920 5.823 0.246
47.1124 5.938 0.249
47.1329 5.958 0.249
47.1534 6.094 0.252
47.1738 5.646 0.243
47.1943 5.813 0.246
47.2148 6.177 0.254
47.2352 5.865 0.247
47.2557 6.010 0.250
47.2761 6.313 0.256
47.2966 5.844 0.247
47.3171 6.760 0.265
47.3375 6.563 0.261
47.3580 6.490 0.260
47.3785 6.417 0.259
47.3989 6.313 0.256
47.4194 6.375 0.258
47.4399 6.635 0.263
47.4603 6.740 0.265
47.4808 6.344 0.257
47.5012 7.156 0.273
47.5217 7.552 0.280
47.5422 7.438 0.278
47.5626 7.510 0.280
47.5831 8.771 0.302
47.6036 9.083 0.308
47.6240 8.844 0.304
47.6445 9.073 0.307
47.6649 8.740 0.302
47.6854 8.396 0.296
47.7059 7.823 0.285
47.7263 7.771 0.285
47.7468 7.813 0.285
47.7673 7.823 0.285
47.7877 6.844 0.267
47.8082 7.052 0.271
47.8286 6.750 0.265
47.8491 6.844 0.267
47.8696 6.531 0.261
47.8900 6.135 0.253
47.9105 6.063 0.251
47.9310 6.094 0.252
47.9514 5.958 0.249
47.9719 6.063 0.251
47.9923 5.938 0.249
48.0128 5.875 0.247
48.0333 6.229 0.255
48.0537 6.021 0.250
48.0742 6.156 0.253
48.0947 6.260 0.255
48.1151 5.792 0.246
48.1356 5.917 0.248
48.1560 5.865 0.247
48.1765 5.917 0.248
48.1970 5.615 0.242
48.2174 6.417 0.259
48.2379 6.229 0.255
48.2584 6.708 0.264
48.2788 7.177 0.273
48.2993 6.594 0.262
48.3198 7.563 0.281
48.3402 7.635 0.282
48.3607 7.385 0.277
48.3811 7.323 0.276
48.4016 7.115 0.272
48.4221 6.823 0.267
48.4425 6.906 0.268
48.4630 7.313 0.276
48.4835 7.167 0.273
48.5039 6.771 0.266
48.5244 6.521 0.261
48.5448 6.385 0.258
48.5653 6.250 0.255
48.5858 6.292 0.256
48.6062 6.365 0.257
48.6267 6.948 0.269
48.6472 6.375 0.258
48.6676 6.938 0.269
48.6881 7.323 0.276
48.7085 7.094 0.272
48.7290 7.219 0.274
48.7495 6.802 0.266
48.7699 6.750 0.265
48.7904 6.740 0.265
48.8109 6.417 0.259
48.8313 6.083 0.252
48.8518 6.740 0.265
48.8722 6.177 0.254
48.8927 6.625 0.263
48.9132 5.646 0.243
48.9336 6.531 0.261
48.9541 5.615 0.242
48.9746 6.094 0.252
48.9950 5.760 0.245
49.0155 5.896 0.248
49.0359 6.063 0.251
49.0564 5.833 0.247
49.0769 5.604 0.242
49.0973 5.729 0.244
49.1178 6.031 0.251
49.1383 5.740 0.245
49.1587 5.625 0.242
49.1792 5.604 0.242
49.1997 5.260 0.234
49.2201 5.740 0.245
49.2406 5.219 0.233
49.2610 5.625 0.242
49.2815 5.594 0.241
49.3020 6.052 0.251
49.3224 6.198 0.254
49.3429 5.354 0.236
49.3634 5.833 0.247
49.3838 5.917 0.248
49.4043 5.906 0.248
49.4247 6.000 0.250
49.4452 5.844 0.247
49.4657 5.844 0.247
49.4861 5.719 0.244
49.5066 6.698 0.264
49.5271 6.260 0.255
49.5475 6.552 0.261
49.5680 6.948 0.269
49.5884 6.792 0.266
49.6089 6.531 0.261
49.6294 6.760 0.265
49.6498 7.042 0.271
49.6703 7.615 0.282
49.6908 7.854 0.286
49.7112 8.396 0.296
49.7317 8.833 0.303
49.7521 9.115 0.308
49.7726 10.229 0.326
49.7931 11.438 0.345
49.8135 12.354 0.359
49.8340 13.583 0.376
49.8545 13.542 0.376
49.8749 14.292 0.386
49.8954 13.479 0.375
49.9158 11.688 0.349
49.9363 12.302 0.358
49.9568 12.417 0.360
49.9772 12.052 0.354
49.9977 12.313 0.358
50.0182 11.458 0.345
50.0386 10.510 0.331
50.0591 10.313 0.328
50.0796 8.958 0.305
50.1000 9.375 0.313
50.1205 9.365 0.312
50.1409 8.771 0.302
50.1614 9.010 0.306
50.1819 8.885 0.304
50.2023 9.635 0.317
50.2228 9.302 0.311
50.2433 8.365 0.295
50.2637 8.302 0.294
50.2842 8.719 0.301
50.3046 8.052 0.290
50.3251 8.073 0.290
50.3456 7.896 0.287
50.3660 7.625 0.282
50.3865 7.594 0.281
50.4070 6.729 0.265
50.4274 6.708 0.264
50.4479 6.188 0.254
50.4683 6.646 0.263
50.4888 6.823 0.267
50.5093 6.354 0.257
50.5297 6.604 0.262
50.5502 6.688 0.264
50.5707 6.073 0.252
50.5911 5.979 0.250
50.6116 6.156 0.253
50.6320 6.021 0.250
50.6525 6.552 0.261
50.6730 5.688 0.243
50.6934 6.375 0.258
50.7139 6.031 0.251
50.7344 5.885 0.248
50.7548 6.292 0.256
50.7753 5.969 0.249
50.7958 6.104 0.252
50.8162 6.135 0.253
50.8367 5.760 0.245
50.8571 5.875 0.247
50.8776 6.031 0.251
50.8981 6.385 0.258
50.9185 6.240 0.255
50.9390 6.521 0.261
50.9595 6.594 0.262
50.9799 6.917 0.268
51.0004 7.313 0.276
51.0208 7.115 0.272
51.0413 7.063 0.271
51.0618 6.271 0.256
51.0822 6.177 0.254
51.1027 5.927 0.248
51.1232 6.125 0.253
51.1436 6.167 0.253
51.1641 6.052 0.251
51.1845 6.323 0.257
51.2050 6.042 0.251
51.2255 6.146 0.253
51.2459 6.167 0.253
51.2664 5.813 0.246
51.2869 6.719 0.265
51.3073 6.688 0.264
51.3278 6.302 0.256
51.3482 6.469 0.260
51.3687 6.281 0.256
51.3892 5.469 0.239
51.4096 5.833 0.247
51.4301 5.552 0.240
51.4506 5.979 0.250
51.4710 5.938 0.249
51.4915 6.146 0.253
51.5119 6.031 0.251
51.5324 5.563 0.241
51.5529 5.844 0.247
51.5733 5.781 0.245
51.5938 6.021 0.250
51.6143 6.021 0.250
51.6347 6.458 0.259
51.6552 6.635 0.263
51.6757 6.438 0.259
51.6961 6.656 0.263
51.7166 6.583 0.262
51.7370 6.073 0.252
51.7575 6.167 0.253
51.7780 6.271 0.256
51.7984 6.104 0.252
51.8189 6.052 0.251
51.8394 6.021 0.250
51.8598 5.792 0.246
51.8803 5.427 0.238
51.9007 5.469 0.239
51.9212 5.135 0.231
51.9417 5.115 0.231
51.9621 5.490 0.239
51.9826 5.354 0.236
52.0031 5.292 0.235
52.0235 5.125 0.231
52.0440 4.646 0.220
52.0644 4.417 0.214
52.0849 5.042 0.229
52.1054 5.052 0.229
52.1258 4.990 0.228
52.1463 4.750 0.222
52.1668 4.917 0.226
52.1872 4.802 0.224
52.2077 5.167 0.232
52.2281 5.208 0.233
52.2486 5.135 0.231
52.2691 4.917 0.226
52.2895 4.896 0.226
52.3100 5.417 0.238
52.3305 5.240 0.234
52.3509 5.052 0.229
52.3714 5.146 0.232
52.3918 4.969 0.228
52.4123 5.448 0.238
52.4328 5.052 0.229
52.4532 5.135 0.231
52.4737 5.385 0.237
52.4942 5.125 0.231
52.5146 5.125 0.231
52.5351 5.229 0.233
52.5556 5.365 0.236
52.5760 4.844 0.225
52.5965 4.969 0.228
52.6169 4.719 0.222
52.6374 4.438 0.215
52.6579 4.635 0.220
52.6783 4.740 0.222
52.6988 5.146 0.232
52.7193 4.823 0.224
52.7397 4.885 0.226
52.7602 4.885 0.226
52.7806 4.552 0.218
52.8011 5.031 0.229
52.8216 4.917 0.226
52.8420 4.875 0.225
52.8625 4.844 0.225
52.8830 4.656 0.220
52.9034 4.698 0.221
52.9239 4.938 0.227
52.9443 4.781 0.223
52.9648 4.854 0.225
52.9853 4.865 0.225
53.0057 4.354 0.213
53.0262 4.500 0.217
53.0467 4.604 0.219
53.0671 4.948 0.227
53.0876 4.469 0.216
53.1080 4.823 0.224
53.1285 4.479 0.216
53.1490 4.531 0.217
53.1694 4.885 0.226
53.1899 4.958 0.227
53.2104 4.510 0.217
53.2308 4.938 0.227
53.2513 4.990 0.228
53.2717 4.719 0.222
53.2922 4.615 0.219
53.3127 4.292 0.211
53.3331 4.646 0.220
53.3536 4.479 0.216
53.3741 4.625 0.219
53.3945 4.750 0.222
53.4150 4.594 0.219
53.4355 4.583 0.219
53.4559 4.625 0.219
53.4764 4.313 0.212
53.4968 4.490 0.216
53.5173 4.344 0.213
53.5378 4.906 0.226
53.5582 4.667 0.220
53.5787 4.427 0.215
53.5992 4.583 0.219
53.6196 4.552 0.218
53.6401 4.792 0.223
53.6605 4.427 0.215
53.6810 4.552 0.218
53.7015 4.635 0.220
53.7219 4.177 0.209
53.7424 4.500 0.217
53.7629 4.479 0.216
53.7833 4.740 0.222
53.8038 4.365 0.213
53.8242 4.479 0.216
53.8447 4.646 0.220
53.8652 3.885 0.201
53.8856 4.510 0.217
53.9061 4.229 0.210
53.9266 4.573 0.218
53.9470 4.781 0.223
53.9675 4.594 0.219
53.9879 4.781 0.223
54.0084 4.677 0.221
54.0289 4.448 0.215
54.0493 4.427 0.215
54.0698 4.844 0.225
54.0903 4.594 0.219
54.1107 5.240 0.234
54.1312 5.375 0.237
54.1516 5.260 0.234
54.1721 5.281 0.235
54.1926 5.375 0.237
54.2130 4.917 0.226
54.2335 5.208 0.233
54.2540 5.115 0.231
54.2744 4.573 0.218
54.2949 5.042 0.229
54.3154 4.833 0.224
54.3358 4.969 0.228
54.3563 4.677 0.221
54.3767 4.125 0.207
54.3972 4.365 0.213
54.4177 4.396 0.214
54.4381 4.552 0.218
54.4586 4.208 0.209
54.4791 4.698 0.221
54.4995 4.490 0.216
54.5200 4.490 0.216
54.5404 4.469 0.216
54.5609 4.521 0.217
54.5814 4.594 0.219
54.6018 4.427 0.215
54.6223 4.625 0.219
54.6428 4.833 0.224
54.6632 4.094 0.207
54.6837 4.313 0.212
54.7041 4.656 0.220
54.7246 4.469 0.216
54.7451 4.542 0.218
54.7655 4.510 0.217
54.7860 4.635 0.220
54.8065 4.500 0.217
54.8269 4.354 0.213
54.8474 4.229 0.210
54.8678 4.531 0.217
54.8883 5.198 0.233
54.9088 5.073 0.230
54.9292 4.917 0.226
54.9497 5.229 0.233
54.9702 5.958 0.249
54.9906 5.740 0.245
55.0111 6.344 0.257
55.0316 6.646 0.263
55.0520 7.813 0.285
55.0725 7.656 0.282
55.0929 9.667 0.317
55.1134 11.083 0.340
55.1339 12.177 0.356
55.1543 14.115 0.383
55.1748 15.333 0.400
55.1953 14.740 0.392
55.2157 14.208 0.385
55.2362 13.250 0.372
55.2566 11.698 0.349
55.2771 12.260 0.357
55.2976 12.563 0.362
55.3180 12.260 0.357
55.3385 11.708 0.349
55.3590 10.885 0.337
55.3794 9.167 0.309
55.3999 8.552 0.298
55.4203 8.198 0.292
55.4408 7.396 0.278
55.4613 7.375 0.277
55.4817 6.615 0.262
55.5022 6.344 0.257
55.5227 6.073 0.252
55.5431 5.938 0.249
55.5636 5.948 0.249
55.5840 5.469 0.239
55.6045 5.448 0.238
55.6250 6.042 0.251
55.6454 5.490 0.239
55.6659 5.677 0.243
55.6864 5.802 0.246
55.7068 5.229 0.233
55.7273 5.448 0.238
55.7477 5.823 0.246
55.7682 5.917 0.248
55.7887 5.313 0.235
55.8091 6.177 0.254
55.8296 6.792 0.266
55.8501 6.302 0.256
55.8705 6.052 0.251
55.8910 6.417 0.259
55.9115 6.729 0.265
55.9319 6.542 0.261
55.9524 5.875 0.247
55.9728 5.885 0.248
55.9933 6.781 0.266
56.0138 6.938 0.269
56.0342 6.688 0.264
56.0547 7.010 0.270
56.0752 7.198 0.274
56.0956 7.854 0.286
56.1161 8.042 0.289
56.1365 8.958 0.305
56.1570 9.542 0.315
56.1775 10.240 0.327
56.1979 11.010 0.339
56.2184 10.406 0.329
56.2389 9.896 0.321
56.2593 8.563 0.299
56.2798 8.521 0.298
56.3002 7.948 0.288
56.3207 8.073 0.290
56.3412 8.458 0.297
56.3616 7.833 0.286
56.3821 7.302 0.276
56.4026 7.333 0.276
56.4230 6.542 0.261
56.4435 5.990 0.250
56.4639 5.406 0.237
56.4844 5.292 0.235
56.5049 5.073 0.230
56.5253 5.240 0.234
56.5458 5.167 0.232
56.5663 5.000 0.228
56.5867 4.406 0.214
56.6072 4.969 0.228
56.6276 4.760 0.223
56.6481 4.906 0.226
56.6686 4.646 0.220
56.6890 4.302 0.212
56.7095 4.344 0.213
56.7300 4.094 0.207
56.7504 4.177 0.209
56.7709 4.406 0.214
56.7914 4.510 0.217
56.8118 4.042 0.205
56.8323 4.542 0.218
56.8527 3.938 0.203
56.8732 4.323 0.212
56.8937 4.354 0.213
56.9141 4.167 0.208
56.9346 3.750 0.198
56.9551 4.115 0.207
56.9755 3.729 0.197
56.9960 4.260 0.211
57.0164 3.938 0.203
57.0369 4.167 0.208
57.0574 4.063 0.206
57.0778 3.979 0.204
57.0983 3.875 0.201
57.1188 4.115 0.207
57.1392 4.094 0.207
57.1597 4.219 0.210
57.1801 4.219 0.210
57.2006 4.177 0.209
57.2211 4.458 0.216
57.2415 4.635 0.220
57.2620 4.167 0.208
57.2825 4.292 0.211
57.3029 4.281 0.211
57.3234 4.302 0.212
57.3438 4.125 0.207
57.3643 4.156 0.208
57.3848 3.958 0.203
57.4052 3.958 0.203
57.4257 4.625 0.219
57.4462 4.406 0.214
57.4666 4.490 0.216
57.4871 4.521 0.217
57.5075 4.177 0.209
57.5280 4.229 0.210
57.5485 4.250 0.210
57.5689 4.510 0.217
57.5894 4.646 0.220
57.6099 4.313 0.212
57.6303 4.542 0.218
57.6508 4.427 0.215
57.6713 4.927 0.227
57.6917 4.844 0.225
57.7122 4.854 0.225
57.7326 4.833 0.224
57.7531 4.958 0.227
57.7736 5.031 0.229
57.7940 5.750 0.245
57.8145 5.896 0.248
57.8350 6.448 0.259
57.8554 5.990 0.250
57.8759 6.573 0.262
57.8963 6.781 0.266
57.9168 7.521 0.280
57.9373 7.708 0.283
57.9577 7.760 0.284
57.9782 6.615 0.262
57.9987 6.740 0.265
58.0191 6.073 0.252
58.0396 6.635 0.263
58.0600 6.531 0.261
58.0805 5.948 0.249
58.1010 6.125 0.253
58.1214 6.177 0.254
58.1419 6.135 0.253
58.1624 5.719 0.244
58.1828 5.344 0.236
58.2033 4.865 0.225
58.2237 5.073 0.230
58.2442 4.833 0.224
58.2647 4.708 0.221
58.2851 4.823 0.224
58.3056 4.396 0.214
58.3261 5.146 0.232
58.3465 4.656 0.220
58.3670 4.896 0.226
58.3874 4.917 0.226
58.4079 4.917 0.226
58.4284 4.844 0.225
58.4488 4.938 0.227
58.4693 4.719 0.222
58.4898 4.969 0.228
58.5102 5.021 0.229
58.5307 4.208 0.209
58.5512 4.938 0.227
58.5716 4.750 0.222
58.5921 4.656 0.220
58.6125 4.427 0.215
58.6330 4.448 0.215
58.6535 4.865 0.225
58.6739 4.219 0.210
58.6944 4.365 0.213
58.7149 4.281 0.211
58.7353 4.469 0.216
58.7558 4.531 0.217
58.7762 4.865 0.225
58.7967 4.646 0.220
58.8172 4.802 0.224
58.8376 4.719 0.222
58.8581 4.823 0.224
58.8786 4.771 0.223
58.8990 5.073 0.230
58.9195 4.833 0.224
58.9399 4.969 0.228
58.9604 4.625 0.219
58.9809 4.510 0.217
59.0013 4.698 0.221
59.0218 4.979 0.228
59.0423 4.823 0.224
59.0627 5.083 0.230
59.0832 5.052 0.229
59.1036 5.750 0.245
59.1241 5.396 0.237
59.1446 5.813 0.246
59.1650 6.531 0.261
59.1855 6.542 0.261
59.2060 6.635 0.263
59.2264 6.865 0.267
59.2469 6.406 0.258
59.2674 6.552 0.261
59.2878 5.792 0.246
59.3083 5.740 0.245
59.3287 6.031 0.251
59.3492 5.573 0.241
59.3697 5.500 0.239
59.3901 5.271 0.234
59.4106 5.802 0.246
59.4311 4.885 0.226
59.4515 4.958 0.227
59.4720 4.646 0.220
59.4924 4.583 0.219
59.5129 4.156 0.208
59.5334 4.313 0.212
59.5538 4.385 0.214
59.5743 4.260 0.211
59.5948 4.042 0.205
59.6152 4.250 0.210
59.6357 4.313 0.212
59.6561 4.635 0.220
59.6766 4.646 0.220
59.6971 4.104 0.207
59.7175 4.469 0.216
59.7380 4.448 0.215
59.7585 4.698 0.221
59.7789 4.740 0.222
59.7994 5.448 0.238
59.8198 6.104 0.252
59.8403 6.063 0.251
59.8608 5.979 0.250
59.8812 6.042 0.251
59.9017 6.573 0.262
59.9222 5.958 0.249
59.9426 5.469 0.239
59.9631 5.406 0.237
59.9835 6.146 0.253
60.0040 5.271 0.234
60.0245 5.656 0.243
60.0449 5.583 0.241
60.0654 5.552 0.240
60.0859 4.979 0.228
60.1063 4.802 0.224
60.1268 4.260 0.211
60.1473 4.479 0.216
60.1677 4.833 0.224
60.1882 4.313 0.212
60.2086 3.802 0.199
60.2291 4.146 0.208
60.2496 4.156 0.208
60.2700 4.646 0.220
60.2905 4.302 0.212
60.3110 4.094 0.207
60.3314 3.844 0.200
60.3519 4.156 0.208
60.3723 4.104 0.207
60.3928 3.750 0.198
60.4133 4.052 0.205
60.4337 4.208 0.209
60.4542 4.083 0.206
60.4747 3.510 0.191
60.4951 4.135 0.208
60.5156 3.760 0.198
60.5360 3.927 0.202
60.5565 3.698 0.196
60.5770 3.906 0.202
60.5974 4.125 0.207
60.6179 4.083 0.206
60.6384 3.875 0.201
60.6588 4.010 0.204
60.6793 4.083 0.206
60.6997 3.458 0.190
60.7202 3.990 0.204
60.7407 3.844 0.200
60.7611 3.583 0.193
60.7816 4.000 0.204
60.8021 4.031 0.205
60.8225 3.500 0.191
60.8430 4.021 0.205
60.8634 3.677 0.196
60.8839 3.542 0.192
60.9044 4.125 0.207
60.9248 3.802 0.199
60.9453 3.635 0.195
60.9658 3.500 0.191
60.9862 3.156 0.181
61.0067 3.563 0.193
61.0272 4.052 0.205
61.0476 3.333 0.186
61.0681 3.938 0.203
61.0885 3.250 0.184
61.1090 3.927 0.202
61.1295 3.635 0.195
61.1499 3.552 0.192
61.1704 3.844 0.200
61.1909 3.615 0.194
61.2113 3.417 0.189
61.2318 3.385 0.188
61.2522 3.417 0.189
61.2727 3.604 0.194
61.2932 3.219 0.183
61.3136 3.583 0.193
61.3341 3.406 0.188
61.3546 3.344 0.187
61.3750 3.219 0.183
61.3955 3.938 0.203
61.4159 3.281 0.185
61.4364 3.042 0.178
61.4569 3.396 0.188
61.4773 3.313 0.186
61.4978 3.813 0.199
61.5183 3.469 0.190
61.5387 3.521 0.192
61.5592 3.344 0.187
61.5796 3.604 0.194
61.6001 3.229 0.183
61.6206 3.750 0.198
61.6410 3.813 0.199
61.6615 3.583 0.193
61.6820 3.813 0.199
61.7024 3.406 0.188
61.7229 3.625 0.194
61.7433 3.531 0.192
61.7638 3.802 0.199
61.7843 3.573 0.193
61.8047 3.719 0.197
61.8252 3.583 0.193
61.8457 3.740 0.197
61.8661 4.010 0.204
61.8866 3.448 0.190
61.9071 3.594 0.193
61.9275 3.521 0.192
61.9480 3.667 0.195
61.9684 3.958 0.203
61.9889 3.865 0.201
62.0094 3.990 0.204
62.0298 4.229 0.210
62.0503 4.063 0.206
62.0708 3.958 0.203
62.0912 4.250 0.210
62.1117 3.885 0.201
62.1321 4.219 0.210
62.1526 5.000 0.228
62.1731 4.302 0.212
62.1935 4.667 0.220
62.2140 4.177 0.209
62.2345 4.406 0.214
62.2549 4.167 0.208
62.2754 4.042 0.205
62.2958 4.208 0.209
62.3163 4.250 0.210
62.3368 3.906 0.202
62.3572 3.646 0.195
62.3777 3.875 0.201
62.3982 3.823 0.200
62.4186 3.750 0.198
62.4391 3.646 0.195
62.4595 3.813 0.199
62.4800 3.167 0.182
62.5005 3.615 0.194
62.5209 3.354 0.187
62.5414 3.396 0.188
62.5619 3.385 0.188
62.5823 3.333 0.186
62.6028 3.646 0.195
62.6232 3.385 0.188
62.6437 3.229 0.183
62.6642 3.531 0.192
62.6846 3.250 0.184
62.7051 3.010 0.177
62.7256 2.990 0.176
62.7460 3.323 0.186
62.7665 3.302 0.185
62.7870 3.385 0.188
62.8074 3.406 0.188
62.8279 3.250 0.184
62.8483 3.385 0.188
62.8688 3.448 0.190
62.8893 3.417 0.189
62.9097 3.365 0.187
62.9302 3.344 0.187
62.9507 3.448 0.190
62.9711 3.333 0.186
62.9916 3.167 0.182
63.0120 3.750 0.198
63.0325 3.510 0.191
63.0530 3.427 0.189
63.0734 3.677 0.196
63.0939 3.635 0.195
63.1144 3.302 0.185
63.1348 3.854 0.200
63.1553 3.344 0.187
63.1757 3.417 0.189
63.1962 2.906 0.174
63.2167 3.458 0.190
63.2371 3.625 0.194
63.2576 3.729 0.197
63.2781 3.438 0.189
63.2985 3.177 0.182
63.3190 3.542 0.192
63.3394 3.438 0.189
63.3599 3.583 0.193
63.3804 3.635 0.195
63.4008 3.365 0.187
63.4213 3.906 0.202
63.4418 3.677 0.196
63.4622 3.802 0.199
63.4827 3.948 0.203
63.5032 3.531 0.192
63.5236 4.052 0.205
63.5441 3.729 0.197
63.5645 4.135 0.208
63.5850 3.802 0.199
63.6055 4.125 0.207
63.6259 4.313 0.212
63.6464 4.094 0.207
63.6669 4.573 0.218
63.6873 3.969 0.203
63.7078 4.063 0.206
63.7282 3.938 0.203
63.7487 4.542 0.218
63.7692 4.219 0.210
63.7896 3.938 0.203
63.8101 4.781 0.223
63.8306 3.948 0.203
63.8510 3.813 0.199
63.8715 4.333 0.212
63.8919 4.750 0.222
63.9124 4.333 0.212
63.9329 4.281 0.211
63.9533 4.771 0.223
63.9738 4.781 0.223
63.9943 4.656 0.220
64.0147 4.594 0.219
64.0352 4.813 0.224
64.0556 5.115 0.231
64.0761 4.583 0.219
64.0966 4.458 0.216
64.1170 4.865 0.225
64.1375 4.635 0.220
64.1580 4.208 0.209
64.1784 4.188 0.209
64.1989 4.188 0.209
64.2193 4.573 0.218
64.2398 4.813 0.224
64.2603 4.354 0.213
64.2807 3.948 0.203
64.3012 4.219 0.210
64.3217 4.396 0.214
64.3421 4.542 0.218
64.3626 4.656 0.220
64.3831 4.531 0.217
64.4035 4.656 0.220
64.4240 5.042 0.229
64.4444 4.552 0.218
64.4649 4.938 0.227
64.4854 5.115 0.231
64.5058 4.719 0.222
64.5263 5.115 0.231
64.5468 5.448 0.238
64.5672 5.885 0.248
64.5877 6.135 0.253
64.6081 6.563 0.261
64.6286 7.031 0.271
64.6491 7.354 0.277
64.6695 7.719 0.284
64.6900 7.542 0.280
64.7105 6.906 0.268
64.7309 6.010 0.250
64.7514 6.135 0.253
64.7718 6.292 0.256
64.7923 6.167 0.253
64.8128 6.458 0.259
64.8332 5.667 0.243
64.8537 5.813 0.246
64.8742 5.344 0.236
64.8946 5.719 0.244
64.9151 5.031 0.229
64.9355 4.583 0.219
64.9560 4.885 0.226
64.9765 4.750 0.222
64.9969 4.552 0.218
65.0174 4.292 0.211
65.0379 4.031 0.205
65.0583 4.240 0.210
65.0788 3.990 0.204
65.0992 4.094 0.207
65.1197 4.083 0.206
65.1402 4.083 0.206
65.1606 3.781 0.198
65.1811 3.646 0.195
65.2016 3.823 0.200
65.2220 3.844 0.200
65.2425 3.865 0.201
65.2630 3.771 0.198
65.2834 4.208 0.209
65.3039 3.906 0.202
65.3243 3.833 0.200
65.3448 3.885 0.201
65.3653 4.177 0.209
65.3857 4.094 0.207
65.4062 3.698 0.196
65.4267 4.458 0.216
65.4471 4.208 0.209
65.4676 4.260 0.211
65.4880 4.594 0.219
65.5085 4.823 0.224
65.5290 4.385 0.214
65.5494 4.458 0.216
65.5699 5.448 0.238
65.5904 4.958 0.227
65.6108 4.990 0.228
65.6313 5.177 0.232
65.6517 4.667 0.220
65.6722 4.542 0.218
65.6927 4.313 0.212
65.7131 4.635 0.220
65.7336 4.573 0.218
65.7541 4.365 0.213
65.7745 4.313 0.212
65.7950 4.583 0.219
65.8154 4.219 0.210
65.8359 4.177 0.209
65.8564 3.854 0.200
65.8768 3.990 0.204
65.8973 3.969 0.203
65.9178 3.781 0.198
65.9382 4.052 0.205
65.9587 3.740 0.197
65.9791 3.646 0.195
65.9996 3.656 0.195
66.0201 3.542 0.192
66.0405 3.854 0.200
66.0610 3.333 0.186
66.0815 3.781 0.198
66.1019 3.260 0.184
66.1224 3.813 0.199
66.1429 3.531 0.192
66.1633 3.750 0.198
66.1838 3.667 0.195
66.2042 3.594 0.193
66.2247 3.458 0.190
66.2452 3.385 0.188
66.2656 3.771 0.198
66.2861 3.760 0.198
66.3066 3.458 0.190
66.3270 3.833 0.200
66.3475 3.260 0.184
66.3679 3.458 0.190
66.3884 3.594 0.193
66.4089 3.719 0.197
66.4293 3.427 0.189
66.4498 3.323 0.186
66.4703 3.573 0.193
66.4907 3.198 0.183
66.5112 3.188 0.182
66.5316 3.458 0.190
66.5521 3.385 0.188
66.5726 3.417 0.189
66.5930 3.313 0.186
66.6135 3.583 0.193
66.6340 3.552 0.192
66.6544 3.042 0.178
66.6749 3.490 0.191
66.6953 3.625 0.194
66.7158 3.250 0.184
66.7363 3.542 0.192
66.7567 3.188 0.182
66.7772 3.885 0.201
66.7977 3.573 0.193
66.8181 3.802 0.199
66.8386 3.698 0.196
66.8590 3.927 0.202
66.8795 4.021 0.205
66.9000 3.719 0.197
66.9204 4.156 0.208
66.9409 3.760 0.198
66.9614 3.813 0.199
66.9818 4.531 0.217
67.0023 4.594 0.219
67.0228 4.563 0.218
67.0432 4.823 0.224
67.0637 5.104 0.231
67.0841 5.208 0.233
67.1046 5.458 0.238
67.1251 5.677 0.243
67.1455 6.813 0.266
67.1660 6.625 0.263
67.1865 6.667 0.264
67.2069 6.948 0.269
67.2274 6.427 0.259
67.2478 6.104 0.252
67.2683 5.865 0.247
67.2888 5.938 0.249
67.3092 5.813 0.246
67.3297 6.156 0.253
67.3502 5.563 0.241
67.3706 6.156 0.253
67.3911 5.583 0.241
67.4115 5.260 0.234
67.4320 5.115 0.231
67.4525 4.646 0.220
67.4729 4.792 0.223
67.4934 4.625 0.219
67.5139 4.354 0.213
67.5343 4.354 0.213
67.5548 4.208 0.209
67.5752 3.906 0.202
67.5957 4.271 0.211
67.6162 4.115 0.207
67.6366 4.396 0.214
67.6571 4.219 0.210
67.6776 4.083 0.206
67.6980 3.990 0.204
67.7185 4.344 0.213
67.7389 4.396 0.214
67.7594 4.302 0.212
67.7799 4.240 0.210
67.8003 4.104 0.207
67.8208 4.073 0.206
67.8413 3.917 0.202
67.8617 3.813 0.199
67.8822 3.990 0.204
67.9027 4.135 0.208
67.9231 3.667 0.195
67.9436 4.229 0.210
67.9640 4.260 0.211
67.9845 3.958 0.203
68.0050 4.313 0.212
68.0254 4.010 0.204
68.0459 3.854 0.200
68.0664 4.635 0.220
68.0868 4.177 0.209
68.1073 4.240 0.210
68.1277 4.198 0.209
68.1482 4.365 0.213
68.1687 4.156 0.208
68.1891 4.052 0.205
68.2096 4.208 0.209
68.2301 4.698 0.221
68.2505 4.563 0.218
68.2710 4.823 0.224
68.2914 4.667 0.220
68.3119 4.385 0.214
68.3324 4.708 0.221
68.3528 4.521 0.217
68.3733 4.927 0.227
68.3938 5.073 0.230
68.4142 4.667 0.220
68.4347 4.167 0.208
68.4551 3.917 0.202
68.4756 4.281 0.211
68.4961 3.958 0.203
68.5165 4.594 0.219
68.5370 4.375 0.213
68.5575 3.906 0.202
68.5779 4.167 0.208
68.5984 3.938 0.203
68.6189 3.771 0.198
68.6393 3.385 0.188
68.6598 3.323 0.186
68.6802 3.802 0.199
68.7007 3.792 0.199
68.7212 3.438 0.189
68.7416 3.542 0.192
68.7621 3.458 0.190
68.7826 3.490 0.191
68.8030 3.292 0.185
68.8235 3.281 0.185
68.8439 3.771 0.198
68.8644 3.552 0.192
68.8849 3.458 0.190
68.9053 4.052 0.205
68.9258 3.427 0.189
68.9463 3.979 0.204
68.9667 3.990 0.204
68.9872 4.094 0.207
69.0076 4.396 0.214
69.0281 3.729 0.197
69.0486 4.052 0.205
69.0690 3.948 0.203
69.0895 4.063 0.206
69.1100 4.573 0.218
69.1304 3.885 0.201
69.1509 4.146 0.208
69.1713 3.958 0.203
69.1918 4.406 0.214
69.2123 4.615 0.219
69.2327 4.188 0.209
69.2532 4.458 0.216
69.2737 3.969 0.203
69.2941 3.635 0.195
69.3146 3.958 0.203
69.3350 4.125 0.207
69.3555 3.969 0.203
69.3760 3.479 0.190
69.3964 3.854 0.200
69.4169 3.510 0.191
69.4374 3.604 0.194
69.4578 3.406 0.188
69.4783 3.542 0.192
69.4988 3.583 0.193
69.5192 3.427 0.189
69.5397 3.073 0.179
69.5601 3.458 0.190
69.5806 3.292 0.185
69.6011 3.208 0.183
69.6215 3.042 0.178
69.6420 3.115 0.180
69.6625 3.260 0.184
69.6829 3.000 0.177
69.7034 2.854 0.172
69.7238 3.010 0.177
69.7443 3.083 0.179
69.7648 2.958 0.176
69.7852 2.896 0.174
69.8057 3.021 0.177
69.8262 3.104 0.180
69.8466 3.406 0.188
69.8671 3.281 0.185
69.8875 2.563 0.163
69.9080 3.073 0.179
69.9285 2.969 0.176
69.9489 2.802 0.171
69.9694 2.896 0.174
69.9899 3.052 0.178
70.0103 2.875 0.173
70.0308 2.875 0.173
70.0512 3.167 0.182
70.0717 2.896 0.174
70.0922 2.896 0.174
70.1126 3.125 0.180
70.1331 2.854 0.172
70.1536 2.865 0.173
70.1740 2.917 0.174
70.1945 2.552 0.163
70.2149 3.021 0.177
70.2354 2.865 0.173
70.2559 3.042 0.178
70.2763 2.969 0.176
70.2968 3.156 0.181
70.3173 2.990 0.176
70.3377 2.740 0.169
70.3582 2.875 0.173
70.3787 3.073 0.179
70.3991 3.115 0.180
70.4196 2.938 0.175
70.4400 2.750 0.169
70.4605 2.698 0.168
70.4810 2.948 0.175
70.5014 3.135 0.181
70.5219 2.771 0.170
70.5424 2.979 0.176
70.5628 3.031 0.178
70.5833 2.844 0.172
70.6037 3.083 0.179
70.6242 2.875 0.173
70.6447 2.771 0.170
70.6651 2.552 0.163
70.6856 2.938 0.175
70.7061 3.260 0.184
70.7265 2.833 0.172
70.7470 2.573 0.164
70.7674 2.698 0.168
70.7879 3.042 0.178
70.8084 3.104 0.180
70.8288 2.906 0.174
70.8493 2.542 0.163
70.8698 2.865 0.173
70.8902 2.781 0.170
70.9107 2.656 0.166
70.9311 2.802 0.171
70.9516 2.740 0.169
70.9721 2.865 0.173
70.9925 2.854 0.172
71.0130 2.792 0.171
71.0335 2.417 0.159
71.0539 2.813 0.171
71.0744 3.073 0.179
71.0948 2.823 0.171
71.1153 2.688 0.167
71.1358 2.813 0.171
71.1562 2.667 0.167
71.1767 3.333 0.186
71.1972 2.875 0.173
71.2176 3.094 0.180
71.2381 2.896 0.174
71.2586 2.938 0.175
71.2790 2.823 0.171
71.2995 3.156 0.181
71.3199 3.302 0.185
71.3404 2.875 0.173
71.3609 2.938 0.175
71.3813 2.615 0.165
71.4018 2.688 0.167
71.4223 3.000 0.177
71.4427 2.833 0.172
71.4632 2.833 0.172
71.4836 2.865 0.173
71.5041 2.885 0.173
71.5246 2.563 0.163
71.5450 2.573 0.164
71.5655 2.729 0.169
71.5860 2.865 0.173
71.6064 2.729 0.169
71.6269 2.667 0.167
71.6473 2.365 0.157
71.6678 2.625 0.165
71.6883 2.708 0.168
71.7087 2.583 0.164
71.7292 2.604 0.165
71.7497 2.656 0.166
71.7701 2.625 0.165
71.7906 2.427 0.159
71.8110 2.490 0.161
71.8315 2.552 0.163
71.8520 2.615 0.165
71.8724 2.500 0.161
71.8929 2.656 0.166
71.9134 2.896 0.174
71.9338 2.448 0.160
71.9543 2.646 0.166
71.9747 2.417 0.159
71.9952 2.438 0.159
72.0157 2.625 0.165
72.0361 2.906 0.174
72.0566 2.688 0.167
72.0771 2.354 0.157
72.0975 2.667 0.167
72.1180 2.531 0.162
72.1385 2.344 0.156
72.1589 3.042 0.178
72.1794 2.781 0.170
72.1998 2.438 0.159
72.2203 2.521 0.162
72.2408 2.563 0.163
72.2612 2.521 0.162
72.2817 2.625 0.165
72.3022 2.354 0.157
72.3226 2.719 0.168
72.3431 2.896 0.174
72.3635 2.656 0.166
72.3840 2.625 0.165
72.4045 2.500 0.161
72.4249 2.719 0.168
72.4454 2.708 0.168
72.4659 2.792 0.171
72.4863 2.500 0.161
72.5068 2.688 0.167
72.5272 2.688 0.167
72.5477 2.781 0.170
72.5682 2.490 0.161
72.5886 2.646 0.166
72.6091 2.646 0.166
72.6296 2.719 0.168
72.6500 2.729 0.169
72.6705 2.719 0.168
72.6909 3.198 0.183
72.7114 2.844 0.172
72.7319 3.083 0.179
72.7523 3.031 0.178
72.7728 2.781 0.170
72.7933 2.719 0.168
72.8137 2.833 0.172
72.8342 2.948 0.175
72.8547 3.083 0.179
72.8751 3.125 0.180
72.8956 3.031 0.178
72.9160 3.146 0.181
72.9365 2.917 0.174
72.9570 3.000 0.177
72.9774 2.708 0.168
72.9979 2.833 0.172
73.0184 2.833 0.172
73.0388 2.677 0.167
73.0593 2.927 0.175
73.0797 2.583 0.164
73.1002 2.563 0.163
73.1207 2.490 0.161
73.1411 2.917 0.174
73.1616 2.354 0.157
73.1821 2.344 0.156
73.2025 2.771 0.170
73.2230 2.677 0.167
73.2434 2.688 0.167
73.2639 2.500 0.161
73.2844 2.427 0.159
73.3048 2.250 0.153
73.3253 2.219 0.152
73.3458 2.771 0.170
73.3662 2.208 0.152
73.3867 2.281 0.154
73.4071 2.552 0.163
73.4276 2.573 0.164
73.4481 2.500 0.161
73.4685 2.552 0.163
73.4890 2.260 0.153
73.5095 2.563 0.163
73.5299 2.208 0.152
73.5504 2.729 0.169
73.5708 2.375 0.157
73.5913 1.833 0.138
73.6118 2.396 0.158
73.6322 2.292 0.155
73.6527 2.198 0.151
73.6732 2.323 0.156
73.6936 2.542 0.163
73.7141 2.385 0.158
73.7346 2.344 0.156
73.7550 2.448 0.160
73.7755 2.344 0.156
73.7959 2.479 0.161
73.8164 2.333 0.156
73.8369 2.365 0.157
73.8573 2.354 0.157
73.8778 2.271 0.154
73.8983 2.448 0.160
73.9187 2.396 0.158
73.9392 2.344 0.156
73.9596 2.646 0.166
73.9801 2.469 0.160
74.0006 2.646 0.166
74.0210 2.781 0.170
74.0415 2.375 0.157
74.0620 2.542 0.163
74.0824 2.542 0.163
74.1029 2.615 0.165
74.1233 2.469 0.160
74.1438 2.865 0.173
74.1643 2.740 0.169
74.1847 2.073 0.147
74.2052 2.563 0.163
74.2257 2.281 0.154
74.2461 2.458 0.160
74.2666 2.792 0.171
74.2870 2.656 0.166
74.3075 2.458 0.160
74.3280 2.656 0.166
74.3484 2.479 0.161
74.3689 2.417 0.159
74.3894 2.531 0.162
74.4098 2.479 0.161
74.4303 2.448 0.160
74.4507 2.510 0.162
74.4712 2.531 0.162
74.4917 2.510 0.162
74.5121 2.448 0.160
74.5326 2.281 0.154
74.5531 2.573 0.164
74.5735 2.563 0.163
74.5940 2.323 0.156
74.6145 2.490 0.161
74.6349 2.688 0.167
74.6554 2.292 0.155
74.6758 2.219 0.152
74.6963 2.302 0.155
74.7168 2.125 0.149
74.7372 2.531 0.162
74.7577 2.208 0.152
74.7782 2.125 0.149
74.7986 2.344 0.156
74.8191 2.344 0.156
74.8395 2.281 0.154
74.8600 2.552 0.163
74.8805 2.385 0.158
74.9009 2.177 0.151
74.9214 2.479 0.161
74.9419 2.427 0.159
74.9623 2.198 0.151
74.9828 2.521 0.162
75.0032 2.417 0.159
75.0237 2.385 0.158
75.0442 2.458 0.160
75.0646 2.542 0.163
75.0851 2.427 0.159
75.1056 2.646 0.166
75.1260 2.260 0.153
75.1465 2.333 0.156
75.1669 2.281 0.154
75.1874 2.229 0.152
75.2079 2.490 0.161
75.2283 2.719 0.168
75.2488 2.281 0.154
75.2693 2.385 0.158
75.2897 2.354 0.157
75.3102 2.750 0.169
75.3306 2.417 0.159
75.3511 2.333 0.156
75.3716 2.354 0.157
75.3920 2.594 0.164
75.4125 2.198 0.151
75.4330 2.375 0.157
75.4534 2.292 0.155
75.4739 2.271 0.154
75.4944 2.500 0.161
75.5148 2.500 0.161
75.5353 2.354 0.157
75.5557 2.792 0.171
75.5762 2.688 0.167
75.5967 2.833 0.172
75.6171 2.521 0.162
75.6376 2.854 0.172
75.6581 2.906 0.174
75.6785 3.125 0.180
75.6990 3.031 0.178
75.7194 3.083 0.179
75.7399 3.635 0.195
75.7604 3.458 0.190
75.7808 3.281 0.185
75.8013 3.667 0.195
75.8218 4.250 0.210
75.8422 3.750 0.198
75.8627 3.458 0.190
75.8831 3.365 0.187
75.9036 3.208 0.183
75.9241 3.417 0.189
75.9445 3.396 0.188
75.9650 2.823 0.171
75.9855 3.542 0.192
76.0059 3.313 0.186
76.0264 3.354 0.187
76.0468 3.375 0.188
76.0673 3.563 0.193
76.0878 3.052 0.178
76.1082 3.042 0.178
76.1287 3.031 0.178
76.1492 2.958 0.176
76.1696 3.188 0.182
76.1901 2.594 0.164
76.2105 2.542 0.163
76.2310 2.646 0.166
76.2515 2.542 0.163
76.2719 2.760 0.170
76.2924 2.573 0.164
76.3129 2.719 0.168
76.3333 2.875 0.173
76.3538 2.656 0.166
76.3743 2.521 0.162
76.3947 2.573 0.164
76.4152 2.375 0.157
76.4356 2.677 0.167
76.4561 2.573 0.164
76.4766 2.781 0.170
76.4970 2.469 0.160
76.5175 2.646 0.166
76.5380 2.521 0.162
76.5584 2.333 0.156
76.5789 2.500 0.161
76.5993 2.708 0.168
76.6198 2.542 0.163
76.6403 2.375 0.157
76.6607 2.688 0.167
76.6812 2.573 0.164
76.7017 2.385 0.158
76.7221 2.469 0.160
76.7426 2.573 0.164
76.7630 2.219 0.152
76.7835 2.615 0.165
76.8040 2.344 0.156
76.8244 2.729 0.169
76.8449 2.479 0.161
76.8654 2.094 0.148
76.8858 2.458 0.160
76.9063 2.500 0.161
76.9267 2.531 0.162
76.9472 2.583 0.164
76.9677 2.438 0.159
76.9881 2.615 0.165
77.0086 2.344 0.156
77.0291 2.375 0.157
77.0495 2.448 0.160
77.0700 2.688 0.167
77.0905 2.583 0.164
77.1109 2.792 0.171
77.1314 2.604 0.165
77.1518 2.313 0.155
77.1723 2.677 0.167
77.1928 2.521 0.162
77.2132 2.760 0.170
77.2337 2.240 0.153
77.2542 2.573 0.164
77.2746 2.406 0.158
77.2951 2.990 0.176
77.3155 2.510 0.162
77.3360 2.469 0.160
77.3565 2.615 0.165
77.3769 2.865 0.173
77.3974 2.854 0.172
77.4179 2.656 0.166
77.4383 2.865 0.173
77.4588 2.938 0.175
77.4792 2.583 0.164
77.4997 2.813 0.171
77.5202 3.125 0.180
77.5406 3.104 0.180
77.5611 3.198 0.183
77.5816 2.698 0.168
77.6020 2.927 0.175
77.6225 2.740 0.169
77.6429 2.521 0.162
77.6634 2.990 0.176
77.6839 2.833 0.172
77.7043 3.125 0.180
77.7248 3.000 0.177
77.7453 3.375 0.188
77.7657 3.115 0.180
77.7862 2.771 0.170
77.8066 3.135 0.181
77.8271 3.188 0.182
77.8476 2.719 0.168
77.8680 3.021 0.177
77.8885 2.802 0.171
77.9090 2.833 0.172
77.9294 3.021 0.177
77.9499 2.698 0.168
77.9704 2.917 0.174
77.9908 2.542 0.163
78.0113 2.792 0.171
78.0317 2.927 0.175
78.0522 2.656 0.166
78.0727 2.656 0.166
78.0931 2.469 0.160
78.1136 2.729 0.169
78.1341 2.813 0.171
78.1545 2.917 0.174
78.1750 2.688 0.167
78.1954 2.469 0.160
78.2159 3.073 0.179
78.2364 2.583 0.164
78.2568 2.865 0.173
78.2773 2.938 0.175
78.2978 2.865 0.173
78.3182 2.344 0.156
78.3387 2.792 0.171
78.3591 3.240 0.184
78.3796 2.969 0.176
78.4001 2.698 0.168
78.4205 3.073 0.179
78.4410 2.938 0.175
78.4615 2.771 0.170
78.4819 2.844 0.172
78.5024 3.000 0.177
78.5228 2.927 0.175
78.5433 2.781 0.170
78.5638 2.896 0.174
78.5842 2.542 0.163
78.6047 3.083 0.179
78.6252 2.854 0.172
78.6456 2.656 0.166
78.6661 2.646 0.166
78.6865 2.990 0.176
78.7070 2.948 0.175
78.7275 2.813 0.171
78.7479 2.885 0.173
78.7684 2.708 0.168
78.7889 3.031 0.178
78.8093 2.635 0.166
78.8298 2.594 0.164
78.8503 2.719 0.168
78.8707 2.875 0.173
78.8912 2.625 0.165
78.9116 2.917 0.174
78.9321 2.833 0.172
78.9526 2.521 0.162
78.9730 2.823 0.171
78.9935 2.552 0.163
79.0140 2.833 0.172
79.0344 2.833 0.172
79.0549 2.844 0.172
79.0753 2.656 0.166
79.0958 2.469 0.160
79.1163 2.865 0.173
79.1367 2.750 0.169
79.1572 2.802 0.171
79.1777 2.740 0.169
79.1981 2.594 0.164
79.2186 2.667 0.167
79.2390 2.896 0.174
79.2595 2.667 0.167
79.2800 2.604 0.165
79.3004 2.521 0.162
79.3209 2.896 0.174
79.3414 2.594 0.164
79.3618 3.115 0.180
79.3823 2.896 0.174
79.4027 2.760 0.170
79.4232 2.875 0.173
79.4437 2.802 0.171
79.4641 3.083 0.179
79.4846 3.052 0.178
79.5051 2.729 0.169
79.5255 2.927 0.175
79.5460 3.302 0.185
79.5664 3.292 0.185
79.5869 2.948 0.175
79.6074 2.729 0.169
79.6278 3.031 0.178
79.6483 2.740 0.169
79.6688 3.115 0.180
79.6892 2.885 0.173
79.7097 2.917 0.174
79.7302 2.938 0.175
79.7506 2.552 0.163
79.7711 2.823 0.171
79.7915 3.010 0.177
79.8120 3.177 0.182
79.8325 3.156 0.181
79.8529 3.115 0.180
79.8734 2.802 0.171
79.8939 2.656 0.166
79.9143 2.490 0.161
79.9348 2.854 0.172
79.9552 2.563 0.163
79.9757 2.667 0.167
79.9962 2.625 0.165
