'Id: "" Comment: "" Operator: "Lab Manager" Anode: "Cu" Scantype: "Locked Coupled" TimePerStep: "96" X: "0" Y: "0" Z: "0" 
5.0000 24.219 0.502
5.0205 24.521 0.505
5.0409 23.948 0.499
5.0614 23.667 0.497
5.0819 23.594 0.496
5.1023 23.677 0.497
5.1228 23.260 0.492
5.1432 23.625 0.496
5.1637 23.323 0.493
5.1842 22.885 0.488
5.2046 23.885 0.499
5.2251 23.677 0.497
5.2456 22.708 0.486
5.2660 23.104 0.491
5.2865 23.844 0.498
5.3069 22.792 0.487
5.3274 23.260 0.492
5.3479 22.198 0.481
5.3683 23.000 0.489
5.3888 21.729 0.476
5.4093 22.375 0.483
5.4297 22.188 0.481
5.4502 22.667 0.486
5.4706 22.396 0.483
5.4911 22.302 0.482
5.5116 22.542 0.485
5.5320 22.208 0.481
5.5525 22.323 0.482
5.5730 22.406 0.483
5.5934 21.594 0.474
5.6139 21.906 0.478
5.6343 22.125 0.480
5.6548 21.990 0.479
5.6753 22.927 0.489
5.6957 22.385 0.483
5.7162 21.604 0.474
5.7367 21.448 0.473
5.7571 21.292 0.471
5.7776 21.698 0.475
5.7980 21.688 0.475
5.8185 21.333 0.471
5.8390 21.156 0.469
5.8594 21.865 0.477
5.8799 21.240 0.470
5.9004 21.542 0.474
5.9208 21.385 0.472
5.9413 22.146 0.480
5.9618 21.417 0.472
5.9822 21.271 0.471
6.0027 22.125 0.480
6.0231 22.052 0.479
6.0436 21.146 0.469
6.0641 21.479 0.473
6.0845 20.781 0.465
6.1050 22.115 0.480
6.1255 21.427 0.472
6.1459 21.219 0.470
6.1664 21.906 0.478
6.1868 20.688 0.464
6.2073 21.323 0.471
6.2278 20.708 0.464
6.2482 20.792 0.465
6.2687 21.698 0.475
6.2892 20.135 0.458
6.3096 20.542 0.463
6.3301 21.438 0.473
6.3505 20.302 0.460
6.3710 20.896 0.467
6.3915 20.438 0.461
6.4119 20.073 0.457
6.4324 19.958 0.456
6.4529 20.500 0.462
6.4733 21.188 0.470
6.4938 20.677 0.464
6.5142 20.625 0.464
6.5347 20.677 0.464
6.5552 20.271 0.460
6.5756 20.635 0.464
6.5961 20.375 0.461
6.6166 21.406 0.472
6.6370 22.021 0.479
6.6575 21.688 0.475
6.6779 21.000 0.468
6.6984 21.896 0.478
6.7189 21.615 0.475
6.7393 20.802 0.465
6.7598 20.229 0.459
6.7803 20.969 0.467
6.8007 20.854 0.466
6.8212 21.083 0.469
6.8417 21.823 0.477
6.8621 20.396 0.461
6.8826 20.667 0.464
6.9030 20.917 0.467
6.9235 21.094 0.469
6.9440 20.969 0.467
6.9644 20.979 0.467
6.9849 19.771 0.454
7.0054 20.760 0.465
7.0258 21.063 0.468
7.0463 19.760 0.454
7.0667 19.552 0.451
7.0872 19.906 0.455
7.1077 19.198 0.447
7.1281 21.083 0.469
7.1486 20.563 0.463
7.1691 20.167 0.458
7.1895 20.542 0.463
7.2100 20.594 0.463
7.2304 20.667 0.464
7.2509 21.042 0.468
7.2714 21.625 0.475
7.2918 21.083 0.469
7.3123 20.688 0.464
7.3328 20.281 0.460
7.3532 20.979 0.467
7.3737 21.927 0.478
7.3941 21.927 0.478
7.4146 21.365 0.472
7.4351 21.010 0.468
7.4555 21.156 0.469
7.4760 20.615 0.463
7.4965 20.604 0.463
7.5169 21.396 0.472
7.5374 21.010 0.468
7.5579 20.406 0.461
7.5783 21.271 0.471
7.5988 22.021 0.479
7.6192 21.490 0.473
7.6397 21.281 0.471
7.6602 20.521 0.462
7.6806 20.688 0.464
7.7011 20.823 0.466
7.7216 20.823 0.466
7.7420 20.469 0.462
7.7625 20.604 0.463
7.7829 21.469 0.473
7.8034 21.260 0.471
7.8239 21.125 0.469
7.8443 21.229 0.470
7.8648 20.667 0.464
7.8853 21.427 0.472
7.9057 22.458 0.484
7.9262 21.188 0.470
7.9466 21.760 0.476
7.9671 21.042 0.468
7.9876 21.344 0.472
8.0080 22.521 0.484
8.0285 22.635 0.486
8.0490 20.698 0.464
8.0694 20.104 0.458
8.0899 22.281 0.482
8.1103 21.198 0.470
8.1308 21.583 0.474
8.1513 22.479 0.484
8.1717 22.052 0.479
8.1922 21.906 0.478
8.2127 21.917 0.478
8.2331 22.208 0.481
8.2536 21.823 0.477
8.2740 21.854 0.477
8.2945 21.646 0.475
8.3150 21.063 0.468
8.3354 20.917 0.467
8.3559 22.104 0.480
8.3764 21.740 0.476
8.3968 20.542 0.463
8.4173 21.396 0.472
8.4378 21.458 0.473
8.4582 21.708 0.476
8.4787 21.760 0.476
8.4991 21.385 0.472
8.5196 22.240 0.481
8.5401 22.219 0.481
8.5605 21.708 0.476
8.5810 22.094 0.480
8.6015 20.906 0.467
8.6219 20.927 0.467
8.6424 21.875 0.477
8.6628 21.885 0.477
8.6833 21.917 0.478
8.7038 21.854 0.477
8.7242 21.156 0.469
8.7447 21.646 0.475
8.7652 22.563 0.485
8.7856 21.646 0.475
8.8061 21.844 0.477
8.8265 23.042 0.490
8.8470 23.500 0.495
8.8675 24.125 0.501
8.8879 24.042 0.500
8.9084 24.521 0.505
8.9289 25.156 0.512
8.9493 24.896 0.509
8.9698 24.917 0.509
8.9902 27.542 0.536
9.0107 27.667 0.537
9.0312 28.719 0.547
9.0516 30.469 0.563
9.0721 31.927 0.577
9.0926 32.010 0.577
9.1130 31.573 0.573
9.1335 31.115 0.569
9.1539 31.458 0.572
9.1744 34.156 0.596
9.1949 34.396 0.599
9.2153 39.625 0.642
9.2358 40.740 0.651
9.2563 44.750 0.683
9.2767 46.240 0.694
9.2972 48.510 0.711
9.3177 47.271 0.702
9.3381 47.948 0.707
9.3586 48.094 0.708
9.3790 49.135 0.715
9.3995 48.250 0.709
9.4200 50.240 0.723
9.4404 50.094 0.722
9.4609 52.958 0.743
9.4814 54.583 0.754
9.5018 56.802 0.769
9.5223 60.896 0.796
9.5427 63.729 0.815
9.5632 67.115 0.836
9.5837 71.573 0.863
9.6041 75.875 0.889
9.6246 79.052 0.907
9.6451 84.208 0.937
9.6655 90.188 0.969
9.6860 97.344 1.007
9.7064 108.344 1.062
9.7269 122.698 1.131
9.7474 143.573 1.223
9.7678 176.781 1.357
9.7883 224.323 1.529
9.8088 304.604 1.781
9.8292 406.427 2.058
9.8497 536.917 2.365
9.8701 643.563 2.589
9.8906 555.906 2.406
9.9111 360.031 1.937
9.9315 205.458 1.463
9.9520 125.438 1.143
9.9725 94.542 0.992
9.9929 75.990 0.890
10.0134 65.115 0.824
10.0338 59.719 0.789
10.0543 53.260 0.745
10.0748 49.073 0.715
10.0952 45.458 0.688
10.1157 41.885 0.661
10.1362 38.979 0.637
10.1566 35.781 0.611
10.1771 32.365 0.581
10.1976 30.990 0.568
10.2180 31.052 0.569
10.2385 29.667 0.556
10.2589 28.948 0.549
10.2794 27.583 0.536
10.2999 27.406 0.534
10.3203 26.219 0.523
10.3408 26.323 0.524
10.3613 25.604 0.516
10.3817 24.927 0.510
10.4022 24.125 0.501
10.4226 24.708 0.507
10.4431 24.010 0.500
10.4636 24.271 0.503
10.4840 24.052 0.501
10.5045 23.469 0.494
10.5250 23.385 0.494
10.5454 23.750 0.497
10.5659 22.823 0.488
10.5863 23.063 0.490
10.6068 22.698 0.486
10.6273 22.406 0.483
10.6477 22.646 0.486
10.6682 21.052 0.468
10.6887 21.750 0.476
10.7091 21.771 0.476
10.7296 20.833 0.466
10.7500 20.417 0.461
10.7705 21.427 0.472
10.7910 20.104 0.458
10.8114 20.281 0.460
10.8319 19.750 0.454
10.8524 20.448 0.462
10.8728 20.875 0.466
10.8933 20.208 0.459
10.9137 19.615 0.452
10.9342 20.135 0.458
10.9547 19.990 0.456
10.9751 19.708 0.453
10.9956 19.927 0.456
11.0161 20.219 0.459
11.0365 19.521 0.451
11.0570 18.646 0.441
11.0775 19.083 0.446
11.0979 19.281 0.448
11.1184 19.333 0.449
11.1388 18.865 0.443
11.1593 18.771 0.442
11.1798 18.083 0.434
11.2002 18.698 0.441
11.2207 18.240 0.436
11.2412 18.646 0.441
11.2616 18.229 0.436
11.2821 18.156 0.435
11.3025 18.865 0.443
11.3230 17.865 0.431
11.3435 18.438 0.438
11.3639 17.750 0.430
11.3844 17.146 0.423
11.4049 17.115 0.422
11.4253 17.896 0.432
11.4458 17.417 0.426
11.4662 17.833 0.431
11.4867 17.271 0.424
11.5072 17.667 0.429
11.5276 18.000 0.433
11.5481 17.573 0.428
11.5686 17.135 0.422
11.5890 17.313 0.425
11.6095 16.188 0.411
11.6299 16.646 0.416
11.6504 17.094 0.422
11.6709 16.198 0.411
11.6913 16.792 0.418
11.7118 15.740 0.405
11.7323 15.740 0.405
11.7527 16.271 0.412
11.7732 15.896 0.407
11.7937 16.823 0.419
11.8141 16.625 0.416
11.8346 15.531 0.402
11.8550 15.781 0.405
11.8755 16.323 0.412
11.8960 15.813 0.406
11.9164 15.781 0.405
11.9369 15.792 0.406
11.9574 15.740 0.405
11.9778 16.375 0.413
11.9983 15.844 0.406
12.0187 14.927 0.394
12.0392 15.260 0.399
12.0597 15.510 0.402
12.0801 15.167 0.397
12.1006 15.531 0.402
12.1211 14.646 0.391
12.1415 15.563 0.403
12.1620 15.104 0.397
12.1824 15.323 0.400
12.2029 14.885 0.394
12.2234 15.677 0.404
12.2438 14.719 0.392
12.2643 15.302 0.399
12.2848 15.156 0.397
12.3052 15.052 0.396
12.3257 14.646 0.391
12.3461 14.115 0.383
12.3666 15.198 0.398
12.3871 14.927 0.394
12.4075 14.646 0.391
12.4280 14.313 0.386
12.4485 14.500 0.389
12.4689 13.792 0.379
12.4894 13.625 0.377
12.5098 13.510 0.375
12.5303 14.292 0.386
12.5508 14.063 0.383
12.5712 13.917 0.381
12.5917 13.854 0.380
12.6122 14.083 0.383
12.6326 14.385 0.387
12.6531 14.010 0.382
12.6736 13.385 0.373
12.6940 14.000 0.382
12.7145 13.375 0.373
12.7349 14.031 0.382
12.7554 12.813 0.365
12.7759 13.292 0.372
12.7963 13.906 0.381
12.8168 12.615 0.362
12.8373 12.865 0.366
12.8577 13.073 0.369
12.8782 13.813 0.379
12.8986 13.188 0.371
12.9191 12.750 0.364
12.9396 13.271 0.372
12.9600 13.313 0.372
12.9805 13.073 0.369
13.0010 12.865 0.366
13.0214 12.813 0.365
13.0419 12.552 0.362
13.0623 12.708 0.364
13.0828 13.219 0.371
13.1033 13.292 0.372
13.1237 12.917 0.367
13.1442 13.146 0.370
13.1647 12.740 0.364
13.1851 12.604 0.362
13.2056 12.750 0.364
13.2260 12.740 0.364
13.2465 12.135 0.356
13.2670 12.500 0.361
13.2874 12.063 0.354
13.3079 13.396 0.374
13.3284 12.500 0.361
13.3488 12.156 0.356
13.3693 12.323 0.358
13.3897 12.646 0.363
13.4102 12.219 0.357
13.4307 11.927 0.352
13.4511 12.000 0.354
13.4716 12.979 0.368
13.4921 11.750 0.350
13.5125 12.792 0.365
13.5330 12.188 0.356
13.5535 11.969 0.353
13.5739 12.323 0.358
13.5944 11.990 0.353
13.6148 12.198 0.356
13.6353 11.698 0.349
13.6558 11.938 0.353
13.6762 11.990 0.353
13.6967 11.979 0.353
13.7172 11.708 0.349
13.7376 11.073 0.340
13.7581 11.667 0.349
13.7785 12.240 0.357
13.7990 12.615 0.362
13.8195 11.271 0.343
13.8399 11.417 0.345
13.8604 11.979 0.353
13.8809 11.458 0.345
13.9013 11.177 0.341
13.9218 12.042 0.354
13.9422 10.875 0.337
13.9627 11.885 0.352
13.9832 11.146 0.341
14.0036 11.698 0.349
14.0241 11.313 0.343
14.0446 11.448 0.345
14.0650 11.167 0.341
14.0855 11.271 0.343
14.1059 11.479 0.346
14.1264 11.698 0.349
14.1469 11.427 0.345
14.1673 11.344 0.344
14.1878 11.260 0.342
14.2083 11.167 0.341
14.2287 11.240 0.342
14.2492 11.354 0.344
14.2696 11.198 0.342
14.2901 10.771 0.335
14.3106 10.625 0.333
14.3310 10.948 0.338
14.3515 10.781 0.335
14.3720 10.458 0.330
14.3924 11.479 0.346
14.4129 10.719 0.334
14.4334 10.323 0.328
14.4538 11.406 0.345
14.4743 10.406 0.329
14.4947 10.698 0.334
14.5152 10.708 0.334
14.5357 10.948 0.338
14.5561 10.875 0.337
14.5766 11.135 0.341
14.5971 10.396 0.329
14.6175 10.563 0.332
14.6380 11.208 0.342
14.6584 10.927 0.337
14.6789 10.365 0.329
14.6994 11.115 0.340
14.7198 10.448 0.330
14.7403 10.573 0.332
14.7608 10.646 0.333
14.7812 10.604 0.332
14.8017 10.667 0.333
14.8221 10.740 0.334
14.8426 9.844 0.320
14.8631 10.479 0.330
14.8835 10.083 0.324
14.9040 9.885 0.321
14.9245 10.948 0.338
14.9449 10.646 0.333
14.9654 11.052 0.339
14.9858 10.115 0.325
15.0063 10.365 0.329
15.0268 10.406 0.329
15.0472 10.250 0.327
15.0677 11.073 0.340
15.0882 10.865 0.336
15.1086 10.271 0.327
15.1291 10.615 0.333
15.1495 9.948 0.322
15.1700 9.667 0.317
15.1905 10.625 0.333
15.2109 10.490 0.331
15.2314 10.188 0.326
15.2519 10.281 0.327
15.2723 9.448 0.314
15.2928 10.646 0.333
15.3133 10.000 0.323
15.3337 11.177 0.341
15.3542 10.323 0.328
15.3746 10.958 0.338
15.3951 10.573 0.332
15.4156 10.125 0.325
15.4360 10.656 0.333
15.4565 9.698 0.318
15.4770 9.771 0.319
15.4974 9.677 0.317
15.5179 10.135 0.325
15.5383 10.135 0.325
15.5588 10.573 0.332
15.5793 10.573 0.332
15.5997 10.521 0.331
15.6202 10.365 0.329
15.6407 10.594 0.332
15.6611 10.052 0.324
15.6816 11.021 0.339
15.7020 11.156 0.341
15.7225 12.000 0.354
15.7430 12.146 0.356
15.7634 12.396 0.359
15.7839 12.427 0.360
15.8044 11.063 0.339
15.8248 10.906 0.337
15.8453 10.438 0.330
15.8657 10.010 0.323
15.8862 10.125 0.325
15.9067 10.219 0.326
15.9271 9.990 0.323
15.9476 9.875 0.321
15.9681 9.823 0.320
15.9885 9.438 0.314
16.0090 9.646 0.317
16.0295 9.958 0.322
16.0499 10.354 0.328
16.0704 10.000 0.323
16.0908 10.240 0.327
16.1113 9.802 0.320
16.1318 9.990 0.323
16.1522 9.521 0.315
16.1727 9.615 0.316
16.1932 10.604 0.332
16.2136 9.250 0.310
16.2341 9.813 0.320
16.2545 10.010 0.323
16.2750 9.990 0.323
16.2955 9.646 0.317
16.3159 10.042 0.323
16.3364 9.885 0.321
16.3569 9.813 0.320
16.3773 9.698 0.318
16.3978 9.531 0.315
16.4182 9.979 0.322
16.4387 9.896 0.321
16.4592 10.240 0.327
16.4796 9.563 0.316
16.5001 9.875 0.321
16.5206 10.292 0.327
16.5410 10.208 0.326
16.5615 9.740 0.319
16.5819 10.604 0.332
16.6024 10.396 0.329
16.6229 10.073 0.324
16.6433 10.042 0.323
16.6638 9.979 0.322
16.6843 9.292 0.311
16.7047 10.115 0.325
16.7252 10.042 0.323
16.7456 10.219 0.326
16.7661 10.188 0.326
16.7866 9.688 0.318
16.8070 9.750 0.319
16.8275 10.615 0.333
16.8480 10.490 0.331
16.8684 10.250 0.327
16.8889 10.135 0.325
16.9094 10.010 0.323
16.9298 9.865 0.321
16.9503 10.052 0.324
16.9707 10.250 0.327
16.9912 10.729 0.334
17.0117 9.990 0.323
17.0321 10.375 0.329
17.0526 10.302 0.328
17.0731 10.063 0.324
17.0935 10.115 0.325
17.1140 10.406 0.329
17.1344 9.917 0.321
17.1549 10.344 0.328
17.1754 10.615 0.333
17.1958 11.490 0.346
17.2163 11.240 0.342
17.2368 10.875 0.337
17.2572 11.042 0.339
17.2777 10.583 0.332
17.2981 11.229 0.342
17.3186 10.750 0.335
17.3391 11.219 0.342
17.3595 11.229 0.342
17.3800 11.635 0.348
17.4005 11.052 0.339
17.4209 11.375 0.344
17.4414 11.604 0.348
17.4618 11.656 0.348
17.4823 11.354 0.344
17.5028 11.292 0.343
17.5232 11.865 0.352
17.5437 13.073 0.369
17.5642 11.802 0.351
17.5846 13.042 0.369
17.6051 12.750 0.364
17.6255 12.771 0.365
17.6460 12.979 0.368
17.6665 12.656 0.363
17.6869 13.542 0.376
17.7074 13.448 0.374
17.7279 14.531 0.389
17.7483 13.990 0.382
17.7688 15.281 0.399
17.7893 15.813 0.406
17.8097 15.771 0.405
17.8302 15.427 0.401
17.8506 16.188 0.411
17.8711 16.104 0.410
17.8916 17.135 0.422
17.9120 16.490 0.414
17.9325 17.135 0.422
17.9530 17.021 0.421
17.9734 18.750 0.442
17.9939 19.396 0.449
18.0143 20.677 0.464
18.0348 20.823 0.466
18.0553 22.958 0.489
18.0757 23.052 0.490
18.0962 22.542 0.485
18.1167 21.688 0.475
18.1371 20.573 0.463
18.1576 20.865 0.466
18.1780 20.490 0.462
18.1985 21.646 0.475
18.2190 21.885 0.477
18.2394 20.604 0.463
18.2599 22.229 0.481
18.2804 21.854 0.477
18.3008 21.802 0.477
18.3213 22.531 0.484
18.3417 23.250 0.492
18.3622 23.292 0.493
18.3827 22.771 0.487
18.4031 23.271 0.492
18.4236 23.677 0.497
18.4441 23.073 0.490
18.4645 23.052 0.490
18.4850 22.865 0.488
18.5054 23.854 0.498
18.5259 24.875 0.509
18.5464 25.760 0.518
18.5668 26.469 0.525
18.5873 25.740 0.518
18.6078 26.438 0.525
18.6282 27.135 0.532
18.6487 26.302 0.523
18.6692 25.490 0.515
18.6896 25.479 0.515
18.7101 23.885 0.499
18.7305 24.719 0.507
18.7510 24.052 0.501
18.7715 23.292 0.493
18.7919 22.865 0.488
18.8124 22.531 0.484
18.8329 23.229 0.492
18.8533 22.271 0.482
18.8738 21.396 0.472
18.8942 20.813 0.466
18.9147 21.656 0.475
18.9352 20.438 0.461
18.9556 19.854 0.455
18.9761 20.094 0.458
18.9966 19.385 0.449
19.0170 19.198 0.447
19.0375 18.906 0.444
19.0579 19.229 0.448
19.0784 18.156 0.435
19.0989 18.729 0.442
19.1193 18.844 0.443
19.1398 18.271 0.436
19.1603 19.063 0.446
19.1807 18.260 0.436
19.2012 19.354 0.449
19.2216 18.073 0.434
19.2421 18.604 0.440
19.2626 18.604 0.440
19.2830 17.438 0.426
19.3035 17.396 0.426
19.3240 17.917 0.432
19.3444 18.938 0.444
19.3649 18.188 0.435
19.3853 17.802 0.431
19.4058 19.240 0.448
19.4263 18.906 0.444
19.4467 19.240 0.448
19.4672 19.813 0.454
19.4877 19.698 0.453
19.5081 20.615 0.463
19.5286 22.094 0.480
19.5491 23.031 0.490
19.5695 23.021 0.490
19.5900 24.365 0.504
19.6104 25.365 0.514
19.6309 27.104 0.531
19.6514 28.375 0.544
19.6718 31.583 0.574
19.6923 34.844 0.602
19.7128 40.281 0.648
19.7332 48.031 0.707
19.7537 61.500 0.800
19.7741 84.469 0.938
19.7946 117.427 1.106
19.8151 151.260 1.255
19.8355 145.250 1.230
19.8560 116.010 1.099
19.8765 96.958 1.005
19.8969 67.198 0.837
19.9174 44.052 0.677
19.9378 33.979 0.595
19.9583 29.021 0.550
19.9788 26.208 0.522
19.9992 23.135 0.491
20.0197 22.427 0.483
20.0402 20.969 0.467
20.0606 20.479 0.462
20.0811 19.427 0.450
20.1015 18.615 0.440
20.1220 19.188 0.447
20.1425 19.396 0.449
20.1629 19.521 0.451
20.1834 19.792 0.454
20.2039 19.958 0.456
20.2243 21.229 0.470
20.2448 21.385 0.472
20.2653 21.938 0.478
20.2857 21.198 0.470
20.3062 22.135 0.480
20.3266 22.833 0.488
20.3471 22.406 0.483
20.3676 23.208 0.492
20.3880 22.719 0.486
20.4085 23.823 0.498
20.4290 20.969 0.467
20.4494 22.615 0.485
20.4699 21.500 0.473
20.4903 21.385 0.472
20.5108 20.083 0.457
20.5313 19.854 0.455
20.5517 19.417 0.450
20.5722 18.500 0.439
20.5927 17.792 0.430
20.6131 17.146 0.423
20.6336 17.573 0.428
20.6540 16.375 0.413
20.6745 15.333 0.400
20.6950 14.760 0.392
20.7154 15.208 0.398
20.7359 13.948 0.381
20.7564 14.146 0.384
20.7768 13.927 0.381
20.7973 13.635 0.377
20.8177 13.354 0.373
20.8382 12.094 0.355
20.8587 12.115 0.355
20.8791 12.969 0.368
20.8996 12.313 0.358
20.9201 12.583 0.362
20.9405 11.615 0.348
20.9610 11.542 0.347
20.9814 11.958 0.353
21.0019 11.583 0.347
21.0224 10.906 0.337
21.0428 10.979 0.338
21.0633 11.292 0.343
21.0838 11.323 0.343
21.1042 11.656 0.348
21.1247 11.208 0.342
21.1452 11.198 0.342
21.1656 10.594 0.332
21.1861 10.885 0.337
21.2065 11.167 0.341
21.2270 10.938 0.338
21.2475 10.781 0.335
21.2679 11.188 0.341
21.2884 10.021 0.323
21.3089 10.573 0.332
21.3293 10.500 0.331
21.3498 10.667 0.333
21.3702 10.583 0.332
21.3907 10.688 0.334
21.4112 11.042 0.339
21.4316 10.719 0.334
21.4521 10.396 0.329
21.4726 10.500 0.331
21.4930 10.125 0.325
21.5135 10.406 0.329
21.5339 10.635 0.333
21.5544 10.552 0.332
21.5749 10.708 0.334
21.5953 10.458 0.330
21.6158 10.479 0.330
21.6363 10.938 0.338
21.6567 10.625 0.333
21.6772 10.760 0.335
21.6976 10.240 0.327
21.7181 10.698 0.334
21.7386 10.646 0.333
21.7590 10.604 0.332
21.7795 10.365 0.329
21.8000 11.344 0.344
21.8204 10.385 0.329
21.8409 10.802 0.335
21.8613 11.740 0.350
21.8818 11.635 0.348
21.9023 11.177 0.341
21.9227 11.302 0.343
21.9432 12.344 0.359
21.9637 12.594 0.362
21.9841 12.177 0.356
22.0046 12.313 0.358
22.0251 13.792 0.379
22.0455 15.250 0.399
22.0660 17.740 0.430
22.0864 18.948 0.444
22.1069 24.521 0.505
22.1274 31.698 0.575
22.1478 39.750 0.643
22.1683 46.500 0.696
22.1888 43.615 0.674
22.2092 38.813 0.636
22.2297 34.740 0.602
22.2501 29.031 0.550
22.2706 23.625 0.496
22.2911 20.250 0.459
22.3115 18.323 0.437
22.3320 17.375 0.425
22.3525 16.135 0.410
22.3729 14.906 0.394
22.3934 14.510 0.389
22.4138 14.479 0.388
22.4343 13.479 0.375
22.4548 13.615 0.377
22.4752 13.000 0.368
22.4957 12.813 0.365
22.5162 12.865 0.366
22.5366 12.729 0.364
22.5571 11.698 0.349
22.5775 12.594 0.362
22.5980 12.094 0.355
22.6185 11.750 0.350
22.6389 11.333 0.344
22.6594 11.615 0.348
22.6799 11.094 0.340
22.7003 10.781 0.335
22.7208 11.281 0.343
22.7412 11.667 0.349
22.7617 11.531 0.347
22.7822 11.854 0.351
22.8026 11.333 0.344
22.8231 10.927 0.337
22.8436 11.969 0.353
22.8640 11.354 0.344
22.8845 11.760 0.350
22.9050 12.000 0.354
22.9254 12.240 0.357
22.9459 11.792 0.350
22.9663 11.271 0.343
22.9868 10.688 0.334
23.0073 10.719 0.334
23.0277 10.833 0.336
23.0482 10.104 0.324
23.0687 10.417 0.329
23.0891 10.313 0.328
23.1096 10.531 0.331
23.1300 10.771 0.335
23.1505 10.052 0.324
23.1710 10.188 0.326
23.1914 10.448 0.330
23.2119 9.688 0.318
23.2324 9.792 0.319
23.2528 9.771 0.319
23.2733 10.229 0.326
23.2937 9.990 0.323
23.3142 10.292 0.327
23.3347 9.969 0.322
23.3551 10.510 0.331
23.3756 10.740 0.334
23.3961 9.938 0.322
23.4165 10.073 0.324
23.4370 10.156 0.325
23.4574 10.552 0.332
23.4779 10.042 0.323
23.4984 10.625 0.333
23.5188 10.146 0.325
23.5393 10.365 0.329
23.5598 10.896 0.337
23.5802 10.969 0.338
23.6007 11.083 0.340
23.6211 11.583 0.347
23.6416 11.719 0.349
23.6621 11.250 0.342
23.6825 11.417 0.345
23.7030 10.573 0.332
23.7235 10.333 0.328
23.7439 9.938 0.322
23.7644 9.854 0.320
23.7849 9.604 0.316
23.8053 9.104 0.308
23.8258 8.906 0.305
23.8462 8.521 0.298
23.8667 9.094 0.308
23.8872 9.115 0.308
23.9076 9.073 0.307
23.9281 8.813 0.303
23.9486 8.625 0.300
23.9690 8.885 0.304
23.9895 8.375 0.295
24.0099 8.594 0.299
24.0304 8.646 0.300
24.0509 8.417 0.296
24.0713 8.479 0.297
24.0918 8.958 0.305
24.1123 8.792 0.303
24.1327 8.385 0.296
24.1532 9.010 0.306
24.1736 8.938 0.305
24.1941 8.500 0.298
24.2146 9.594 0.316
24.2350 9.156 0.309
24.2555 9.729 0.318
24.2760 10.813 0.336
24.2964 11.385 0.344
24.3169 11.792 0.350
24.3373 10.635 0.333
24.3578 10.615 0.333
24.3783 9.917 0.321
24.3987 9.844 0.320
24.4192 9.208 0.310
24.4397 8.833 0.303
24.4601 8.573 0.299
24.4806 8.510 0.298
24.5011 8.458 0.297
24.5215 8.396 0.296
24.5420 8.229 0.293
24.5624 7.938 0.288
24.5829 7.958 0.288
24.6034 7.927 0.287
24.6238 8.563 0.299
24.6443 8.208 0.292
24.6648 8.177 0.292
24.6852 8.146 0.291
24.7057 8.458 0.297
24.7261 8.198 0.292
24.7466 7.854 0.286
24.7671 7.896 0.287
24.7875 8.031 0.289
24.8080 7.740 0.284
24.8285 8.042 0.289
24.8489 7.927 0.287
24.8694 8.563 0.299
24.8898 8.042 0.289
24.9103 7.865 0.286
24.9308 7.500 0.280
24.9512 7.417 0.278
24.9717 7.646 0.282
24.9922 8.354 0.295
25.0126 8.104 0.291
25.0331 7.802 0.285
25.0535 7.667 0.283
25.0740 7.458 0.279
25.0945 8.125 0.291
25.1149 7.844 0.286
25.1354 7.656 0.282
25.1559 7.854 0.286
25.1763 7.760 0.284
25.1968 7.667 0.283
25.2172 7.563 0.281
25.2377 7.354 0.277
25.2582 8.188 0.292
25.2786 8.208 0.292
25.2991 7.958 0.288
25.3196 7.333 0.276
25.3400 7.896 0.287
25.3605 7.896 0.287
25.3810 7.708 0.283
25.4014 7.990 0.288
25.4219 7.552 0.280
25.4423 7.708 0.283
25.4628 7.594 0.281
25.4833 7.500 0.280
25.5037 8.438 0.296
25.5242 8.104 0.291
25.5447 7.813 0.285
25.5651 7.948 0.288
25.5856 8.115 0.291
25.6060 8.333 0.295
25.6265 8.333 0.295
25.6470 8.469 0.297
25.6674 7.958 0.288
25.6879 7.740 0.284
25.7084 7.344 0.277
25.7288 7.323 0.276
25.7493 7.385 0.277
25.7697 7.135 0.273
25.7902 7.479 0.279
25.8107 7.167 0.273
25.8311 8.000 0.289
25.8516 7.531 0.280
25.8721 7.438 0.278
25.8925 7.615 0.282
25.9130 7.635 0.282
25.9334 7.531 0.280
25.9539 7.615 0.282
25.9744 7.573 0.281
25.9948 7.938 0.288
26.0153 7.427 0.278
26.0358 7.844 0.286
26.0562 8.104 0.291
26.0767 7.781 0.285
26.0971 7.823 0.285
26.1176 7.469 0.279
26.1381 7.365 0.277
26.1585 7.448 0.279
26.1790 7.625 0.282
26.1995 7.240 0.275
26.2199 7.313 0.276
26.2404 7.948 0.288
26.2609 7.813 0.285
26.2813 7.281 0.275
26.3018 7.656 0.282
26.3222 7.438 0.278
26.3427 8.115 0.291
26.3632 7.385 0.277
26.3836 8.010 0.289
26.4041 7.604 0.281
26.4246 7.979 0.288
26.4450 7.896 0.287
26.4655 8.031 0.289
26.4859 7.510 0.280
26.5064 7.760 0.284
26.5269 7.896 0.287
26.5473 8.198 0.292
26.5678 7.698 0.283
26.5883 8.375 0.295
26.6087 7.490 0.279
26.6292 7.573 0.281
26.6496 7.844 0.286
26.6701 7.563 0.281
26.6906 7.906 0.287
26.7110 8.052 0.290
26.7315 7.573 0.281
26.7520 7.948 0.288
26.7724 8.323 0.294
26.7929 7.594 0.281
26.8133 8.052 0.290
26.8338 7.802 0.285
26.8543 7.813 0.285
26.8747 7.917 0.287
26.8952 7.875 0.286
26.9157 7.823 0.285
26.9361 7.938 0.288
26.9566 7.802 0.285
26.9770 7.729 0.284
26.9975 8.052 0.290
27.0180 8.490 0.297
27.0384 7.708 0.283
27.0589 8.094 0.290
27.0794 7.969 0.288
27.0998 7.823 0.285
27.1203 7.854 0.286
27.1408 7.563 0.281
27.1612 7.865 0.286
27.1817 8.135 0.291
27.2021 7.990 0.288
27.2226 7.552 0.280
27.2431 8.333 0.295
27.2635 7.646 0.282
27.2840 7.583 0.281
27.3045 7.250 0.275
27.3249 7.625 0.282
27.3454 7.552 0.280
27.3658 7.948 0.288
27.3863 7.958 0.288
27.4068 7.740 0.284
27.4272 7.917 0.287
27.4477 7.677 0.283
27.4682 7.708 0.283
27.4886 7.635 0.282
27.5091 8.333 0.295
27.5295 8.177 0.292
27.5500 8.083 0.290
27.5705 7.875 0.286
27.5909 7.365 0.277
27.6114 7.677 0.283
27.6319 7.521 0.280
27.6523 7.875 0.286
27.6728 7.927 0.287
27.6932 7.594 0.281
27.7137 8.344 0.295
27.7342 7.573 0.281
27.7546 7.531 0.280
27.7751 7.677 0.283
27.7956 7.625 0.282
27.8160 7.458 0.279
27.8365 7.573 0.281
27.8569 7.302 0.276
27.8774 7.542 0.280
27.8979 7.313 0.276
27.9183 7.948 0.288
27.9388 7.604 0.281
27.9593 7.438 0.278
27.9797 7.760 0.284
28.0002 8.250 0.293
28.0207 7.542 0.280
28.0411 7.073 0.271
28.0616 7.125 0.272
28.0820 7.438 0.278
28.1025 7.646 0.282
28.1230 7.521 0.280
28.1434 7.667 0.283
28.1639 6.979 0.270
28.1844 7.313 0.276
28.2048 7.135 0.273
28.2253 6.875 0.268
28.2457 7.146 0.273
28.2662 6.958 0.269
28.2867 6.719 0.265
28.3071 7.052 0.271
28.3276 7.771 0.285
28.3481 6.990 0.270
28.3685 7.094 0.272
28.3890 7.448 0.279
28.4094 7.000 0.270
28.4299 7.323 0.276
28.4504 7.250 0.275
28.4708 7.115 0.272
28.4913 7.167 0.273
28.5118 7.375 0.277
28.5322 6.948 0.269
28.5527 7.042 0.271
28.5731 6.969 0.269
28.5936 6.781 0.266
28.6141 7.521 0.280
28.6345 7.479 0.279
28.6550 7.729 0.284
28.6755 7.406 0.278
28.6959 7.531 0.280
28.7164 6.875 0.268
28.7368 7.531 0.280
28.7573 7.219 0.274
28.7778 7.198 0.274
28.7982 7.198 0.274
28.8187 7.208 0.274
28.8392 6.719 0.265
28.8596 6.875 0.268
28.8801 7.396 0.278
28.9006 6.813 0.266
28.9210 7.010 0.270
28.9415 6.927 0.269
28.9619 6.917 0.268
28.9824 7.479 0.279
29.0029 7.146 0.273
29.0233 7.271 0.275
29.0438 7.063 0.271
29.0643 6.885 0.268
29.0847 6.698 0.264
29.1052 7.313 0.276
29.1256 7.177 0.273
29.1461 6.750 0.265
29.1666 7.000 0.270
29.1870 6.708 0.264
29.2075 7.115 0.272
29.2280 7.438 0.278
29.2484 7.854 0.286
29.2689 8.125 0.291
29.2893 8.375 0.295
29.3098 8.583 0.299
29.3303 9.156 0.309
29.3507 8.094 0.290
29.3712 8.635 0.300
29.3917 8.271 0.294
29.4121 8.250 0.293
29.4326 7.542 0.280
29.4530 7.313 0.276
29.4735 6.938 0.269
29.4940 7.125 0.272
29.5144 6.542 0.261
29.5349 6.625 0.263
29.5554 7.188 0.274
29.5758 6.813 0.266
29.5963 6.469 0.260
29.6168 6.719 0.265
29.6372 6.698 0.264
29.6577 6.635 0.263
29.6781 7.417 0.278
29.6986 6.771 0.266
29.7191 6.229 0.255
29.7395 6.458 0.259
29.7600 6.323 0.257
29.7805 7.021 0.270
29.8009 6.958 0.269
29.8214 7.115 0.272
29.8418 6.125 0.253
29.8623 6.802 0.266
29.8828 6.073 0.252
29.9032 6.292 0.256
29.9237 6.635 0.263
29.9442 6.792 0.266
29.9646 6.708 0.264
29.9851 6.875 0.268
30.0055 6.833 0.267
30.0260 6.563 0.261
30.0465 6.604 0.262
30.0669 6.521 0.261
30.0874 6.167 0.253
30.1079 6.698 0.264
30.1283 6.375 0.258
30.1488 6.125 0.253
30.1692 6.677 0.264
30.1897 6.313 0.256
30.2102 6.594 0.262
30.2306 6.458 0.259
30.2511 6.688 0.264
30.2716 6.042 0.251
30.2920 6.531 0.261
30.3125 7.260 0.275
30.3329 6.729 0.265
30.3534 6.948 0.269
30.3739 6.177 0.254
30.3943 6.521 0.261
30.4148 6.542 0.261
30.4353 6.635 0.263
30.4557 6.542 0.261
30.4762 6.885 0.268
30.4967 6.885 0.268
30.5171 6.365 0.257
30.5376 5.823 0.246
30.5580 7.281 0.275
30.5785 6.469 0.260
30.5990 6.240 0.255
30.6194 6.979 0.270
30.6399 6.896 0.268
30.6604 6.917 0.268
30.6808 7.031 0.271
30.7013 7.135 0.273
30.7217 7.083 0.272
30.7422 7.240 0.275
30.7627 7.979 0.288
30.7831 7.958 0.288
30.8036 8.406 0.296
30.8241 8.781 0.302
30.8445 9.385 0.313
30.8650 10.188 0.326
30.8854 11.635 0.348
30.9059 12.948 0.367
30.9264 16.563 0.415
30.9468 23.188 0.491
30.9673 34.438 0.599
30.9878 47.292 0.702
31.0082 56.313 0.766
31.0287 53.469 0.746
31.0491 47.896 0.706
31.0696 42.646 0.667
31.0901 39.052 0.638
31.1105 31.979 0.577
31.1310 23.438 0.494
31.1515 17.135 0.422
31.1719 13.688 0.378
31.1924 10.938 0.338
31.2128 10.021 0.323
31.2333 9.281 0.311
31.2538 8.740 0.302
31.2742 7.979 0.288
31.2947 7.760 0.284
31.3152 7.813 0.285
31.3356 7.708 0.283
31.3561 7.240 0.275
31.3766 6.865 0.267
31.3970 6.979 0.270
31.4175 7.052 0.271
31.4379 6.594 0.262
31.4584 6.677 0.264
31.4789 6.740 0.265
31.4993 6.635 0.263
31.5198 6.750 0.265
31.5403 6.990 0.270
31.5607 7.094 0.272
31.5812 6.448 0.259
31.6016 6.865 0.267
31.6221 6.625 0.263
31.6426 6.708 0.264
31.6630 6.813 0.266
31.6835 6.469 0.260
31.7040 6.292 0.256
31.7244 6.500 0.260
31.7449 6.750 0.265
31.7653 6.521 0.261
31.7858 6.354 0.257
31.8063 6.604 0.262
31.8267 6.688 0.264
31.8472 7.021 0.270
31.8677 6.271 0.256
31.8881 7.240 0.275
31.9086 7.094 0.272
31.9290 6.583 0.262
31.9495 6.896 0.268
31.9700 6.833 0.267
31.9904 6.792 0.266
32.0109 7.292 0.276
32.0314 7.688 0.283
32.0518 7.948 0.288
32.0723 7.813 0.285
32.0927 8.490 0.297
32.1132 8.615 0.300
32.1337 7.792 0.285
32.1541 7.979 0.288
32.1746 8.615 0.300
32.1951 8.469 0.297
32.2155 8.240 0.293
32.2360 8.396 0.296
32.2565 9.021 0.307
32.2769 8.646 0.300
32.2974 8.677 0.301
32.3178 8.260 0.293
32.3383 8.469 0.297
32.3588 8.479 0.297
32.3792 8.635 0.300
32.3997 9.292 0.311
32.4202 10.573 0.332
32.4406 10.885 0.337
32.4611 12.333 0.358
32.4815 13.323 0.373
32.5020 14.531 0.389
32.5225 15.292 0.399
32.5429 17.479 0.427
32.5634 19.417 0.450
32.5839 22.927 0.489
32.6043 23.698 0.497
32.6248 23.417 0.494
32.6452 18.854 0.443
32.6657 16.906 0.420
32.6862 16.323 0.412
32.7066 14.260 0.385
32.7271 12.094 0.355
32.7476 10.292 0.327
32.7680 8.760 0.302
32.7885 8.219 0.293
32.8089 8.083 0.290
32.8294 8.156 0.291
32.8499 7.615 0.282
32.8703 7.104 0.272
32.8908 6.854 0.267
32.9113 6.979 0.270
32.9317 6.688 0.264
32.9522 6.750 0.265
32.9726 6.781 0.266
32.9931 6.427 0.259
33.0136 6.500 0.260
33.0340 6.438 0.259
33.0545 6.740 0.265
33.0750 6.302 0.256
33.0954 6.385 0.258
33.1159 7.000 0.270
33.1364 6.979 0.270
33.1568 6.542 0.261
33.1773 6.563 0.261
33.1977 6.510 0.260
33.2182 6.427 0.259
33.2387 5.875 0.247
33.2591 6.635 0.263
33.2796 6.323 0.257
33.3001 6.750 0.265
33.3205 6.323 0.257
33.3410 6.531 0.261
33.3614 6.760 0.265
33.3819 6.635 0.263
33.4024 6.396 0.258
33.4228 6.896 0.268
33.4433 6.510 0.260
33.4638 6.292 0.256
33.4842 6.490 0.260
33.5047 6.302 0.256
33.5251 6.646 0.263
33.5456 6.208 0.254
33.5661 5.771 0.245
33.5865 6.104 0.252
33.6070 6.302 0.256
33.6275 6.188 0.254
33.6479 6.094 0.252
33.6684 6.344 0.257
33.6888 6.042 0.251
33.7093 6.604 0.262
33.7298 6.729 0.265
33.7502 5.844 0.247
33.7707 6.000 0.250
33.7912 6.167 0.253
33.8116 6.354 0.257
33.8321 5.729 0.244
33.8526 5.625 0.242
33.8730 5.813 0.246
33.8935 6.292 0.256
33.9139 6.302 0.256
33.9344 5.740 0.245
33.9549 6.146 0.253
33.9753 6.083 0.252
33.9958 5.854 0.247
34.0163 6.344 0.257
34.0367 5.625 0.242
34.0572 6.427 0.259
34.0776 6.167 0.253
34.0981 6.000 0.250
34.1186 6.167 0.253
34.1390 6.229 0.255
34.1595 6.125 0.253
34.1800 6.344 0.257
34.2004 6.427 0.259
34.2209 6.406 0.258
34.2413 6.708 0.264
34.2618 6.458 0.259
34.2823 6.469 0.260
34.3027 6.458 0.259
34.3232 6.156 0.253
34.3437 5.906 0.248
34.3641 5.917 0.248
34.3846 6.698 0.264
34.4050 6.333 0.257
34.4255 6.615 0.262
34.4460 6.281 0.256
34.4664 6.281 0.256
34.4869 6.313 0.256
34.5074 6.083 0.252
34.5278 5.646 0.243
34.5483 5.854 0.247
34.5687 5.958 0.249
34.5892 6.115 0.252
34.6097 5.990 0.250
34.6301 5.708 0.244
34.6506 5.813 0.246
34.6711 5.771 0.245
34.6915 6.073 0.252
34.7120 6.104 0.252
34.7325 6.198 0.254
34.7529 6.656 0.263
34.7734 6.271 0.256
34.7938 6.083 0.252
34.8143 5.844 0.247
34.8348 6.490 0.260
34.8552 6.167 0.253
34.8757 6.583 0.262
34.8962 6.500 0.260
34.9166 6.333 0.257
34.9371 6.865 0.267
34.9575 6.594 0.262
34.9780 7.354 0.277
34.9985 6.906 0.268
35.0189 7.031 0.271
35.0394 7.083 0.272
35.0599 7.229 0.274
35.0803 6.885 0.268
35.1008 6.583 0.262
35.1212 6.813 0.266
35.1417 6.333 0.257
35.1622 6.281 0.256
35.1826 6.333 0.257
35.2031 6.417 0.259
35.2236 6.177 0.254
35.2440 6.396 0.258
35.2645 6.385 0.258
35.2849 6.490 0.260
35.3054 6.333 0.257
35.3259 6.333 0.257
35.3463 5.969 0.249
35.3668 5.938 0.249
35.3873 6.406 0.258
35.4077 6.344 0.257
35.4282 6.427 0.259
35.4486 6.635 0.263
35.4691 6.406 0.258
35.4896 6.156 0.253
35.5100 6.969 0.269
35.5305 6.552 0.261
35.5510 5.979 0.250
35.5714 6.667 0.264
35.5919 6.854 0.267
35.6124 7.021 0.270
35.6328 6.490 0.260
35.6533 7.021 0.270
35.6737 7.031 0.271
35.6942 6.479 0.260
35.7147 7.021 0.270
35.7351 6.979 0.270
35.7556 7.458 0.279
35.7761 7.760 0.284
35.7965 7.542 0.280
35.8170 7.438 0.278
35.8374 7.313 0.276
35.8579 7.531 0.280
35.8784 7.479 0.279
35.8988 8.031 0.289
35.9193 8.604 0.299
35.9398 8.990 0.306
35.9602 9.688 0.318
35.9807 9.375 0.313
36.0011 10.125 0.325
36.0216 10.271 0.327
36.0421 11.396 0.345
36.0625 11.823 0.351
36.0830 12.896 0.367
36.1035 13.823 0.379
36.1239 14.104 0.383
36.1444 14.896 0.394
36.1648 14.656 0.391
36.1853 14.854 0.393
36.2058 14.583 0.390
36.2262 14.823 0.393
36.2467 14.271 0.386
36.2672 14.771 0.392
36.2876 15.313 0.399
36.3081 14.219 0.385
36.3285 14.948 0.395
36.3490 14.802 0.393
36.3695 16.000 0.408
36.3899 16.521 0.415
36.4104 17.646 0.429
36.4309 17.875 0.432
36.4513 18.688 0.441
36.4718 19.500 0.451
36.4923 19.823 0.454
36.5127 21.490 0.473
36.5332 24.313 0.503
36.5536 26.802 0.528
36.5741 29.635 0.556
36.5946 31.031 0.569
36.6150 27.896 0.539
36.6355 25.167 0.512
36.6560 24.281 0.503
36.6764 24.938 0.510
36.6969 22.917 0.489
36.7173 21.000 0.468
36.7378 18.927 0.444
36.7583 18.990 0.445
36.7787 17.667 0.429
36.7992 16.917 0.420
36.8197 18.135 0.435
36.8401 17.531 0.427
36.8606 18.000 0.433
36.8810 18.698 0.441
36.9015 19.552 0.451
36.9220 20.135 0.458
36.9424 19.646 0.452
36.9629 21.604 0.474
36.9834 24.000 0.500
37.0038 27.833 0.538
37.0243 31.010 0.568
37.0447 34.688 0.601
37.0652 36.354 0.615
37.0857 33.677 0.592
37.1061 28.219 0.542
37.1266 26.708 0.527
37.1471 26.333 0.524
37.1675 24.333 0.503
37.1880 22.135 0.480
37.2084 17.927 0.432
37.2289 15.729 0.405
37.2494 14.271 0.386
37.2698 13.104 0.369
37.2903 11.958 0.353
37.3108 12.417 0.360
37.3312 11.406 0.345
37.3517 11.083 0.340
37.3722 11.125 0.340
37.3926 10.760 0.335
37.4131 10.563 0.332
37.4335 11.146 0.341
37.4540 10.833 0.336
37.4745 10.990 0.338
37.4949 10.010 0.323
37.5154 10.802 0.335
37.5359 10.625 0.333
37.5563 9.979 0.322
37.5768 9.677 0.317
37.5972 9.646 0.317
37.6177 10.219 0.326
37.6382 9.552 0.315
37.6586 10.229 0.326
37.6791 10.563 0.332
37.6996 10.615 0.333
37.7200 10.531 0.331
37.7405 10.458 0.330
37.7609 10.427 0.330
37.7814 10.177 0.326
37.8019 10.302 0.328
37.8223 10.250 0.327
37.8428 10.083 0.324
37.8633 10.927 0.337
37.8837 11.167 0.341
37.9042 11.125 0.340
37.9246 11.604 0.348
37.9451 13.115 0.370
37.9656 13.719 0.378
37.9860 16.042 0.409
38.0065 17.063 0.422
38.0270 16.823 0.419
38.0474 16.094 0.409
38.0679 15.281 0.399
38.0884 15.188 0.398
38.1088 14.938 0.394
38.1293 15.094 0.397
38.1497 14.000 0.382
38.1702 12.854 0.366
38.1907 13.146 0.370
38.2111 12.250 0.357
38.2316 12.625 0.363
38.2521 12.208 0.357
38.2725 12.198 0.356
38.2930 11.667 0.349
38.3134 12.479 0.361
38.3339 12.427 0.360
38.3544 12.677 0.363
38.3748 13.177 0.370
38.3953 13.438 0.374
38.4158 14.344 0.387
38.4362 15.229 0.398
38.4567 15.333 0.400
38.4771 15.021 0.396
38.4976 14.260 0.385
38.5181 13.333 0.373
38.5385 13.885 0.380
38.5590 13.292 0.372
38.5795 11.938 0.353
38.5999 12.188 0.356
38.6204 11.271 0.343
38.6408 10.542 0.331
38.6613 10.854 0.336
38.6818 10.052 0.324
38.7022 10.344 0.328
38.7227 10.073 0.324
38.7432 10.260 0.327
38.7636 9.458 0.314
38.7841 9.563 0.316
38.8045 9.677 0.317
38.8250 9.802 0.320
38.8455 9.427 0.313
38.8659 9.750 0.319
38.8864 8.938 0.305
38.9069 9.104 0.308
38.9273 9.521 0.315
38.9478 9.979 0.322
38.9683 9.552 0.315
38.9887 9.490 0.314
39.0092 9.542 0.315
39.0296 9.417 0.313
39.0501 9.156 0.309
39.0706 10.073 0.324
39.0910 8.865 0.304
39.1115 9.302 0.311
39.1320 8.854 0.304
39.1524 9.396 0.313
39.1729 9.500 0.315
39.1933 8.969 0.306
39.2138 8.698 0.301
39.2343 9.125 0.308
39.2547 8.667 0.300
39.2752 8.844 0.304
39.2957 9.167 0.309
39.3161 8.917 0.305
39.3366 8.802 0.303
39.3570 8.917 0.305
39.3775 9.500 0.315
39.3980 8.531 0.298
39.4184 9.010 0.306
39.4389 9.250 0.310
39.4594 9.135 0.308
39.4798 8.823 0.303
39.5003 9.115 0.308
39.5207 9.250 0.310
39.5412 8.552 0.298
39.5617 8.448 0.297
39.5821 8.688 0.301
39.6026 9.198 0.310
39.6231 8.552 0.298
39.6435 8.875 0.304
39.6640 9.063 0.307
39.6844 9.146 0.309
39.7049 9.708 0.318
39.7254 9.875 0.321
39.7458 10.594 0.332
39.7663 11.219 0.342
39.7868 11.521 0.346
39.8072 11.500 0.346
39.8277 10.083 0.324
39.8482 10.479 0.330
39.8686 10.281 0.327
39.8891 10.396 0.329
39.9095 9.417 0.313
39.9300 9.625 0.317
39.9505 9.208 0.310
39.9709 8.865 0.304
39.9914 9.010 0.306
40.0119 8.156 0.291
40.0323 8.906 0.305
40.0528 8.344 0.295
40.0732 8.906 0.305
40.0937 8.948 0.305
40.1142 9.115 0.308
40.1346 8.604 0.299
40.1551 8.563 0.299
40.1756 9.271 0.311
40.1960 9.677 0.317
40.2165 10.406 0.329
40.2369 10.958 0.338
40.2574 12.604 0.362
40.2779 12.698 0.364
40.2983 11.406 0.345
40.3188 10.500 0.331
40.3393 10.531 0.331
40.3597 10.427 0.330
40.3802 10.573 0.332
40.4006 10.646 0.333
40.4211 9.458 0.314
40.4416 9.167 0.309
40.4620 9.115 0.308
40.4825 8.938 0.305
40.5030 8.833 0.303
40.5234 9.042 0.307
40.5439 8.563 0.299
40.5643 8.188 0.292
40.5848 8.000 0.289
40.6053 8.552 0.298
40.6257 8.583 0.299
40.6462 8.000 0.289
40.6667 7.813 0.285
40.6871 8.104 0.291
40.7076 7.917 0.287
40.7281 8.406 0.296
40.7485 9.094 0.308
40.7690 8.063 0.290
40.7894 7.854 0.286
40.8099 8.740 0.302
40.8304 9.031 0.307
40.8508 7.885 0.287
40.8713 8.302 0.294
40.8918 8.292 0.294
40.9122 8.271 0.294
40.9327 8.260 0.293
40.9531 8.646 0.300
40.9736 8.823 0.303
40.9941 8.792 0.303
41.0145 9.354 0.312
41.0350 9.333 0.312
41.0555 10.740 0.334
41.0759 11.646 0.348
41.0964 12.781 0.365
41.1168 13.656 0.377
41.1373 13.563 0.376
41.1578 12.302 0.358
41.1782 11.260 0.342
41.1987 11.406 0.345
41.2192 10.500 0.331
41.2396 10.656 0.333
41.2601 9.667 0.317
41.2805 9.052 0.307
41.3010 8.531 0.298
41.3215 8.292 0.294
41.3419 8.521 0.298
41.3624 7.646 0.282
41.3829 7.156 0.273
41.4033 7.625 0.282
41.4238 7.688 0.283
41.4442 7.563 0.281
41.4647 7.240 0.275
41.4852 7.125 0.272
41.5056 7.302 0.276
41.5261 7.167 0.273
41.5466 6.948 0.269
41.5670 7.656 0.282
41.5875 6.885 0.268
41.6080 7.042 0.271
41.6284 7.240 0.275
41.6489 6.813 0.266
41.6693 7.604 0.281
41.6898 6.844 0.267
41.7103 7.104 0.272
41.7307 6.354 0.257
41.7512 6.844 0.267
41.7717 6.875 0.268
41.7921 6.958 0.269
41.8126 6.573 0.262
41.8330 6.979 0.270
41.8535 7.021 0.270
41.8740 6.792 0.266
41.8944 7.885 0.287
41.9149 7.188 0.274
41.9354 7.604 0.281
41.9558 7.458 0.279
41.9763 7.490 0.279
41.9967 7.583 0.281
42.0172 7.615 0.282
42.0377 7.188 0.274
42.0581 7.010 0.270
42.0786 7.104 0.272
42.0991 7.469 0.279
42.1195 7.458 0.279
42.1400 7.083 0.272
42.1604 7.229 0.274
42.1809 7.490 0.279
42.2014 7.604 0.281
42.2218 8.135 0.291
42.2423 7.813 0.285
42.2628 7.792 0.285
42.2832 8.177 0.292
42.3037 8.198 0.292
42.3242 8.052 0.290
42.3446 8.427 0.296
42.3651 8.479 0.297
42.3855 8.667 0.300
42.4060 8.906 0.305
42.4265 8.250 0.293
42.4469 8.594 0.299
42.4674 8.917 0.305
42.4879 9.427 0.313
42.5083 8.458 0.297
42.5288 9.083 0.308
42.5492 8.656 0.300
42.5697 8.385 0.296
42.5902 9.042 0.307
42.6106 9.031 0.307
42.6311 8.698 0.301
42.6516 8.771 0.302
42.6720 8.240 0.293
42.6925 8.958 0.305
42.7129 8.458 0.297
42.7334 8.896 0.304
42.7539 8.646 0.300
42.7743 8.333 0.295
42.7948 8.740 0.302
42.8153 8.510 0.298
42.8357 7.948 0.288
42.8562 8.146 0.291
42.8766 8.677 0.301
42.8971 7.969 0.288
42.9176 8.323 0.294
42.9380 7.427 0.278
42.9585 8.240 0.293
42.9790 8.448 0.297
42.9994 8.167 0.292
43.0199 8.677 0.301
43.0403 8.708 0.301
43.0608 8.177 0.292
43.0813 8.667 0.300
43.1017 8.563 0.299
43.1222 9.073 0.307
43.1427 9.844 0.320
43.1631 9.688 0.318
43.1836 10.458 0.330
43.2041 11.042 0.339
43.2245 11.344 0.344
43.2450 10.229 0.326
43.2654 10.875 0.337
43.2859 9.823 0.320
43.3064 10.573 0.332
43.3268 10.375 0.329
43.3473 11.458 0.345
43.3678 10.396 0.329
43.3882 10.469 0.330
43.4087 11.198 0.342
43.4291 10.927 0.337
43.4496 11.229 0.342
43.4701 11.635 0.348
43.4905 12.656 0.363
43.5110 13.177 0.370
43.5315 14.125 0.384
43.5519 15.438 0.401
43.5724 17.146 0.423
43.5928 19.458 0.450
43.6133 20.271 0.460
43.6338 20.417 0.461
43.6542 18.552 0.440
43.6747 16.969 0.420
43.6952 15.990 0.408
43.7156 16.365 0.413
43.7361 15.146 0.397
43.7565 14.906 0.394
43.7770 12.688 0.364
43.7975 12.031 0.354
43.8179 10.542 0.331
43.8384 10.010 0.323
43.8589 8.792 0.303
43.8793 8.875 0.304
43.8998 9.333 0.312
43.9202 8.615 0.300
43.9407 8.688 0.301
43.9612 7.979 0.288
43.9816 8.229 0.293
44.0021 7.865 0.286
44.0226 7.990 0.288
44.0430 7.927 0.287
44.0635 7.802 0.285
44.0840 7.885 0.287
44.1044 7.604 0.281
44.1249 7.771 0.285
44.1453 7.510 0.280
44.1658 7.823 0.285
44.1863 7.417 0.278
44.2067 7.156 0.273
44.2272 7.781 0.285
44.2477 7.135 0.273
44.2681 7.115 0.272
44.2886 7.542 0.280
44.3090 7.781 0.285
44.3295 7.302 0.276
44.3500 7.552 0.280
44.3704 7.354 0.277
44.3909 7.094 0.272
44.4114 7.677 0.283
44.4318 7.281 0.275
44.4523 7.083 0.272
44.4727 6.958 0.269
44.4932 7.469 0.279
44.5137 7.094 0.272
44.5341 7.188 0.274
44.5546 7.469 0.279
44.5751 7.448 0.279
44.5955 6.948 0.269
44.6160 6.750 0.265
44.6364 7.271 0.275
44.6569 7.469 0.279
44.6774 6.990 0.270
44.6978 6.802 0.266
44.7183 6.813 0.266
44.7388 6.583 0.262
44.7592 7.156 0.273
44.7797 7.167 0.273
44.8001 6.729 0.265
44.8206 6.604 0.262
44.8411 6.958 0.269
44.8615 7.542 0.280
44.8820 7.021 0.270
44.9025 6.958 0.269
44.9229 7.771 0.285
44.9434 6.844 0.267
44.9639 6.990 0.270
44.9843 7.604 0.281
45.0048 7.740 0.284
45.0252 7.198 0.274
45.0457 7.406 0.278
45.0662 7.396 0.278
45.0866 7.854 0.286
45.1071 7.698 0.283
45.1276 8.083 0.290
45.1480 7.885 0.287
45.1685 8.781 0.302
45.1889 9.010 0.306
45.2094 9.500 0.315
45.2299 10.365 0.329
45.2503 9.927 0.322
45.2708 9.229 0.310
45.2913 9.052 0.307
45.3117 8.823 0.303
45.3322 8.781 0.302
45.3526 8.750 0.302
45.3731 9.031 0.307
45.3936 7.729 0.284
45.4140 7.740 0.284
45.4345 7.302 0.276
45.4550 7.063 0.271
45.4754 7.052 0.271
45.4959 7.135 0.273
45.5163 7.010 0.270
45.5368 6.979 0.270
45.5573 7.031 0.271
45.5777 6.927 0.269
45.5982 6.594 0.262
45.6187 6.052 0.251
45.6391 6.615 0.262
45.6596 6.313 0.256
45.6800 5.938 0.249
45.7005 6.271 0.256
45.7210 6.833 0.267
45.7414 6.594 0.262
45.7619 6.740 0.265
45.7824 6.021 0.250
45.8028 6.406 0.258
45.8233 6.271 0.256
45.8438 6.177 0.254
45.8642 6.198 0.254
45.8847 6.115 0.252
45.9051 5.781 0.245
45.9256 6.458 0.259
45.9461 6.365 0.257
45.9665 5.844 0.247
45.9870 6.510 0.260
46.0075 5.719 0.244
46.0279 6.260 0.255
46.0484 5.625 0.242
46.0688 5.958 0.249
46.0893 6.500 0.260
46.1098 5.656 0.243
46.1302 6.063 0.251
46.1507 6.250 0.255
46.1712 6.365 0.257
46.1916 5.510 0.240
46.2121 5.542 0.240
46.2325 5.938 0.249
46.2530 5.677 0.243
46.2735 5.604 0.242
46.2939 5.917 0.248
46.3144 6.000 0.250
46.3349 5.250 0.234
46.3553 5.510 0.240
46.3758 6.031 0.251
46.3962 5.854 0.247
46.4167 6.219 0.255
46.4372 5.531 0.240
46.4576 5.427 0.238
46.4781 5.990 0.250
46.4986 5.552 0.240
46.5190 5.646 0.243
46.5395 5.760 0.245
46.5600 5.896 0.248
46.5804 6.219 0.255
46.6009 5.750 0.245
46.6213 5.688 0.243
46.6418 5.479 0.239
46.6623 6.375 0.258
46.6827 6.438 0.259
46.7032 5.781 0.245
46.7237 6.073 0.252
46.7441 5.646 0.243
46.7646 6.198 0.254
46.7850 6.323 0.257
46.8055 6.146 0.253
46.8260 6.063 0.251
46.8464 6.156 0.253
46.8669 5.677 0.243
46.8874 6.052 0.251
46.9078 5.740 0.245
46.9283 6.260 0.255
46.9487 5.677 0.243
46.9692 6.146 0.253
46.9897 5.865 0.247
47.0101 5.990 0.250
47.0306 5.990 0.250
47.0511 6.135 0.253
47.0715 5.740 0.245
47.0920 5.781 0.245
47.1124 6.260 0.255
47.1329 6.063 0.251
47.1534 5.844 0.247
47.1738 5.906 0.248
47.1943 6.083 0.252
47.2148 6.052 0.251
47.2352 5.885 0.248
47.2557 6.333 0.257
47.2761 6.427 0.259
47.2966 6.302 0.256
47.3171 6.625 0.263
47.3375 6.250 0.255
47.3580 6.823 0.267
47.3785 5.729 0.244
47.3989 6.458 0.259
47.4194 6.958 0.269
47.4399 6.729 0.265
47.4603 6.938 0.269
47.4808 7.323 0.276
47.5012 7.938 0.288
47.5217 8.354 0.295
47.5422 8.833 0.303
47.5626 9.802 0.320
47.5831 10.833 0.336
47.6036 10.948 0.338
47.6240 11.396 0.345
47.6445 10.323 0.328
47.6649 9.552 0.315
47.6854 9.000 0.306
47.7059 9.073 0.307
47.7263 9.479 0.314
47.7468 9.771 0.319
47.7673 9.000 0.306
47.7877 8.417 0.296
47.8082 7.813 0.285
47.8286 7.469 0.279
47.8491 8.031 0.289
47.8696 7.510 0.280
47.8900 7.073 0.271
47.9105 6.719 0.265
47.9310 6.979 0.270
47.9514 6.677 0.264
47.9719 7.208 0.274
47.9923 6.438 0.259
48.0128 6.438 0.259
48.0333 6.104 0.252
48.0537 6.167 0.253
48.0742 6.281 0.256
48.0947 6.990 0.270
48.1151 6.563 0.261
48.1356 6.552 0.261
48.1560 6.792 0.266
48.1765 6.385 0.258
48.1970 6.521 0.261
48.2174 6.396 0.258
48.2379 6.365 0.257
48.2584 6.833 0.267
48.2788 7.469 0.279
48.2993 6.813 0.266
48.3198 7.583 0.281
48.3402 8.167 0.292
48.3607 7.344 0.277
48.3811 7.208 0.274
48.4016 7.719 0.284
48.4221 7.469 0.279
48.4425 7.677 0.283
48.4630 6.865 0.267
48.4835 7.042 0.271
48.5039 6.844 0.267
48.5244 6.917 0.268
48.5448 7.135 0.273
48.5653 6.760 0.265
48.5858 6.792 0.266
48.6062 6.854 0.267
48.6267 7.292 0.276
48.6472 6.760 0.265
48.6676 7.250 0.275
48.6881 6.719 0.265
48.7085 7.250 0.275
48.7290 6.521 0.261
48.7495 6.573 0.262
48.7699 6.938 0.269
48.7904 6.719 0.265
48.8109 6.469 0.260
48.8313 6.552 0.261
48.8518 6.375 0.258
48.8722 5.969 0.249
48.8927 5.698 0.244
48.9132 5.948 0.249
48.9336 5.969 0.249
48.9541 5.396 0.237
48.9746 5.896 0.248
48.9950 5.344 0.236
49.0155 5.375 0.237
49.0359 5.677 0.243
49.0564 5.646 0.243
49.0769 5.594 0.241
49.0973 5.542 0.240
49.1178 5.604 0.242
49.1383 6.198 0.254
49.1587 5.625 0.242
49.1792 5.625 0.242
49.1997 5.417 0.238
49.2201 5.729 0.244
49.2406 5.323 0.235
49.2610 5.479 0.239
49.2815 5.958 0.249
49.3020 5.896 0.248
49.3224 5.760 0.245
49.3429 6.021 0.250
49.3634 5.958 0.249
49.3838 5.958 0.249
49.4043 6.115 0.252
49.4247 6.229 0.255
49.4452 5.958 0.249
49.4657 6.583 0.262
49.4861 5.698 0.244
49.5066 6.313 0.256
49.5271 6.323 0.257
49.5475 6.635 0.263
49.5680 6.281 0.256
49.5884 7.125 0.272
49.6089 6.969 0.269
49.6294 6.927 0.269
49.6498 7.292 0.276
49.6703 7.823 0.285
49.6908 7.781 0.285
49.7112 8.469 0.297
49.7317 9.813 0.320
49.7521 10.490 0.331
49.7726 10.833 0.336
49.7931 12.302 0.358
49.8135 14.406 0.387
49.8340 15.021 0.396
49.8545 14.656 0.391
49.8749 14.250 0.385
49.8954 13.083 0.369
49.9158 12.885 0.366
49.9363 12.542 0.361
49.9568 12.990 0.368
49.9772 12.896 0.367
49.9977 11.719 0.349
50.0182 10.510 0.331
50.0386 10.479 0.330
50.0591 9.865 0.321
50.0796 9.958 0.322
50.1000 9.688 0.318
50.1205 10.052 0.324
50.1409 9.844 0.320
50.1614 10.594 0.332
50.1819 10.229 0.326
50.2023 10.188 0.326
50.2228 9.740 0.319
50.2433 9.333 0.312
50.2637 9.167 0.309
50.2842 9.042 0.307
50.3046 8.417 0.296
50.3251 8.823 0.303
50.3456 9.250 0.310
50.3660 8.271 0.294
50.3865 7.938 0.288
50.4070 8.094 0.290
50.4274 7.802 0.285
50.4479 7.719 0.284
50.4683 7.646 0.282
50.4888 7.000 0.270
50.5093 6.750 0.265
50.5297 7.698 0.283
50.5502 7.823 0.285
50.5707 7.208 0.274
50.5911 7.260 0.275
50.6116 7.115 0.272
50.6320 7.542 0.280
50.6525 7.052 0.271
50.6730 7.375 0.277
50.6934 7.208 0.274
50.7139 7.104 0.272
50.7344 7.073 0.271
50.7548 7.198 0.274
50.7753 6.792 0.266
50.7958 6.896 0.268
50.8162 6.969 0.269
50.8367 6.167 0.253
50.8571 7.396 0.278
50.8776 7.188 0.274
50.8981 6.708 0.264
50.9185 6.833 0.267
50.9390 7.229 0.274
50.9595 7.510 0.280
50.9799 7.542 0.280
51.0004 7.521 0.280
51.0208 7.073 0.271
51.0413 6.375 0.258
51.0618 6.750 0.265
51.0822 6.708 0.264
51.1027 6.667 0.264
51.1232 6.969 0.269
51.1436 6.542 0.261
51.1641 6.344 0.257
51.1845 6.354 0.257
51.2050 6.615 0.262
51.2255 6.167 0.253
51.2459 6.177 0.254
51.2664 6.375 0.258
51.2869 6.521 0.261
51.3073 6.510 0.260
51.3278 6.510 0.260
51.3482 6.115 0.252
51.3687 6.292 0.256
51.3892 5.594 0.241
51.4096 5.938 0.249
51.4301 6.146 0.253
51.4506 5.844 0.247
51.4710 5.792 0.246
51.4915 5.896 0.248
51.5119 5.750 0.245
51.5324 5.760 0.245
51.5529 6.417 0.259
51.5733 5.781 0.245
51.5938 6.406 0.258
51.6143 6.177 0.254
51.6347 6.281 0.256
51.6552 6.563 0.261
51.6757 7.083 0.272
51.6961 6.427 0.259
51.7166 6.521 0.261
51.7370 6.594 0.262
51.7575 5.885 0.248
51.7780 6.063 0.251
51.7984 6.250 0.255
51.8189 5.813 0.246
51.8394 5.781 0.245
51.8598 5.615 0.242
51.8803 5.323 0.235
51.9007 5.469 0.239
51.9212 5.260 0.234
51.9417 5.042 0.229
51.9621 4.948 0.227
51.9826 5.260 0.234
52.0031 5.115 0.231
52.0235 5.208 0.233
52.0440 4.844 0.225
52.0644 5.021 0.229
52.0849 4.875 0.225
52.1054 5.156 0.232
52.1258 4.833 0.224
52.1463 5.188 0.232
52.1668 5.063 0.230
52.1872 5.302 0.235
52.2077 5.083 0.230
52.2281 4.958 0.227
52.2486 4.958 0.227
52.2691 5.073 0.230
52.2895 4.792 0.223
52.3100 4.958 0.227
52.3305 5.375 0.237
52.3509 5.510 0.240
52.3714 5.260 0.234
52.3918 5.292 0.235
52.4123 5.760 0.245
52.4328 4.927 0.227
52.4532 5.167 0.232
52.4737 5.323 0.235
52.4942 5.458 0.238
52.5146 5.365 0.236
52.5351 5.375 0.237
52.5556 4.938 0.227
52.5760 5.083 0.230
52.5965 5.177 0.232
52.6169 5.240 0.234
52.6374 4.469 0.216
52.6579 5.073 0.230
52.6783 4.865 0.225
52.6988 4.927 0.227
52.7193 4.948 0.227
52.7397 4.792 0.223
52.7602 4.635 0.220
52.7806 4.729 0.222
52.8011 4.677 0.221
52.8216 5.063 0.230
52.8420 4.823 0.224
52.8625 4.750 0.222
52.8830 5.198 0.233
52.9034 4.948 0.227
52.9239 4.615 0.219
52.9443 4.604 0.219
52.9648 5.000 0.228
52.9853 4.740 0.222
53.0057 4.646 0.220
53.0262 4.885 0.226
53.0467 4.656 0.220
53.0671 4.927 0.227
53.0876 5.208 0.233
53.1080 5.198 0.233
53.1285 5.021 0.229
53.1490 4.885 0.226
53.1694 4.771 0.223
53.1899 4.750 0.222
53.2104 4.615 0.219
53.2308 5.260 0.234
53.2513 4.948 0.227
53.2717 4.729 0.222
53.2922 4.865 0.225
53.3127 5.042 0.229
53.3331 4.385 0.214
53.3536 4.344 0.213
53.3741 4.573 0.218
53.3945 4.594 0.219
53.4150 4.844 0.225
53.4355 4.740 0.222
53.4559 4.531 0.217
53.4764 4.479 0.216
53.4968 4.677 0.221
53.5173 4.729 0.222
53.5378 4.771 0.223
53.5582 4.969 0.228
53.5787 4.938 0.227
53.5992 4.969 0.228
53.6196 4.688 0.221
53.6401 4.396 0.214
53.6605 4.792 0.223
53.6810 4.490 0.216
53.7015 4.552 0.218
53.7219 4.719 0.222
53.7424 4.792 0.223
53.7629 4.854 0.225
53.7833 4.208 0.209
53.8038 4.510 0.217
53.8242 4.323 0.212
53.8447 4.740 0.222
53.8652 4.708 0.221
53.8856 4.510 0.217
53.9061 4.552 0.218
53.9266 4.771 0.223
53.9470 4.823 0.224
53.9675 4.573 0.218
53.9879 4.917 0.226
54.0084 4.656 0.220
54.0289 4.823 0.224
54.0493 4.656 0.220
54.0698 4.917 0.226
54.0903 5.344 0.236
54.1107 5.063 0.230
54.1312 5.188 0.232
54.1516 5.167 0.232
54.1721 5.135 0.231
54.1926 5.104 0.231
54.2130 4.802 0.224
54.2335 5.260 0.234
54.2540 4.813 0.224
54.2744 5.031 0.229
54.2949 4.969 0.228
54.3154 4.792 0.223
54.3358 4.469 0.216
54.3563 4.406 0.214
54.3767 4.719 0.222
54.3972 4.604 0.219
54.4177 4.750 0.222
54.4381 4.625 0.219
54.4586 5.094 0.230
54.4791 4.542 0.218
54.4995 4.729 0.222
54.5200 4.427 0.215
54.5404 4.479 0.216
54.5609 4.865 0.225
54.5814 4.510 0.217
54.6018 4.375 0.213
54.6223 4.625 0.219
54.6428 4.052 0.205
54.6632 4.563 0.218
54.6837 4.594 0.219
54.7041 4.719 0.222
54.7246 4.469 0.216
54.7451 4.417 0.214
54.7655 4.594 0.219
54.7860 4.625 0.219
54.8065 4.823 0.224
54.8269 4.865 0.225
54.8474 4.760 0.223
54.8678 5.271 0.234
54.8883 4.990 0.228
54.9088 5.156 0.232
54.9292 5.208 0.233
54.9497 5.083 0.230
54.9702 5.771 0.245
54.9906 5.771 0.245
55.0111 6.052 0.251
55.0316 7.448 0.279
55.0520 7.031 0.271
55.0725 8.354 0.295
55.0929 10.323 0.328
55.1134 11.646 0.348
55.1339 13.875 0.380
55.1543 15.604 0.403
55.1748 16.063 0.409
55.1953 16.156 0.410
55.2157 14.396 0.387
55.2362 13.292 0.372
55.2566 12.969 0.368
55.2771 12.792 0.365
55.2976 11.750 0.350
55.3180 12.125 0.355
55.3385 11.719 0.349
55.3590 10.385 0.329
55.3794 9.146 0.309
55.3999 7.917 0.287
55.4203 7.542 0.280
55.4408 7.073 0.271
55.4613 5.958 0.249
55.4817 6.219 0.255
55.5022 5.760 0.245
55.5227 4.844 0.225
55.5431 5.021 0.229
55.5636 4.938 0.227
55.5840 4.844 0.225
55.6045 4.969 0.228
55.6250 4.948 0.227
55.6454 4.917 0.226
55.6659 4.552 0.218
55.6864 4.896 0.226
55.7068 4.969 0.228
55.7273 4.813 0.224
55.7477 5.000 0.228
55.7682 4.990 0.228
55.7887 5.125 0.231
55.8091 5.677 0.243
55.8296 5.969 0.249
55.8501 5.906 0.248
55.8705 5.646 0.243
55.8910 5.740 0.245
55.9115 5.333 0.236
55.9319 5.760 0.245
55.9524 6.177 0.254
55.9728 6.385 0.258
55.9933 6.760 0.265
56.0138 6.771 0.266
56.0342 6.802 0.266
56.0547 7.354 0.277
56.0752 7.365 0.277
56.0956 8.458 0.297
56.1161 9.771 0.319
56.1365 10.365 0.329
56.1570 11.583 0.347
56.1775 12.646 0.363
56.1979 12.365 0.359
56.2184 11.240 0.342
56.2389 8.833 0.303
56.2593 9.438 0.314
56.2798 8.771 0.302
56.3002 8.719 0.301
56.3207 8.823 0.303
56.3412 8.875 0.304
56.3616 8.344 0.295
56.3821 7.177 0.273
56.4026 6.313 0.256
56.4230 5.583 0.241
56.4435 5.594 0.241
56.4639 5.031 0.229
56.4844 4.927 0.227
56.5049 4.823 0.224
56.5253 4.354 0.213
56.5458 4.323 0.212
56.5663 4.521 0.217
56.5867 4.344 0.213
56.6072 4.313 0.212
56.6276 4.156 0.208
56.6481 4.646 0.220
56.6686 4.552 0.218
56.6890 4.198 0.209
56.7095 4.406 0.214
56.7300 4.406 0.214
56.7504 4.177 0.209
56.7709 4.219 0.210
56.7914 3.771 0.198
56.8118 4.510 0.217
56.8323 4.188 0.209
56.8527 4.615 0.219
56.8732 4.010 0.204
56.8937 3.729 0.197
56.9141 4.479 0.216
56.9346 3.729 0.197
56.9551 3.854 0.200
56.9755 4.260 0.211
56.9960 4.313 0.212
57.0164 3.823 0.200
57.0369 4.021 0.205
57.0574 4.177 0.209
57.0778 3.854 0.200
57.0983 4.031 0.205
57.1188 3.802 0.199
57.1392 3.948 0.203
57.1597 3.583 0.193
57.1801 3.958 0.203
57.2006 4.198 0.209
57.2211 4.208 0.209
57.2415 3.875 0.201
57.2620 4.167 0.208
57.2825 3.885 0.201
57.3029 3.990 0.204
57.3234 4.354 0.213
57.3438 4.385 0.214
57.3643 4.406 0.214
57.3848 4.104 0.207
57.4052 4.354 0.213
57.4257 3.990 0.204
57.4462 4.000 0.204
57.4666 4.094 0.207
57.4871 4.188 0.209
57.5075 4.146 0.208
57.5280 4.063 0.206
57.5485 4.792 0.223
57.5689 4.271 0.211
57.5894 4.365 0.213
57.6099 5.010 0.228
57.6303 4.448 0.215
57.6508 4.542 0.218
57.6713 4.510 0.217
57.6917 4.698 0.221
57.7122 5.073 0.230
57.7326 5.479 0.239
57.7531 5.594 0.241
57.7736 5.469 0.239
57.7940 5.281 0.235
57.8145 6.042 0.251
57.8350 6.896 0.268
57.8554 7.438 0.278
57.8759 7.854 0.286
57.8963 8.729 0.302
57.9168 8.417 0.296
57.9373 8.438 0.296
57.9577 8.052 0.290
57.9782 7.083 0.272
57.9987 7.448 0.279
58.0191 6.917 0.268
58.0396 6.990 0.270
58.0600 6.823 0.267
58.0805 6.865 0.267
58.1010 6.542 0.261
58.1214 6.646 0.263
58.1419 6.396 0.258
58.1624 5.917 0.248
58.1828 5.302 0.235
58.2033 5.563 0.241
58.2237 5.208 0.233
58.2442 5.198 0.233
58.2647 5.750 0.245
58.2851 5.219 0.233
58.3056 5.094 0.230
58.3261 5.271 0.234
58.3465 5.156 0.232
58.3670 4.927 0.227
58.3874 5.302 0.235
58.4079 5.115 0.231
58.4284 4.458 0.216
58.4488 5.583 0.241
58.4693 4.958 0.227
58.4898 5.010 0.228
58.5102 5.021 0.229
58.5307 4.479 0.216
58.5512 4.885 0.226
58.5716 5.042 0.229
58.5921 4.938 0.227
58.6125 4.479 0.216
58.6330 4.875 0.225
58.6535 4.990 0.228
58.6739 4.875 0.225
58.6944 4.688 0.221
58.7149 4.958 0.227
58.7353 5.250 0.234
58.7558 5.052 0.229
58.7762 5.167 0.232
58.7967 5.229 0.233
58.8172 5.188 0.232
58.8376 5.260 0.234
58.8581 5.094 0.230
58.8786 5.229 0.233
58.8990 4.875 0.225
58.9195 5.125 0.231
58.9399 5.177 0.232
58.9604 5.740 0.245
58.9809 5.240 0.234
59.0013 5.479 0.239
59.0218 5.125 0.231
59.0423 5.188 0.232
59.0627 5.708 0.244
59.0832 6.146 0.253
59.1036 5.781 0.245
59.1241 6.604 0.262
59.1446 6.354 0.257
59.1650 7.219 0.274
59.1855 7.354 0.277
59.2060 7.052 0.271
59.2264 7.031 0.271
59.2469 6.354 0.257
59.2674 6.021 0.250
59.2878 5.583 0.241
59.3083 5.573 0.241
59.3287 5.302 0.235
59.3492 5.354 0.236
59.3697 5.604 0.242
59.3901 5.448 0.238
59.4106 4.656 0.220
59.4311 4.521 0.217
59.4515 4.438 0.215
59.4720 4.458 0.216
59.4924 4.281 0.211
59.5129 4.094 0.207
59.5334 4.323 0.212
59.5538 3.938 0.203
59.5743 4.063 0.206
59.5948 4.313 0.212
59.6152 4.313 0.212
59.6357 4.385 0.214
59.6561 4.635 0.220
59.6766 4.563 0.218
59.6971 4.667 0.220
59.7175 4.031 0.205
59.7380 5.146 0.232
59.7585 4.865 0.225
59.7789 4.760 0.223
59.7994 5.063 0.230
59.8198 5.438 0.238
59.8403 5.823 0.246
59.8608 6.563 0.261
59.8812 6.219 0.255
59.9017 5.969 0.249
59.9222 6.281 0.256
59.9426 5.625 0.242
59.9631 5.708 0.244
59.9835 5.833 0.247
60.0040 5.417 0.238
60.0245 5.385 0.237
60.0449 6.188 0.254
60.0654 5.010 0.228
60.0859 5.250 0.234
60.1063 5.177 0.232
60.1268 4.417 0.214
60.1473 4.979 0.228
60.1677 4.604 0.219
60.1882 4.323 0.212
60.2086 4.260 0.211
60.2291 4.417 0.214
60.2496 4.635 0.220
60.2700 4.365 0.213
60.2905 3.990 0.204
60.3110 3.823 0.200
60.3314 4.573 0.218
60.3519 4.115 0.207
60.3723 4.083 0.206
60.3928 4.417 0.214
60.4133 4.010 0.204
60.4337 3.927 0.202
60.4542 4.625 0.219
60.4747 4.177 0.209
60.4951 4.375 0.213
60.5156 4.000 0.204
60.5360 4.365 0.213
60.5565 3.792 0.199
60.5770 4.042 0.205
60.5974 4.010 0.204
60.6179 4.271 0.211
60.6384 3.854 0.200
60.6588 4.052 0.205
60.6793 4.188 0.209
60.6997 4.208 0.209
60.7202 4.469 0.216
60.7407 4.052 0.205
60.7611 3.969 0.203
60.7816 4.188 0.209
60.8021 4.292 0.211
60.8225 4.594 0.219
60.8430 4.115 0.207
60.8634 3.990 0.204
60.8839 3.740 0.197
60.9044 3.740 0.197
60.9248 3.760 0.198
60.9453 3.458 0.190
60.9658 3.635 0.195
60.9862 3.885 0.201
61.0067 3.875 0.201
61.0272 3.938 0.203
61.0476 3.969 0.203
61.0681 4.052 0.205
61.0885 3.792 0.199
61.1090 3.219 0.183
61.1295 3.333 0.186
61.1499 3.188 0.182
61.1704 3.875 0.201
61.1909 3.688 0.196
61.2113 3.521 0.192
61.2318 3.667 0.195
61.2522 3.531 0.192
61.2727 3.594 0.193
61.2932 3.250 0.184
61.3136 3.552 0.192
61.3341 3.510 0.191
61.3546 3.292 0.185
61.3750 3.375 0.188
61.3955 3.240 0.184
61.4159 3.323 0.186
61.4364 3.708 0.197
61.4569 3.656 0.195
61.4773 3.406 0.188
61.4978 3.813 0.199
61.5183 3.594 0.193
61.5387 3.729 0.197
61.5592 4.083 0.206
61.5796 3.604 0.194
61.6001 3.646 0.195
61.6206 3.625 0.194
61.6410 3.365 0.187
61.6615 3.323 0.186
61.6820 3.583 0.193
61.7024 3.469 0.190
61.7229 3.260 0.184
61.7433 3.427 0.189
61.7638 3.292 0.185
61.7843 3.625 0.194
61.8047 3.250 0.184
61.8252 3.323 0.186
61.8457 3.813 0.199
61.8661 3.490 0.191
61.8866 3.385 0.188
61.9071 3.479 0.190
61.9275 3.479 0.190
61.9480 3.646 0.195
61.9684 3.854 0.200
61.9889 3.948 0.203
62.0094 3.781 0.198
62.0298 3.750 0.198
62.0503 4.167 0.208
62.0708 4.344 0.213
62.0912 3.969 0.203
62.1117 4.250 0.210
62.1321 4.521 0.217
62.1526 4.510 0.217
62.1731 4.365 0.213
62.1935 4.490 0.216
62.2140 4.385 0.214
62.2345 4.135 0.208
62.2549 4.375 0.213
62.2754 4.010 0.204
62.2958 3.875 0.201
62.3163 3.875 0.201
62.3368 3.760 0.198
62.3572 4.094 0.207
62.3777 3.875 0.201
62.3982 3.417 0.189
62.4186 3.698 0.196
62.4391 3.250 0.184
62.4595 3.479 0.190
62.4800 3.740 0.197
62.5005 3.594 0.193
62.5209 3.802 0.199
62.5414 3.344 0.187
62.5619 3.385 0.188
62.5823 3.333 0.186
62.6028 3.094 0.180
62.6232 3.396 0.188
62.6437 3.500 0.191
62.6642 3.313 0.186
62.6846 3.198 0.183
62.7051 3.313 0.186
62.7256 3.448 0.190
62.7460 3.625 0.194
62.7665 3.385 0.188
62.7870 3.583 0.193
62.8074 3.740 0.197
62.8279 3.417 0.189
62.8483 3.406 0.188
62.8688 3.260 0.184
62.8893 3.427 0.189
62.9097 3.719 0.197
62.9302 3.438 0.189
62.9507 3.729 0.197
62.9711 3.823 0.200
62.9916 3.438 0.189
63.0120 3.792 0.199
63.0325 3.594 0.193
63.0530 3.458 0.190
63.0734 4.052 0.205
63.0939 3.927 0.202
63.1144 4.042 0.205
63.1348 3.490 0.191
63.1553 3.479 0.190
63.1757 3.427 0.189
63.1962 3.396 0.188
63.2167 3.698 0.196
63.2371 3.865 0.201
63.2576 3.969 0.203
63.2781 3.771 0.198
63.2985 3.458 0.190
63.3190 4.042 0.205
63.3394 3.948 0.203
63.3599 3.865 0.201
63.3804 4.010 0.204
63.4008 4.063 0.206
63.4213 3.740 0.197
63.4418 3.750 0.198
63.4622 3.927 0.202
63.4827 4.229 0.210
63.5032 4.198 0.209
63.5236 4.146 0.208
63.5441 4.260 0.211
63.5645 3.979 0.204
63.5850 4.000 0.204
63.6055 4.365 0.213
63.6259 4.396 0.214
63.6464 4.042 0.205
63.6669 4.208 0.209
63.6873 4.219 0.210
63.7078 4.510 0.217
63.7282 4.698 0.221
63.7487 4.531 0.217
63.7692 4.969 0.228
63.7896 4.417 0.214
63.8101 4.573 0.218
63.8306 4.344 0.213
63.8510 4.427 0.215
63.8715 4.677 0.221
63.8919 4.635 0.220
63.9124 4.802 0.224
63.9329 4.573 0.218
63.9533 5.115 0.231
63.9738 4.510 0.217
63.9943 4.698 0.221
64.0147 5.146 0.232
64.0352 4.333 0.212
64.0556 4.938 0.227
64.0761 4.396 0.214
64.0966 4.625 0.219
64.1170 4.458 0.216
64.1375 4.354 0.213
64.1580 4.156 0.208
64.1784 4.635 0.220
64.1989 4.521 0.217
64.2193 4.531 0.217
64.2398 4.365 0.213
64.2603 4.146 0.208
64.2807 4.781 0.223
64.3012 4.469 0.216
64.3217 4.448 0.215
64.3421 4.417 0.214
64.3626 4.552 0.218
64.3831 4.823 0.224
64.4035 4.958 0.227
64.4240 4.656 0.220
64.4444 4.844 0.225
64.4649 4.958 0.227
64.4854 4.990 0.228
64.5058 4.865 0.225
64.5263 5.365 0.236
64.5468 5.677 0.243
64.5672 5.646 0.243
64.5877 6.385 0.258
64.6081 7.115 0.272
64.6286 7.844 0.286
64.6491 7.677 0.283
64.6695 8.104 0.291
64.6900 7.146 0.273
64.7105 6.792 0.266
64.7309 6.667 0.264
64.7514 6.313 0.256
64.7718 5.500 0.239
64.7923 6.781 0.266
64.8128 6.104 0.252
64.8332 5.823 0.246
64.8537 5.823 0.246
64.8742 5.531 0.240
64.8946 4.969 0.228
64.9151 4.885 0.226
64.9355 4.865 0.225
64.9560 4.896 0.226
64.9765 4.615 0.219
64.9969 4.115 0.207
65.0174 3.917 0.202
65.0379 4.010 0.204
65.0583 4.188 0.209
65.0788 3.708 0.197
65.0992 4.104 0.207
65.1197 3.885 0.201
65.1402 3.625 0.194
65.1606 4.156 0.208
65.1811 3.698 0.196
65.2016 3.885 0.201
65.2220 3.833 0.200
65.2425 3.688 0.196
65.2630 3.927 0.202
65.2834 3.854 0.200
65.3039 3.729 0.197
65.3243 4.104 0.207
65.3448 3.646 0.195
65.3653 3.844 0.200
65.3857 4.125 0.207
65.4062 4.052 0.205
65.4267 4.167 0.208
65.4471 4.271 0.211
65.4676 4.500 0.217
65.4880 4.635 0.220
65.5085 4.781 0.223
65.5290 4.844 0.225
65.5494 5.333 0.236
65.5699 5.583 0.241
65.5904 5.375 0.237
65.6108 5.000 0.228
65.6313 4.740 0.222
65.6517 4.521 0.217
65.6722 4.313 0.212
65.6927 4.365 0.213
65.7131 4.729 0.222
65.7336 4.521 0.217
65.7541 4.906 0.226
65.7745 4.490 0.216
65.7950 4.458 0.216
65.8154 4.000 0.204
65.8359 4.313 0.212
65.8564 4.104 0.207
65.8768 4.167 0.208
65.8973 3.979 0.204
65.9178 3.573 0.193
65.9382 3.854 0.200
65.9587 3.781 0.198
65.9791 3.708 0.197
65.9996 3.865 0.201
66.0201 3.729 0.197
66.0405 3.625 0.194
66.0610 3.344 0.187
66.0815 3.625 0.194
66.1019 3.958 0.203
66.1224 4.010 0.204
66.1429 3.594 0.193
66.1633 3.531 0.192
66.1838 3.073 0.179
66.2042 3.719 0.197
66.2247 3.625 0.194
66.2452 3.823 0.200
66.2656 3.281 0.185
66.2861 3.500 0.191
66.3066 3.656 0.195
66.3270 3.188 0.182
66.3475 3.635 0.195
66.3679 3.365 0.187
66.3884 3.354 0.187
66.4089 3.406 0.188
66.4293 3.594 0.193
66.4498 3.490 0.191
66.4703 3.281 0.185
66.4907 3.469 0.190
66.5112 3.396 0.188
66.5316 3.573 0.193
66.5521 3.479 0.190
66.5726 3.698 0.196
66.5930 3.813 0.199
66.6135 3.594 0.193
66.6340 3.969 0.203
66.6544 3.563 0.193
66.6749 3.417 0.189
66.6953 3.521 0.192
66.7158 3.271 0.185
66.7363 3.688 0.196
66.7567 3.438 0.189
66.7772 3.656 0.195
66.7977 3.896 0.201
66.8181 3.833 0.200
66.8386 3.656 0.195
66.8590 3.625 0.194
66.8795 3.740 0.197
66.9000 3.667 0.195
66.9204 4.104 0.207
66.9409 3.969 0.203
66.9614 4.229 0.210
66.9818 4.500 0.217
67.0023 4.948 0.227
67.0228 4.833 0.224
67.0432 5.542 0.240
67.0637 6.167 0.253
67.0841 6.104 0.252
67.1046 7.125 0.272
67.1251 6.917 0.268
67.1455 7.333 0.276
67.1660 7.740 0.284
67.1865 7.250 0.275
67.2069 6.802 0.266
67.2274 6.667 0.264
67.2478 6.240 0.255
67.2683 6.094 0.252
67.2888 6.063 0.251
67.3092 6.417 0.259
67.3297 6.583 0.262
67.3502 6.042 0.251
67.3706 5.875 0.247
67.3911 5.760 0.245
67.4115 5.521 0.240
67.4320 4.844 0.225
67.4525 4.719 0.222
67.4729 4.542 0.218
67.4934 4.677 0.221
67.5139 4.292 0.211
67.5343 4.500 0.217
67.5548 4.615 0.219
67.5752 4.333 0.212
67.5957 4.302 0.212
67.6162 4.031 0.205
67.6366 4.281 0.211
67.6571 4.208 0.209
67.6776 4.438 0.215
67.6980 4.427 0.215
67.7185 4.313 0.212
67.7389 3.990 0.204
67.7594 4.271 0.211
67.7799 4.333 0.212
67.8003 4.115 0.207
67.8208 4.115 0.207
67.8413 4.208 0.209
67.8617 4.427 0.215
67.8822 4.479 0.216
67.9027 4.469 0.216
67.9231 4.229 0.210
67.9436 4.031 0.205
67.9640 4.563 0.218
67.9845 4.417 0.214
68.0050 4.135 0.208
68.0254 4.448 0.215
68.0459 4.438 0.215
68.0664 4.313 0.212
68.0868 4.563 0.218
68.1073 4.385 0.214
68.1277 4.667 0.220
68.1482 4.448 0.215
68.1687 3.896 0.201
68.1891 4.438 0.215
68.2096 4.375 0.213
68.2301 4.854 0.225
68.2505 4.604 0.219
68.2710 4.885 0.226
68.2914 5.406 0.237
68.3119 5.250 0.234
68.3324 4.802 0.224
68.3528 5.531 0.240
68.3733 4.781 0.223
68.3938 4.802 0.224
68.4142 4.021 0.205
68.4347 4.302 0.212
68.4551 4.104 0.207
68.4756 4.510 0.217
68.4961 4.604 0.219
68.5165 4.573 0.218
68.5370 4.448 0.215
68.5575 4.094 0.207
68.5779 4.010 0.204
68.5984 3.802 0.199
68.6189 3.531 0.192
68.6393 3.781 0.198
68.6598 3.927 0.202
68.6802 3.385 0.188
68.7007 3.292 0.185
68.7212 3.750 0.198
68.7416 3.771 0.198
68.7621 3.865 0.201
68.7826 3.448 0.190
68.8030 3.792 0.199
68.8235 3.729 0.197
68.8439 3.500 0.191
68.8644 3.479 0.190
68.8849 4.333 0.212
68.9053 4.021 0.205
68.9258 3.906 0.202
68.9463 4.031 0.205
68.9667 4.375 0.213
68.9872 4.417 0.214
69.0076 4.552 0.218
69.0281 4.229 0.210
69.0486 4.073 0.206
69.0690 3.969 0.203
69.0895 3.792 0.199
69.1100 3.948 0.203
69.1304 4.167 0.208
69.1509 3.948 0.203
69.1713 3.458 0.190
69.1918 4.083 0.206
69.2123 4.688 0.221
69.2327 4.354 0.213
69.2532 4.229 0.210
69.2737 3.865 0.201
69.2941 3.740 0.197
69.3146 3.729 0.197
69.3350 3.781 0.198
69.3555 3.646 0.195
69.3760 3.813 0.199
69.3964 3.604 0.194
69.4169 3.979 0.204
69.4374 3.813 0.199
69.4578 3.396 0.188
69.4783 3.781 0.198
69.4988 3.375 0.188
69.5192 3.208 0.183
69.5397 3.417 0.189
69.5601 3.333 0.186
69.5806 3.469 0.190
69.6011 3.302 0.185
69.6215 3.458 0.190
69.6420 3.125 0.180
69.6625 3.396 0.188
69.6829 3.104 0.180
69.7034 3.208 0.183
69.7238 3.031 0.178
69.7443 3.406 0.188
69.7648 3.313 0.186
69.7852 3.333 0.186
69.8057 3.313 0.186
69.8262 3.125 0.180
69.8466 3.167 0.182
69.8671 3.021 0.177
69.8875 2.885 0.173
69.9080 3.354 0.187
69.9285 2.969 0.176
69.9489 3.135 0.181
69.9694 3.240 0.184
69.9899 3.375 0.188
70.0103 3.271 0.185
70.0308 3.083 0.179
70.0512 3.188 0.182
70.0717 3.208 0.183
70.0922 2.917 0.174
70.1126 2.865 0.173
70.1331 3.073 0.179
70.1536 3.448 0.190
70.1740 3.125 0.180
70.1945 3.313 0.186
70.2149 2.979 0.176
70.2354 3.083 0.179
70.2559 3.156 0.181
70.2763 3.219 0.183
70.2968 3.240 0.184
70.3173 3.083 0.179
70.3377 3.083 0.179
70.3582 3.000 0.177
70.3787 2.917 0.174
70.3991 3.292 0.185
70.4196 2.781 0.170
70.4400 3.031 0.178
70.4605 3.167 0.182
70.4810 3.094 0.180
70.5014 2.729 0.169
70.5219 3.073 0.179
70.5424 3.125 0.180
70.5628 3.031 0.178
70.5833 2.656 0.166
70.6037 2.948 0.175
70.6242 2.958 0.176
70.6447 2.677 0.167
70.6651 2.875 0.173
70.6856 2.729 0.169
70.7061 2.875 0.173
70.7265 2.906 0.174
70.7470 3.177 0.182
70.7674 2.958 0.176
70.7879 2.885 0.173
70.8084 3.031 0.178
70.8288 3.021 0.177
70.8493 2.854 0.172
70.8698 2.875 0.173
70.8902 2.875 0.173
70.9107 2.813 0.171
70.9311 3.198 0.183
70.9516 2.938 0.175
70.9721 3.208 0.183
70.9925 2.958 0.176
71.0130 3.031 0.178
71.0335 2.917 0.174
71.0539 3.010 0.177
71.0744 2.969 0.176
71.0948 3.167 0.182
71.1153 2.896 0.174
71.1358 3.177 0.182
71.1562 2.927 0.175
71.1767 2.844 0.172
71.1972 3.083 0.179
71.2176 2.604 0.165
71.2381 2.833 0.172
71.2586 2.865 0.173
71.2790 2.802 0.171
71.2995 3.188 0.182
71.3199 2.865 0.173
71.3404 3.177 0.182
71.3609 3.146 0.181
71.3813 2.906 0.174
71.4018 2.698 0.168
71.4223 2.698 0.168
71.4427 2.896 0.174
71.4632 2.938 0.175
71.4836 2.719 0.168
71.5041 2.833 0.172
71.5246 2.885 0.173
71.5450 2.948 0.175
71.5655 2.802 0.171
71.5860 2.563 0.163
71.6064 3.104 0.180
71.6269 2.698 0.168
71.6473 2.729 0.169
71.6678 2.417 0.159
71.6883 2.604 0.165
71.7087 2.844 0.172
71.7292 2.531 0.162
71.7497 2.740 0.169
71.7701 2.667 0.167
71.7906 2.729 0.169
71.8110 2.594 0.164
71.8315 2.573 0.164
71.8520 2.740 0.169
71.8724 2.781 0.170
71.8929 2.573 0.164
71.9134 2.875 0.173
71.9338 2.490 0.161
71.9543 2.927 0.175
71.9747 2.615 0.165
71.9952 2.771 0.170
72.0157 2.917 0.174
72.0361 2.969 0.176
72.0566 2.552 0.163
72.0771 2.865 0.173
72.0975 2.656 0.166
72.1180 2.698 0.168
72.1385 2.885 0.173
72.1589 2.615 0.165
72.1794 2.698 0.168
72.1998 2.667 0.167
72.2203 2.760 0.170
72.2408 2.438 0.159
72.2612 2.677 0.167
72.2817 2.844 0.172
72.3022 2.781 0.170
72.3226 2.615 0.165
72.3431 2.604 0.165
72.3635 2.615 0.165
72.3840 2.823 0.171
72.4045 2.385 0.158
72.4249 2.958 0.176
72.4454 2.708 0.168
72.4659 2.677 0.167
72.4863 2.958 0.176
72.5068 2.438 0.159
72.5272 2.885 0.173
72.5477 2.740 0.169
72.5682 2.854 0.172
72.5886 2.771 0.170
72.6091 2.813 0.171
72.6296 2.615 0.165
72.6500 2.729 0.169
72.6705 2.885 0.173
72.6909 2.760 0.170
72.7114 2.656 0.166
72.7319 3.229 0.183
72.7523 3.344 0.187
72.7728 2.885 0.173
72.7933 2.896 0.174
72.8137 2.844 0.172
72.8342 3.052 0.178
72.8547 3.021 0.177
72.8751 2.958 0.176
72.8956 3.260 0.184
72.9160 2.615 0.165
72.9365 3.073 0.179
72.9570 2.750 0.169
72.9774 2.938 0.175
72.9979 2.802 0.171
73.0184 2.854 0.172
73.0388 2.615 0.165
73.0593 2.729 0.169
73.0797 2.646 0.166
73.1002 2.740 0.169
73.1207 2.854 0.172
73.1411 2.667 0.167
73.1616 2.531 0.162
73.1821 2.469 0.160
73.2025 2.594 0.164
73.2230 2.458 0.160
73.2434 2.823 0.171
73.2639 3.073 0.179
73.2844 2.594 0.164
73.3048 2.719 0.168
73.3253 2.333 0.156
73.3458 2.479 0.161
73.3662 2.635 0.166
73.3867 2.542 0.163
73.4071 2.625 0.165
73.4276 2.188 0.151
73.4481 2.667 0.167
73.4685 2.260 0.153
73.4890 2.510 0.162
73.5095 2.490 0.161
73.5299 2.490 0.161
73.5504 2.635 0.166
73.5708 2.698 0.168
73.5913 2.781 0.170
73.6118 2.594 0.164
73.6322 2.417 0.159
73.6527 2.240 0.153
73.6732 2.542 0.163
73.6936 2.396 0.158
73.7141 2.667 0.167
73.7346 2.354 0.157
73.7550 2.542 0.163
73.7755 2.771 0.170
73.7959 2.271 0.154
73.8164 2.656 0.166
73.8369 2.583 0.164
73.8573 2.583 0.164
73.8778 2.573 0.164
73.8983 2.844 0.172
73.9187 2.698 0.168
73.9392 2.656 0.166
73.9596 2.802 0.171
73.9801 2.385 0.158
74.0006 2.458 0.160
74.0210 2.854 0.172
74.0415 2.833 0.172
74.0620 2.885 0.173
74.0824 2.990 0.176
74.1029 2.250 0.153
74.1233 2.771 0.170
74.1438 2.479 0.161
74.1643 2.656 0.166
74.1847 2.677 0.167
74.2052 2.635 0.166
74.2257 2.885 0.173
74.2461 2.573 0.164
74.2666 2.760 0.170
74.2870 2.583 0.164
74.3075 2.667 0.167
74.3280 2.354 0.157
74.3484 2.333 0.156
74.3689 2.698 0.168
74.3894 2.448 0.160
74.4098 2.781 0.170
74.4303 2.344 0.156
74.4507 2.073 0.147
74.4712 2.490 0.161
74.4917 2.510 0.162
74.5121 2.906 0.174
74.5326 2.500 0.161
74.5531 2.250 0.153
74.5735 2.396 0.158
74.5940 2.448 0.160
74.6145 2.385 0.158
74.6349 2.510 0.162
74.6554 2.292 0.155
74.6758 2.688 0.167
74.6963 2.521 0.162
74.7168 2.573 0.164
74.7372 2.604 0.165
74.7577 2.177 0.151
74.7782 2.531 0.162
74.7986 2.510 0.162
74.8191 2.500 0.161
74.8395 2.250 0.153
74.8600 2.667 0.167
74.8805 2.375 0.157
74.9009 2.510 0.162
74.9214 2.458 0.160
74.9419 2.510 0.162
74.9623 2.521 0.162
74.9828 2.333 0.156
75.0032 2.417 0.159
75.0237 2.406 0.158
75.0442 2.479 0.161
75.0646 2.448 0.160
75.0851 2.521 0.162
75.1056 2.469 0.160
75.1260 2.719 0.168
75.1465 2.573 0.164
75.1669 2.531 0.162
75.1874 2.417 0.159
75.2079 2.219 0.152
75.2283 2.469 0.160
75.2488 2.792 0.171
75.2693 2.635 0.166
75.2897 2.719 0.168
75.3102 2.552 0.163
75.3306 2.719 0.168
75.3511 2.479 0.161
75.3716 2.958 0.176
75.3920 2.344 0.156
75.4125 2.646 0.166
75.4330 2.927 0.175
75.4534 2.979 0.176
75.4739 3.000 0.177
75.4944 3.042 0.178
75.5148 2.823 0.171
75.5353 2.844 0.172
75.5557 2.906 0.174
75.5762 2.760 0.170
75.5967 2.885 0.173
75.6171 3.125 0.180
75.6376 3.219 0.183
75.6581 2.875 0.173
75.6785 2.781 0.170
75.6990 3.240 0.184
75.7194 3.469 0.190
75.7399 3.792 0.199
75.7604 3.906 0.202
75.7808 3.708 0.197
75.8013 3.958 0.203
75.8218 3.990 0.204
75.8422 3.813 0.199
75.8627 3.781 0.198
75.8831 3.656 0.195
75.9036 3.396 0.188
75.9241 3.354 0.187
75.9445 3.396 0.188
75.9650 3.521 0.192
75.9855 3.594 0.193
76.0059 3.479 0.190
76.0264 3.490 0.191
76.0468 3.542 0.192
76.0673 3.823 0.200
76.0878 3.260 0.184
76.1082 3.021 0.177
76.1287 2.740 0.169
76.1492 2.990 0.176
76.1696 3.302 0.185
76.1901 2.740 0.169
76.2105 2.906 0.174
76.2310 2.958 0.176
76.2515 2.958 0.176
76.2719 2.698 0.168
76.2924 2.656 0.166
76.3129 2.844 0.172
76.3333 2.635 0.166
76.3538 2.260 0.153
76.3743 2.344 0.156
76.3947 2.615 0.165
76.4152 2.531 0.162
76.4356 2.573 0.164
76.4561 2.938 0.175
76.4766 2.677 0.167
76.4970 2.646 0.166
76.5175 2.698 0.168
76.5380 2.469 0.160
76.5584 2.365 0.157
76.5789 2.813 0.171
76.5993 2.750 0.169
76.6198 2.375 0.157
76.6403 2.406 0.158
76.6607 2.625 0.165
76.6812 2.708 0.168
76.7017 2.698 0.168
76.7221 2.719 0.168
76.7426 2.396 0.158
76.7630 2.521 0.162
76.7835 2.573 0.164
76.8040 2.771 0.170
76.8244 2.646 0.166
76.8449 2.802 0.171
76.8654 2.646 0.166
76.8858 2.531 0.162
76.9063 2.479 0.161
76.9267 2.708 0.168
76.9472 2.438 0.159
76.9677 2.625 0.165
76.9881 2.677 0.167
77.0086 2.313 0.155
77.0291 2.625 0.165
77.0495 2.656 0.166
77.0700 2.917 0.174
77.0905 2.854 0.172
77.1109 2.667 0.167
77.1314 2.802 0.171
77.1518 2.281 0.154
77.1723 2.552 0.163
77.1928 2.563 0.163
77.2132 2.688 0.167
77.2337 2.542 0.163
77.2542 2.604 0.165
77.2746 2.583 0.164
77.2951 2.750 0.169
77.3155 2.406 0.158
77.3360 2.802 0.171
77.3565 2.625 0.165
77.3769 2.740 0.169
77.3974 2.875 0.173
77.4179 3.125 0.180
77.4383 3.104 0.180
77.4588 2.698 0.168
77.4792 3.042 0.178
77.4997 3.146 0.181
77.5202 3.479 0.190
77.5406 3.396 0.188
77.5611 3.531 0.192
77.5816 3.021 0.177
77.6020 3.323 0.186
77.6225 3.208 0.183
77.6429 2.708 0.168
77.6634 3.052 0.178
77.6839 3.719 0.197
77.7043 3.333 0.186
77.7248 3.198 0.183
77.7453 2.885 0.173
77.7657 3.240 0.184
77.7862 3.323 0.186
77.8066 3.052 0.178
77.8271 3.250 0.184
77.8476 3.354 0.187
77.8680 2.875 0.173
77.8885 3.323 0.186
77.9090 2.896 0.174
77.9294 3.219 0.183
77.9499 2.823 0.171
77.9704 2.896 0.174
77.9908 3.115 0.180
78.0113 3.000 0.177
78.0317 3.073 0.179
78.0522 3.115 0.180
78.0727 2.938 0.175
78.0931 2.917 0.174
78.1136 2.958 0.176
78.1341 3.010 0.177
78.1545 2.865 0.173
78.1750 2.677 0.167
78.1954 2.948 0.175
78.2159 2.896 0.174
78.2364 2.969 0.176
78.2568 2.615 0.165
78.2773 3.052 0.178
78.2978 2.521 0.162
78.3182 3.156 0.181
78.3387 2.917 0.174
78.3591 3.156 0.181
78.3796 2.979 0.176
78.4001 3.000 0.177
78.4205 3.094 0.180
78.4410 2.844 0.172
78.4615 2.479 0.161
78.4819 3.177 0.182
78.5024 3.042 0.178
78.5228 2.844 0.172
78.5433 3.031 0.178
78.5638 2.990 0.176
78.5842 3.083 0.179
78.6047 3.385 0.188
78.6252 3.010 0.177
78.6456 3.063 0.179
78.6661 2.990 0.176
78.6865 2.917 0.174
78.7070 2.885 0.173
78.7275 2.896 0.174
78.7479 3.000 0.177
78.7684 2.677 0.167
78.7889 3.010 0.177
78.8093 2.969 0.176
78.8298 2.563 0.163
78.8503 3.063 0.179
78.8707 2.938 0.175
78.8912 3.271 0.185
78.9116 2.865 0.173
78.9321 3.135 0.181
78.9526 2.969 0.176
78.9730 2.708 0.168
78.9935 2.708 0.168
79.0140 3.177 0.182
79.0344 2.750 0.169
79.0549 2.698 0.168
79.0753 2.740 0.169
79.0958 3.115 0.180
79.1163 2.917 0.174
79.1367 2.865 0.173
79.1572 2.875 0.173
79.1777 2.969 0.176
79.1981 2.906 0.174
79.2186 2.479 0.161
79.2390 2.792 0.171
79.2595 3.198 0.183
79.2800 2.677 0.167
79.3004 2.531 0.162
79.3209 2.865 0.173
79.3414 2.719 0.168
79.3618 2.708 0.168
79.3823 2.708 0.168
79.4027 2.677 0.167
79.4232 2.927 0.175
79.4437 2.896 0.174
79.4641 3.000 0.177
79.4846 3.094 0.180
79.5051 3.135 0.181
79.5255 3.229 0.183
79.5460 3.052 0.178
79.5664 3.115 0.180
79.5869 3.250 0.184
79.6074 3.135 0.181
79.6278 3.219 0.183
79.6483 2.917 0.174
79.6688 2.854 0.172
79.6892 2.844 0.172
79.7097 2.990 0.176
79.7302 2.823 0.171
79.7506 2.792 0.171
79.7711 3.083 0.179
79.7915 2.865 0.173
79.8120 3.177 0.182
79.8325 2.958 0.176
79.8529 3.156 0.181
79.8734 2.802 0.171
79.8939 2.823 0.171
79.9143 2.938 0.175
79.9348 3.188 0.182
79.9552 2.885 0.173
79.9757 2.906 0.174
79.9962 2.604 0.165
