'Id: "" Comment: "" Operator: "Lab Manager" Anode: "Cu" Scantype: "Locked Coupled" TimePerStep: "96" X: "0" Y: "0" Z: "0" 
5.0000 21.698 0.475
5.0205 22.458 0.484
5.0409 20.469 0.462
5.0614 21.740 0.476
5.0819 21.396 0.472
5.1023 21.500 0.473
5.1228 21.521 0.473
5.1432 21.063 0.468
5.1637 20.406 0.461
5.1842 20.667 0.464
5.2046 20.083 0.457
5.2251 20.635 0.464
5.2456 21.167 0.470
5.2660 20.740 0.465
5.2865 20.906 0.467
5.3069 20.542 0.463
5.3274 21.063 0.468
5.3479 20.688 0.464
5.3683 20.854 0.466
5.3888 20.542 0.463
5.4093 19.844 0.455
5.4297 21.052 0.468
5.4502 19.854 0.455
5.4706 21.479 0.473
5.4911 20.417 0.461
5.5116 20.698 0.464
5.5320 20.510 0.462
5.5525 20.281 0.460
5.5730 20.344 0.460
5.5934 20.708 0.464
5.6139 20.500 0.462
5.6343 20.646 0.464
5.6548 20.125 0.458
5.6753 20.313 0.460
5.6957 19.448 0.450
5.7162 19.865 0.455
5.7367 19.646 0.452
5.7571 19.531 0.451
5.7776 20.219 0.459
5.7980 19.854 0.455
5.8185 20.427 0.461
5.8390 19.792 0.454
5.8594 19.385 0.449
5.8799 19.781 0.454
5.9004 18.750 0.442
5.9208 19.583 0.452
5.9413 19.833 0.455
5.9618 19.000 0.445
5.9822 19.688 0.453
6.0027 19.760 0.454
6.0231 19.823 0.454
6.0436 20.281 0.460
6.0641 19.313 0.449
6.0845 19.729 0.453
6.1050 19.063 0.446
6.1255 19.031 0.445
6.1459 18.688 0.441
6.1664 19.042 0.445
6.1868 19.479 0.450
6.2073 18.969 0.445
6.2278 18.438 0.438
6.2482 18.844 0.443
6.2687 19.229 0.448
6.2892 19.396 0.449
6.3096 18.427 0.438
6.3301 19.552 0.451
6.3505 19.135 0.446
6.3710 19.260 0.448
6.3915 18.635 0.441
6.4119 18.906 0.444
6.4324 18.302 0.437
6.4529 18.750 0.442
6.4733 19.323 0.449
6.4938 19.156 0.447
6.5142 19.469 0.450
6.5347 18.885 0.444
6.5552 18.510 0.439
6.5756 18.698 0.441
6.5961 18.594 0.440
6.6166 19.781 0.454
6.6370 18.865 0.443
6.6575 18.833 0.443
6.6779 19.417 0.450
6.6984 19.729 0.453
6.7189 19.083 0.446
6.7393 18.677 0.441
6.7598 18.750 0.442
6.7803 19.146 0.447
6.8007 19.229 0.448
6.8212 18.917 0.444
6.8417 18.594 0.440
6.8621 18.677 0.441
6.8826 19.375 0.449
6.9030 19.750 0.454
6.9235 18.917 0.444
6.9440 19.146 0.447
6.9644 18.573 0.440
6.9849 19.333 0.449
7.0054 19.031 0.445
7.0258 19.948 0.456
7.0463 18.958 0.444
7.0667 19.417 0.450
7.0872 19.260 0.448
7.1077 19.240 0.448
7.1281 19.250 0.448
7.1486 19.208 0.447
7.1691 18.927 0.444
7.1895 18.927 0.444
7.2100 19.031 0.445
7.2304 19.740 0.453
7.2509 18.969 0.445
7.2714 18.479 0.439
7.2918 19.083 0.446
7.3123 18.604 0.440
7.3328 19.260 0.448
7.3532 18.594 0.440
7.3737 19.500 0.451
7.3941 19.021 0.445
7.4146 18.208 0.436
7.4351 18.198 0.435
7.4555 19.302 0.448
7.4760 19.229 0.448
7.4965 19.208 0.447
7.5169 19.542 0.451
7.5374 18.313 0.437
7.5579 19.563 0.451
7.5783 19.313 0.449
7.5988 18.844 0.443
7.6192 18.271 0.436
7.6397 20.135 0.458
7.6602 19.906 0.455
7.6806 19.865 0.455
7.7011 19.167 0.447
7.7216 19.510 0.451
7.7420 18.771 0.442
7.7625 18.969 0.445
7.7829 18.708 0.441
7.8034 18.948 0.444
7.8239 19.260 0.448
7.8443 18.531 0.439
7.8648 18.875 0.443
7.8853 19.615 0.452
7.9057 19.146 0.447
7.9262 20.042 0.457
7.9466 18.781 0.442
7.9671 19.104 0.446
7.9876 18.854 0.443
8.0080 18.563 0.440
8.0285 19.698 0.453
8.0490 19.177 0.447
8.0694 20.427 0.461
8.0899 20.000 0.456
8.1103 19.760 0.454
8.1308 19.510 0.451
8.1513 19.094 0.446
8.1717 19.948 0.456
8.1922 18.646 0.441
8.2127 19.750 0.454
8.2331 19.542 0.451
8.2536 20.302 0.460
8.2740 19.719 0.453
8.2945 18.490 0.439
8.3150 18.688 0.441
8.3354 19.719 0.453
8.3559 20.229 0.459
8.3764 19.271 0.448
8.3968 19.385 0.449
8.4173 20.073 0.457
8.4378 19.063 0.446
8.4582 19.417 0.450
8.4787 19.083 0.446
8.4991 19.260 0.448
8.5196 20.208 0.459
8.5401 20.125 0.458
8.5605 19.260 0.448
8.5810 19.802 0.454
8.6015 20.313 0.460
8.6219 18.458 0.438
8.6424 19.052 0.445
8.6628 19.594 0.452
8.6833 18.563 0.440
8.7038 19.510 0.451
8.7242 19.406 0.450
8.7447 19.563 0.451
8.7652 19.760 0.454
8.7856 20.042 0.457
8.8061 20.115 0.458
8.8265 19.646 0.452
8.8470 20.625 0.464
8.8675 20.802 0.465
8.8879 20.156 0.458
8.9084 21.833 0.477
8.9289 20.917 0.467
8.9493 20.656 0.464
8.9698 20.750 0.465
8.9902 20.698 0.464
9.0107 19.781 0.454
9.0312 21.031 0.468
9.0516 20.990 0.468
9.0721 21.479 0.473
9.0926 20.365 0.461
9.1130 21.010 0.468
9.1335 20.438 0.461
9.1539 22.052 0.479
9.1744 21.729 0.476
9.1949 21.833 0.477
9.2153 22.250 0.481
9.2358 23.198 0.492
9.2563 23.938 0.499
9.2767 23.208 0.492
9.2972 23.896 0.499
9.3177 23.354 0.493
9.3381 24.333 0.503
9.3586 23.531 0.495
9.3790 23.490 0.495
9.3995 24.448 0.505
9.4200 24.323 0.503
9.4404 24.292 0.503
9.4609 26.010 0.521
9.4814 25.323 0.514
9.5018 26.500 0.525
9.5223 28.260 0.543
9.5427 29.292 0.552
9.5632 31.823 0.576
9.5837 33.156 0.588
9.6041 36.563 0.617
9.6246 40.094 0.646
9.6451 41.479 0.657
9.6655 45.365 0.687
9.6860 48.104 0.708
9.7064 52.833 0.742
9.7269 59.656 0.788
9.7474 70.667 0.858
9.7678 85.667 0.945
9.7883 109.260 1.067
9.8088 142.573 1.219
9.8292 194.115 1.422
9.8497 280.646 1.710
9.8701 405.719 2.056
9.8906 568.719 2.434
9.9111 588.448 2.476
9.9315 416.677 2.083
9.9520 239.438 1.579
9.9725 148.542 1.244
9.9929 111.167 1.076
10.0134 88.542 0.960
10.0338 76.281 0.891
10.0543 69.844 0.853
10.0748 64.677 0.821
10.0952 58.073 0.778
10.1157 56.240 0.765
10.1362 50.156 0.723
10.1566 47.135 0.701
10.1771 43.469 0.673
10.1976 39.542 0.642
10.2180 38.771 0.636
10.2385 36.813 0.619
10.2589 34.948 0.603
10.2794 34.552 0.600
10.2999 34.667 0.601
10.3203 32.167 0.579
10.3408 31.948 0.577
10.3613 31.188 0.570
10.3817 30.063 0.560
10.4022 30.281 0.562
10.4226 31.344 0.571
10.4431 30.490 0.564
10.4636 31.063 0.569
10.4840 30.698 0.565
10.5045 28.448 0.544
10.5250 30.667 0.565
10.5454 29.396 0.553
10.5659 30.333 0.562
10.5863 31.083 0.569
10.6068 30.094 0.560
10.6273 29.875 0.558
10.6477 31.510 0.573
10.6682 30.188 0.561
10.6887 29.990 0.559
10.7091 30.438 0.563
10.7296 29.677 0.556
10.7500 29.698 0.556
10.7705 29.490 0.554
10.7910 27.781 0.538
10.8114 26.615 0.527
10.8319 25.177 0.512
10.8524 24.031 0.500
10.8728 22.979 0.489
10.8933 22.938 0.489
10.9137 21.417 0.472
10.9342 20.708 0.464
10.9547 20.656 0.464
10.9751 20.260 0.459
10.9956 19.917 0.455
11.0161 20.125 0.458
11.0365 18.583 0.440
11.0570 19.281 0.448
11.0775 18.458 0.438
11.0979 17.958 0.433
11.1184 17.865 0.431
11.1388 17.792 0.430
11.1593 18.865 0.443
11.1798 17.646 0.429
11.2002 17.073 0.422
11.2207 17.750 0.430
11.2412 17.094 0.422
11.2616 17.406 0.426
11.2821 17.229 0.424
11.3025 16.833 0.419
11.3230 17.323 0.425
11.3435 17.292 0.424
11.3639 17.146 0.423
11.3844 16.510 0.415
11.4049 16.552 0.415
11.4253 16.063 0.409
11.4458 17.031 0.421
11.4662 16.635 0.416
11.4867 16.198 0.411
11.5072 15.646 0.404
11.5276 16.583 0.416
11.5481 15.479 0.402
11.5686 15.813 0.406
11.5890 15.760 0.405
11.6095 16.458 0.414
11.6299 16.646 0.416
11.6504 15.792 0.406
11.6709 15.354 0.400
11.6913 15.771 0.405
11.7118 16.000 0.408
11.7323 15.219 0.398
11.7527 14.667 0.391
11.7732 14.917 0.394
11.7937 15.563 0.403
11.8141 14.521 0.389
11.8346 15.375 0.400
11.8550 16.104 0.410
11.8755 15.156 0.397
11.8960 14.594 0.390
11.9164 14.813 0.393
11.9369 14.625 0.390
11.9574 14.406 0.387
11.9778 14.802 0.393
11.9983 14.573 0.390
12.0187 14.667 0.391
12.0392 14.271 0.386
12.0597 14.271 0.386
12.0801 14.385 0.387
12.1006 13.896 0.380
12.1211 14.792 0.393
12.1415 14.427 0.388
12.1620 13.656 0.377
12.1824 13.958 0.381
12.2029 14.094 0.383
12.2234 14.417 0.388
12.2438 14.917 0.394
12.2643 13.708 0.378
12.2848 13.885 0.380
12.3052 14.333 0.386
12.3257 14.219 0.385
12.3461 13.385 0.373
12.3666 13.406 0.374
12.3871 14.292 0.386
12.4075 13.042 0.369
12.4280 14.313 0.386
12.4485 13.177 0.370
12.4689 13.167 0.370
12.4894 13.510 0.375
12.5098 13.271 0.372
12.5303 13.365 0.373
12.5508 12.938 0.367
12.5712 13.094 0.369
12.5917 13.167 0.370
12.6122 12.854 0.366
12.6326 12.708 0.364
12.6531 12.427 0.360
12.6736 12.635 0.363
12.6940 12.521 0.361
12.7145 12.771 0.365
12.7349 12.385 0.359
12.7554 13.115 0.370
12.7759 12.271 0.358
12.7963 13.094 0.369
12.8168 12.740 0.364
12.8373 12.365 0.359
12.8577 12.917 0.367
12.8782 11.708 0.349
12.8986 12.948 0.367
12.9191 12.302 0.358
12.9396 12.188 0.356
12.9600 12.646 0.363
12.9805 12.219 0.357
13.0010 12.229 0.357
13.0214 11.938 0.353
13.0419 12.604 0.362
13.0623 11.979 0.353
13.0828 11.844 0.351
13.1033 12.219 0.357
13.1237 11.969 0.353
13.1442 11.729 0.350
13.1647 12.906 0.367
13.1851 11.438 0.345
13.2056 11.583 0.347
13.2260 11.948 0.353
13.2465 12.177 0.356
13.2670 12.292 0.358
13.2874 12.229 0.357
13.3079 12.188 0.356
13.3284 11.969 0.353
13.3488 11.208 0.342
13.3693 11.479 0.346
13.3897 11.344 0.344
13.4102 11.625 0.348
13.4307 11.563 0.347
13.4511 11.500 0.346
13.4716 11.635 0.348
13.4921 11.365 0.344
13.5125 11.917 0.352
13.5330 11.042 0.339
13.5535 10.719 0.334
13.5739 11.688 0.349
13.5944 11.260 0.342
13.6148 11.406 0.345
13.6353 10.844 0.336
13.6558 10.573 0.332
13.6762 10.865 0.336
13.6967 10.625 0.333
13.7172 10.708 0.334
13.7376 11.042 0.339
13.7581 11.281 0.343
13.7785 10.938 0.338
13.7990 10.635 0.333
13.8195 11.031 0.339
13.8399 11.083 0.340
13.8604 10.760 0.335
13.8809 10.958 0.338
13.9013 10.208 0.326
13.9218 10.469 0.330
13.9422 10.594 0.332
13.9627 11.031 0.339
13.9832 10.302 0.328
14.0036 11.010 0.339
14.0241 9.948 0.322
14.0446 9.885 0.321
14.0650 10.938 0.338
14.0855 10.844 0.336
14.1059 10.417 0.329
14.1264 10.344 0.328
14.1469 10.438 0.330
14.1673 10.604 0.332
14.1878 11.135 0.341
14.2083 10.740 0.334
14.2287 10.198 0.326
14.2492 10.740 0.334
14.2696 10.583 0.332
14.2901 11.083 0.340
14.3106 10.229 0.326
14.3310 10.573 0.332
14.3515 11.229 0.342
14.3720 10.656 0.333
14.3924 10.198 0.326
14.4129 10.635 0.333
14.4334 10.271 0.327
14.4538 9.969 0.322
14.4743 10.208 0.326
14.4947 10.344 0.328
14.5152 10.583 0.332
14.5357 10.188 0.326
14.5561 10.115 0.325
14.5766 10.167 0.325
14.5971 9.802 0.320
14.6175 9.635 0.317
14.6380 10.302 0.328
14.6584 9.698 0.318
14.6789 10.135 0.325
14.6994 10.083 0.324
14.7198 9.656 0.317
14.7403 9.625 0.317
14.7608 10.156 0.325
14.7812 9.875 0.321
14.8017 9.885 0.321
14.8221 9.438 0.314
14.8426 10.063 0.324
14.8631 9.750 0.319
14.8835 9.771 0.319
14.9040 9.573 0.316
14.9245 9.948 0.322
14.9449 9.969 0.322
14.9654 10.313 0.328
14.9858 9.219 0.310
15.0063 9.865 0.321
15.0268 10.063 0.324
15.0472 9.333 0.312
15.0677 10.083 0.324
15.0882 9.302 0.311
15.1086 9.219 0.310
15.1291 9.500 0.315
15.1495 9.583 0.316
15.1700 10.167 0.325
15.1905 9.677 0.317
15.2109 9.500 0.315
15.2314 9.740 0.319
15.2519 9.302 0.311
15.2723 9.479 0.314
15.2928 8.990 0.306
15.3133 9.271 0.311
15.3337 9.510 0.315
15.3542 9.323 0.312
15.3746 9.583 0.316
15.3951 9.292 0.311
15.4156 9.958 0.322
15.4360 9.771 0.319
15.4565 9.156 0.309
15.4770 9.260 0.311
15.4974 8.417 0.296
15.5179 9.260 0.311
15.5383 9.917 0.321
15.5588 9.344 0.312
15.5793 9.938 0.322
15.5997 8.917 0.305
15.6202 8.771 0.302
15.6407 9.844 0.320
15.6611 9.365 0.312
15.6816 9.479 0.314
15.7020 8.938 0.305
15.7225 9.646 0.317
15.7430 8.781 0.302
15.7634 9.031 0.307
15.7839 8.979 0.306
15.8044 9.094 0.308
15.8248 9.323 0.312
15.8453 9.167 0.309
15.8657 9.135 0.308
15.8862 9.802 0.320
15.9067 9.135 0.308
15.9271 8.646 0.300
15.9476 9.094 0.308
15.9681 8.979 0.306
15.9885 9.021 0.307
16.0090 9.156 0.309
16.0295 9.510 0.315
16.0499 8.646 0.300
16.0704 9.354 0.312
16.0908 9.438 0.314
16.1113 9.073 0.307
16.1318 8.792 0.303
16.1522 8.750 0.302
16.1727 8.740 0.302
16.1932 8.906 0.305
16.2136 9.198 0.310
16.2341 8.417 0.296
16.2545 8.594 0.299
16.2750 9.083 0.308
16.2955 8.031 0.289
16.3159 8.865 0.304
16.3364 8.927 0.305
16.3569 9.073 0.307
16.3773 8.885 0.304
16.3978 8.344 0.295
16.4182 8.813 0.303
16.4387 8.396 0.296
16.4592 9.260 0.311
16.4796 8.531 0.298
16.5001 9.281 0.311
16.5206 8.479 0.297
16.5410 8.927 0.305
16.5615 8.438 0.296
16.5819 8.552 0.298
16.6024 9.604 0.316
16.6229 8.708 0.301
16.6433 8.667 0.300
16.6638 8.469 0.297
16.6843 8.531 0.298
16.7047 8.573 0.299
16.7252 8.938 0.305
16.7456 8.854 0.304
16.7661 8.594 0.299
16.7866 8.510 0.298
16.8070 9.125 0.308
16.8275 8.948 0.305
16.8480 8.583 0.299
16.8684 7.906 0.287
16.8889 8.979 0.306
16.9094 8.917 0.305
16.9298 8.458 0.297
16.9503 9.365 0.312
16.9707 8.823 0.303
16.9912 8.688 0.301
17.0117 9.063 0.307
17.0321 9.500 0.315
17.0526 8.615 0.300
17.0731 8.833 0.303
17.0935 8.917 0.305
17.1140 8.938 0.305
17.1344 9.167 0.309
17.1549 8.698 0.301
17.1754 9.521 0.315
17.1958 9.063 0.307
17.2163 8.490 0.297
17.2368 8.635 0.300
17.2572 9.271 0.311
17.2777 9.448 0.314
17.2981 9.552 0.315
17.3186 9.021 0.307
17.3391 9.906 0.321
17.3595 10.063 0.324
17.3800 10.448 0.330
17.4005 10.375 0.329
17.4209 9.969 0.322
17.4414 10.667 0.333
17.4618 9.385 0.313
17.4823 9.958 0.322
17.5028 9.188 0.309
17.5232 9.979 0.322
17.5437 9.573 0.316
17.5642 9.167 0.309
17.5846 9.531 0.315
17.6051 9.260 0.311
17.6255 9.677 0.317
17.6460 8.990 0.306
17.6665 9.646 0.317
17.6869 9.219 0.310
17.7074 10.427 0.330
17.7279 10.427 0.330
17.7483 10.688 0.334
17.7688 10.885 0.337
17.7893 11.010 0.339
17.8097 11.875 0.352
17.8302 11.979 0.353
17.8506 11.333 0.344
17.8711 11.833 0.351
17.8916 12.021 0.354
17.9120 11.615 0.348
17.9325 12.167 0.356
17.9530 12.417 0.360
17.9734 12.979 0.368
17.9939 13.302 0.372
18.0143 13.844 0.380
18.0348 16.094 0.409
18.0553 18.406 0.438
18.0757 20.146 0.458
18.0962 19.354 0.449
18.1167 19.292 0.448
18.1371 19.094 0.446
18.1576 19.260 0.448
18.1780 19.104 0.446
18.1985 20.625 0.464
18.2190 23.167 0.491
18.2394 26.385 0.524
18.2599 30.083 0.560
18.2804 33.198 0.588
18.3008 37.990 0.629
18.3213 36.719 0.618
18.3417 36.417 0.616
18.3622 33.708 0.593
18.3827 31.625 0.574
18.4031 28.667 0.546
18.4236 28.385 0.544
18.4441 27.292 0.533
18.4645 27.729 0.537
18.4850 25.844 0.519
18.5054 26.781 0.528
18.5259 25.979 0.520
18.5464 25.427 0.515
18.5668 24.948 0.510
18.5873 24.396 0.504
18.6078 23.740 0.497
18.6282 24.323 0.503
18.6487 23.885 0.499
18.6692 22.688 0.486
18.6896 22.031 0.479
18.7101 22.167 0.481
18.7305 23.385 0.494
18.7510 22.031 0.479
18.7715 22.781 0.487
18.7919 22.010 0.479
18.8124 21.469 0.473
18.8329 19.896 0.455
18.8533 18.990 0.445
18.8738 17.167 0.423
18.8942 15.781 0.405
18.9147 13.906 0.381
18.9352 14.083 0.383
18.9556 13.719 0.378
18.9761 12.823 0.365
18.9966 12.208 0.357
19.0170 12.271 0.358
19.0375 11.552 0.347
19.0579 11.938 0.353
19.0784 10.885 0.337
19.0989 11.604 0.348
19.1193 11.333 0.344
19.1398 11.198 0.342
19.1603 11.771 0.350
19.1807 11.781 0.350
19.2012 10.781 0.335
19.2216 11.375 0.344
19.2421 11.719 0.349
19.2626 10.844 0.336
19.2830 10.740 0.334
19.3035 11.240 0.342
19.3240 11.042 0.339
19.3444 10.771 0.335
19.3649 11.292 0.343
19.3853 11.188 0.341
19.4058 11.146 0.341
19.4263 11.885 0.352
19.4467 11.844 0.351
19.4672 12.052 0.354
19.4877 11.917 0.352
19.5081 12.542 0.361
19.5286 13.615 0.377
19.5491 13.438 0.374
19.5695 14.250 0.385
19.5900 14.938 0.394
19.6104 15.604 0.403
19.6309 16.438 0.414
19.6514 17.135 0.422
19.6718 17.417 0.426
19.6923 19.177 0.447
19.7128 21.333 0.471
19.7332 23.781 0.498
19.7537 29.885 0.558
19.7741 38.646 0.634
19.7946 54.073 0.751
19.8151 81.073 0.919
19.8355 128.042 1.155
19.8560 161.813 1.298
19.8765 137.354 1.196
19.8969 117.708 1.107
19.9174 93.375 0.986
19.9378 62.177 0.805
19.9583 44.479 0.681
19.9788 36.813 0.619
19.9992 31.198 0.570
20.0197 27.510 0.535
20.0402 26.094 0.521
20.0606 24.458 0.505
20.0811 22.823 0.488
20.1015 22.667 0.486
20.1220 21.510 0.473
20.1425 20.823 0.466
20.1629 21.406 0.472
20.1834 21.719 0.476
20.2039 22.021 0.479
20.2243 23.458 0.494
20.2448 25.188 0.512
20.2653 25.906 0.519
20.2857 28.271 0.543
20.3062 28.615 0.546
20.3266 27.604 0.536
20.3471 25.365 0.514
20.3676 24.625 0.506
20.3880 24.323 0.503
20.4085 23.260 0.492
20.4290 22.563 0.485
20.4494 21.813 0.477
20.4699 22.167 0.481
20.4903 21.656 0.475
20.5108 21.823 0.477
20.5313 22.010 0.479
20.5517 20.510 0.462
20.5722 20.406 0.461
20.5927 19.406 0.450
20.6131 18.094 0.434
20.6336 15.719 0.405
20.6540 15.802 0.406
20.6745 14.615 0.390
20.6950 14.896 0.394
20.7154 13.729 0.378
20.7359 13.938 0.381
20.7564 13.167 0.370
20.7768 13.188 0.371
20.7973 13.104 0.369
20.8177 12.240 0.357
20.8382 11.906 0.352
20.8587 12.354 0.359
20.8791 11.583 0.347
20.8996 11.656 0.348
20.9201 11.698 0.349
20.9405 12.396 0.359
20.9610 11.906 0.352
20.9814 12.500 0.361
21.0019 12.521 0.361
21.0224 12.594 0.362
21.0428 11.792 0.350
21.0633 11.958 0.353
21.0838 12.490 0.361
21.1042 12.750 0.364
21.1247 12.844 0.366
21.1452 11.969 0.353
21.1656 12.313 0.358
21.1861 12.365 0.359
21.2065 11.510 0.346
21.2270 12.177 0.356
21.2475 11.865 0.352
21.2679 11.896 0.352
21.2884 12.010 0.354
21.3089 12.573 0.362
21.3293 12.000 0.354
21.3498 12.729 0.364
21.3702 11.823 0.351
21.3907 12.823 0.365
21.4112 12.479 0.361
21.4316 12.313 0.358
21.4521 11.844 0.351
21.4726 12.000 0.354
21.4930 12.083 0.355
21.5135 11.219 0.342
21.5339 12.219 0.357
21.5544 12.052 0.354
21.5749 11.688 0.349
21.5953 12.063 0.354
21.6158 12.281 0.358
21.6363 12.156 0.356
21.6567 12.198 0.356
21.6772 12.146 0.356
21.6976 12.354 0.359
21.7181 12.875 0.366
21.7386 12.427 0.360
21.7590 11.854 0.351
21.7795 12.104 0.355
21.8000 12.167 0.356
21.8204 11.604 0.348
21.8409 11.573 0.347
21.8613 11.365 0.344
21.8818 11.375 0.344
21.9023 12.094 0.355
21.9227 12.156 0.356
21.9432 12.385 0.359
21.9637 12.438 0.360
21.9841 13.281 0.372
22.0046 13.396 0.374
22.0251 14.156 0.384
22.0455 15.083 0.396
22.0660 16.615 0.416
22.0864 17.948 0.432
22.1069 21.927 0.478
22.1274 28.281 0.543
22.1478 37.563 0.626
22.1683 49.802 0.720
22.1888 59.188 0.785
22.2092 58.594 0.781
22.2297 48.802 0.713
22.2501 44.104 0.678
22.2706 34.563 0.600
22.2911 24.875 0.509
22.3115 20.188 0.459
22.3320 18.323 0.437
22.3525 15.635 0.404
22.3729 14.990 0.395
22.3934 14.375 0.387
22.4138 13.719 0.378
22.4343 12.448 0.360
22.4548 12.063 0.354
22.4752 11.594 0.348
22.4957 11.146 0.341
22.5162 10.896 0.337
22.5366 11.021 0.339
22.5571 10.604 0.332
22.5775 10.344 0.328
22.5980 10.125 0.325
22.6185 10.125 0.325
22.6389 10.094 0.324
22.6594 9.458 0.314
22.6799 9.917 0.321
22.7003 9.219 0.310
22.7208 8.917 0.305
22.7412 9.250 0.310
22.7617 9.771 0.319
22.7822 9.500 0.315
22.8026 9.750 0.319
22.8231 9.615 0.316
22.8436 9.885 0.321
22.8640 9.615 0.316
22.8845 9.094 0.308
22.9050 8.375 0.295
22.9254 8.573 0.299
22.9459 8.792 0.303
22.9663 8.885 0.304
22.9868 8.365 0.295
23.0073 9.052 0.307
23.0277 8.635 0.300
23.0482 8.365 0.295
23.0687 9.344 0.312
23.0891 8.750 0.302
23.1096 8.625 0.300
23.1300 8.854 0.304
23.1505 8.271 0.294
23.1710 7.896 0.287
23.1914 8.750 0.302
23.2119 8.500 0.298
23.2324 8.313 0.294
23.2528 7.906 0.287
23.2733 8.000 0.289
23.2937 8.240 0.293
23.3142 8.458 0.297
23.3347 8.271 0.294
23.3551 8.188 0.292
23.3756 7.865 0.286
23.3961 8.010 0.289
23.4165 7.917 0.287
23.4370 8.292 0.294
23.4574 7.729 0.284
23.4779 8.188 0.292
23.4984 7.906 0.287
23.5188 7.885 0.287
23.5393 7.604 0.281
23.5598 8.490 0.297
23.5802 8.375 0.295
23.6007 8.438 0.296
23.6211 8.656 0.300
23.6416 8.656 0.300
23.6621 8.438 0.296
23.6825 8.271 0.294
23.7030 8.448 0.297
23.7235 8.031 0.289
23.7439 8.260 0.293
23.7644 7.906 0.287
23.7849 8.094 0.290
23.8053 8.573 0.299
23.8258 7.833 0.286
23.8462 7.750 0.284
23.8667 7.635 0.282
23.8872 7.469 0.279
23.9076 8.240 0.293
23.9281 8.125 0.291
23.9486 7.906 0.287
23.9690 7.583 0.281
23.9895 7.833 0.286
24.0099 7.406 0.278
24.0304 7.740 0.284
24.0509 7.677 0.283
24.0713 7.563 0.281
24.0918 7.552 0.280
24.1123 8.469 0.297
24.1327 7.938 0.288
24.1532 8.302 0.294
24.1736 8.135 0.291
24.1941 8.208 0.292
24.2146 9.083 0.308
24.2350 9.229 0.310
24.2555 9.021 0.307
24.2760 9.698 0.318
24.2964 10.781 0.335
24.3169 12.073 0.355
24.3373 12.875 0.366
24.3578 12.740 0.364
24.3783 11.531 0.347
24.3987 11.052 0.339
24.4192 9.500 0.315
24.4397 9.385 0.313
24.4601 8.531 0.298
24.4806 8.677 0.301
24.5011 7.844 0.286
24.5215 8.229 0.293
24.5420 7.333 0.276
24.5624 7.417 0.278
24.5829 7.625 0.282
24.6034 8.083 0.290
24.6238 7.865 0.286
24.6443 7.521 0.280
24.6648 7.573 0.281
24.6852 7.656 0.282
24.7057 7.281 0.275
24.7261 7.396 0.278
24.7466 8.229 0.293
24.7671 7.563 0.281
24.7875 7.594 0.281
24.8080 7.479 0.279
24.8285 7.406 0.278
24.8489 7.500 0.280
24.8694 7.646 0.282
24.8898 7.729 0.284
24.9103 7.500 0.280
24.9308 7.552 0.280
24.9512 8.229 0.293
24.9717 7.667 0.283
24.9922 7.885 0.287
25.0126 7.365 0.277
25.0331 7.688 0.283
25.0535 7.500 0.280
25.0740 7.521 0.280
25.0945 7.000 0.270
25.1149 7.323 0.276
25.1354 7.135 0.273
25.1559 6.396 0.258
25.1763 7.396 0.278
25.1968 7.729 0.284
25.2172 6.500 0.260
25.2377 7.760 0.284
25.2582 7.375 0.277
25.2786 6.969 0.269
25.2991 6.979 0.270
25.3196 7.250 0.275
25.3400 6.813 0.266
25.3605 7.063 0.271
25.3810 6.938 0.269
25.4014 6.792 0.266
25.4219 6.854 0.267
25.4423 7.406 0.278
25.4628 6.917 0.268
25.4833 6.750 0.265
25.5037 6.656 0.263
25.5242 6.844 0.267
25.5447 7.469 0.279
25.5651 7.365 0.277
25.5856 6.500 0.260
25.6060 7.313 0.276
25.6265 6.969 0.269
25.6470 7.063 0.271
25.6674 7.240 0.275
25.6879 7.271 0.275
25.7084 6.792 0.266
25.7288 6.958 0.269
25.7493 7.010 0.270
25.7697 7.229 0.274
25.7902 7.094 0.272
25.8107 7.260 0.275
25.8311 7.219 0.274
25.8516 7.281 0.275
25.8721 7.010 0.270
25.8925 7.000 0.270
25.9130 7.260 0.275
25.9334 6.677 0.264
25.9539 7.125 0.272
25.9744 7.167 0.273
25.9948 7.031 0.271
26.0153 7.042 0.271
26.0358 6.875 0.268
26.0562 7.365 0.277
26.0767 6.813 0.266
26.0971 7.240 0.275
26.1176 7.406 0.278
26.1381 7.500 0.280
26.1585 6.990 0.270
26.1790 7.042 0.271
26.1995 7.146 0.273
26.2199 7.125 0.272
26.2404 7.438 0.278
26.2609 7.417 0.278
26.2813 7.594 0.281
26.3018 7.375 0.277
26.3222 7.302 0.276
26.3427 7.573 0.281
26.3632 7.479 0.279
26.3836 7.365 0.277
26.4041 6.885 0.268
26.4246 7.667 0.283
26.4450 7.167 0.273
26.4655 7.781 0.285
26.4859 7.740 0.284
26.5064 7.823 0.285
26.5269 7.260 0.275
26.5473 7.854 0.286
26.5678 7.563 0.281
26.5883 7.958 0.288
26.6087 7.896 0.287
26.6292 7.771 0.285
26.6496 8.115 0.291
26.6701 8.760 0.302
26.6906 8.594 0.299
26.7110 8.458 0.297
26.7315 7.865 0.286
26.7520 8.156 0.291
26.7724 7.969 0.288
26.7929 7.667 0.283
26.8133 7.771 0.285
26.8338 8.688 0.301
26.8543 8.240 0.293
26.8747 8.031 0.289
26.8952 8.625 0.300
26.9157 8.417 0.296
26.9361 7.719 0.284
26.9566 8.385 0.296
26.9770 7.906 0.287
26.9975 7.396 0.278
27.0180 7.542 0.280
27.0384 7.646 0.282
27.0589 7.552 0.280
27.0794 7.479 0.279
27.0998 7.333 0.276
27.1203 7.948 0.288
27.1408 7.229 0.274
27.1612 7.365 0.277
27.1817 7.135 0.273
27.2021 6.875 0.268
27.2226 7.135 0.273
27.2431 6.823 0.267
27.2635 7.406 0.278
27.2840 6.479 0.260
27.3045 7.115 0.272
27.3249 7.167 0.273
27.3454 6.635 0.263
27.3658 6.240 0.255
27.3863 6.531 0.261
27.4068 6.625 0.263
27.4272 7.219 0.274
27.4477 6.948 0.269
27.4682 7.042 0.271
27.4886 7.125 0.272
27.5091 7.083 0.272
27.5295 7.094 0.272
27.5500 7.031 0.271
27.5705 7.417 0.278
27.5909 6.844 0.267
27.6114 7.281 0.275
27.6319 7.813 0.285
27.6523 7.906 0.287
27.6728 7.490 0.279
27.6932 7.750 0.284
27.7137 7.969 0.288
27.7342 8.563 0.299
27.7546 8.135 0.291
27.7751 8.208 0.292
27.7956 8.198 0.292
27.8160 8.583 0.299
27.8365 8.073 0.290
27.8569 8.344 0.295
27.8774 8.656 0.300
27.8979 8.604 0.299
27.9183 8.594 0.299
27.9388 9.063 0.307
27.9593 8.344 0.295
27.9797 8.979 0.306
28.0002 7.656 0.282
28.0207 8.448 0.297
28.0411 7.990 0.288
28.0616 8.229 0.293
28.0820 8.031 0.289
28.1025 7.323 0.276
28.1230 7.802 0.285
28.1434 7.406 0.278
28.1639 7.552 0.280
28.1844 7.198 0.274
28.2048 7.083 0.272
28.2253 7.073 0.271
28.2457 7.281 0.275
28.2662 7.052 0.271
28.2867 7.167 0.273
28.3071 7.219 0.274
28.3276 6.563 0.261
28.3481 6.635 0.263
28.3685 6.729 0.265
28.3890 6.979 0.270
28.4094 6.792 0.266
28.4299 7.510 0.280
28.4504 6.792 0.266
28.4708 6.896 0.268
28.4913 7.010 0.270
28.5118 7.177 0.273
28.5322 7.313 0.276
28.5527 7.698 0.283
28.5731 7.208 0.274
28.5936 7.240 0.275
28.6141 7.615 0.282
28.6345 7.198 0.274
28.6550 7.365 0.277
28.6755 7.354 0.277
28.6959 6.979 0.270
28.7164 7.167 0.273
28.7368 7.417 0.278
28.7573 7.365 0.277
28.7778 6.802 0.266
28.7982 6.990 0.270
28.8187 6.875 0.268
28.8392 6.979 0.270
28.8596 7.042 0.271
28.8801 6.635 0.263
28.9006 6.729 0.265
28.9210 6.510 0.260
28.9415 6.073 0.252
28.9619 6.656 0.263
28.9824 6.583 0.262
29.0029 6.354 0.257
29.0233 6.313 0.256
29.0438 7.000 0.270
29.0643 6.740 0.265
29.0847 6.698 0.264
29.1052 7.167 0.273
29.1256 6.521 0.261
29.1461 6.042 0.251
29.1666 6.875 0.268
29.1870 6.448 0.259
29.2075 6.719 0.265
29.2280 6.542 0.261
29.2484 6.406 0.258
29.2689 6.469 0.260
29.2893 6.417 0.259
29.3098 7.115 0.272
29.3303 6.281 0.256
29.3507 6.844 0.267
29.3712 7.042 0.271
29.3917 6.781 0.266
29.4121 6.781 0.266
29.4326 6.667 0.264
29.4530 6.813 0.266
29.4735 6.156 0.253
29.4940 6.000 0.250
29.5144 5.990 0.250
29.5349 6.708 0.264
29.5554 6.479 0.260
29.5758 6.458 0.259
29.5963 6.302 0.256
29.6168 6.500 0.260
29.6372 6.510 0.260
29.6577 6.073 0.252
29.6781 6.344 0.257
29.6986 6.615 0.262
29.7191 6.188 0.254
29.7395 6.323 0.257
29.7600 6.073 0.252
29.7805 6.479 0.260
29.8009 6.469 0.260
29.8214 6.417 0.259
29.8418 6.594 0.262
29.8623 6.302 0.256
29.8828 6.052 0.251
29.9032 6.198 0.254
29.9237 6.094 0.252
29.9442 6.719 0.265
29.9646 6.729 0.265
29.9851 6.344 0.257
30.0055 6.333 0.257
30.0260 6.135 0.253
30.0465 6.229 0.255
30.0669 6.344 0.257
30.0874 6.313 0.256
30.1079 6.510 0.260
30.1283 6.448 0.259
30.1488 6.333 0.257
30.1692 6.094 0.252
30.1897 6.240 0.255
30.2102 6.292 0.256
30.2306 6.156 0.253
30.2511 5.760 0.245
30.2716 6.156 0.253
30.2920 6.094 0.252
30.3125 6.354 0.257
30.3329 5.760 0.245
30.3534 6.073 0.252
30.3739 6.240 0.255
30.3943 6.323 0.257
30.4148 6.344 0.257
30.4353 6.177 0.254
30.4557 6.135 0.253
30.4762 6.188 0.254
30.4967 6.490 0.260
30.5171 6.240 0.255
30.5376 6.198 0.254
30.5580 6.177 0.254
30.5785 6.521 0.261
30.5990 6.479 0.260
30.6194 6.188 0.254
30.6399 6.281 0.256
30.6604 6.219 0.255
30.6808 6.344 0.257
30.7013 6.792 0.266
30.7217 7.042 0.271
30.7422 7.177 0.273
30.7627 7.135 0.273
30.7831 7.500 0.280
30.8036 8.542 0.298
30.8241 7.365 0.277
30.8445 7.948 0.288
30.8650 8.490 0.297
30.8854 9.958 0.322
30.9059 10.656 0.333
30.9264 13.594 0.376
30.9468 17.167 0.423
30.9673 23.979 0.500
30.9878 36.240 0.614
31.0082 51.885 0.735
31.0287 59.885 0.790
31.0491 50.125 0.723
31.0696 42.188 0.663
31.0901 40.156 0.647
31.1105 37.292 0.623
31.1310 27.073 0.531
31.1515 20.521 0.462
31.1719 16.146 0.410
31.1924 13.531 0.375
31.2128 11.563 0.347
31.2333 11.229 0.342
31.2538 10.240 0.327
31.2742 9.333 0.312
31.2947 8.281 0.294
31.3152 8.135 0.291
31.3356 8.010 0.289
31.3561 7.688 0.283
31.3766 7.625 0.282
31.3970 7.052 0.271
31.4175 7.646 0.282
31.4379 7.042 0.271
31.4584 6.729 0.265
31.4789 6.833 0.267
31.4993 7.719 0.284
31.5198 7.125 0.272
31.5403 6.729 0.265
31.5607 6.479 0.260
31.5812 7.260 0.275
31.6016 6.948 0.269
31.6221 6.615 0.262
31.6426 7.417 0.278
31.6630 6.719 0.265
31.6835 7.042 0.271
31.7040 7.042 0.271
31.7244 6.531 0.261
31.7449 6.677 0.264
31.7653 6.771 0.266
31.7858 7.198 0.274
31.8063 7.208 0.274
31.8267 7.260 0.275
31.8472 7.021 0.270
31.8677 6.615 0.262
31.8881 7.427 0.278
31.9086 7.625 0.282
31.9290 7.438 0.278
31.9495 7.927 0.287
31.9700 8.125 0.291
31.9904 8.313 0.294
32.0109 7.896 0.287
32.0314 8.698 0.301
32.0518 8.875 0.304
32.0723 9.750 0.319
32.0927 10.167 0.325
32.1132 10.365 0.329
32.1337 10.865 0.336
32.1541 10.281 0.327
32.1746 9.823 0.320
32.1951 9.667 0.317
32.2155 9.438 0.314
32.2360 9.146 0.309
32.2565 8.573 0.299
32.2769 8.198 0.292
32.2974 8.490 0.297
32.3178 8.125 0.291
32.3383 7.938 0.288
32.3588 7.792 0.285
32.3792 8.271 0.294
32.3997 7.885 0.287
32.4202 7.813 0.285
32.4406 8.646 0.300
32.4611 8.521 0.298
32.4815 9.208 0.310
32.5020 9.948 0.322
32.5225 10.135 0.325
32.5429 11.688 0.349
32.5634 12.823 0.365
32.5839 16.094 0.409
32.6043 20.344 0.460
32.6248 24.156 0.502
32.6452 23.469 0.494
32.6657 20.281 0.460
32.6862 19.146 0.447
32.7066 17.760 0.430
32.7271 15.552 0.402
32.7476 14.042 0.382
32.7680 10.958 0.338
32.7885 9.667 0.317
32.8089 8.573 0.299
32.8294 8.396 0.296
32.8499 8.542 0.298
32.8703 8.500 0.298
32.8908 8.292 0.294
32.9113 6.990 0.270
32.9317 8.063 0.290
32.9522 7.479 0.279
32.9726 7.229 0.274
32.9931 7.656 0.282
33.0136 7.354 0.277
33.0340 7.240 0.275
33.0545 7.208 0.274
33.0750 6.760 0.265
33.0954 6.833 0.267
33.1159 6.938 0.269
33.1364 6.615 0.262
33.1568 6.896 0.268
33.1773 7.135 0.273
33.1977 6.573 0.262
33.2182 6.698 0.264
33.2387 6.635 0.263
33.2591 6.771 0.266
33.2796 6.844 0.267
33.3001 6.438 0.259
33.3205 6.396 0.258
33.3410 6.229 0.255
33.3614 6.333 0.257
33.3819 6.510 0.260
33.4024 6.625 0.263
33.4228 6.188 0.254
33.4433 6.677 0.264
33.4638 6.292 0.256
33.4842 6.385 0.258
33.5047 6.458 0.259
33.5251 5.771 0.245
33.5456 6.448 0.259
33.5661 6.167 0.253
33.5865 6.438 0.259
33.6070 5.969 0.249
33.6275 6.229 0.255
33.6479 6.344 0.257
33.6684 6.125 0.253
33.6888 5.646 0.243
33.7093 5.938 0.249
33.7298 6.135 0.253
33.7502 5.750 0.245
33.7707 5.771 0.245
33.7912 6.333 0.257
33.8116 5.625 0.242
33.8321 6.052 0.251
33.8526 6.000 0.250
33.8730 6.135 0.253
33.8935 6.292 0.256
33.9139 6.365 0.257
33.9344 6.229 0.255
33.9549 5.677 0.243
33.9753 5.646 0.243
33.9958 5.833 0.247
34.0163 5.813 0.246
34.0367 6.406 0.258
34.0572 6.198 0.254
34.0776 6.177 0.254
34.0981 6.688 0.264
34.1186 5.698 0.244
34.1390 5.979 0.250
34.1595 6.125 0.253
34.1800 6.052 0.251
34.2004 5.896 0.248
34.2209 6.177 0.254
34.2413 6.146 0.253
34.2618 6.188 0.254
34.2823 6.208 0.254
34.3027 6.000 0.250
34.3232 5.906 0.248
34.3437 5.615 0.242
34.3641 6.375 0.258
34.3846 5.688 0.243
34.4050 5.771 0.245
34.4255 5.917 0.248
34.4460 5.677 0.243
34.4664 5.594 0.241
34.4869 6.188 0.254
34.5074 6.115 0.252
34.5278 5.823 0.246
34.5483 5.677 0.243
34.5687 5.677 0.243
34.5892 5.583 0.241
34.6097 5.469 0.239
34.6301 5.740 0.245
34.6506 5.729 0.244
34.6711 5.813 0.246
34.6915 6.000 0.250
34.7120 5.625 0.242
34.7325 5.927 0.248
34.7529 5.875 0.247
34.7734 4.854 0.225
34.7938 5.521 0.240
34.8143 5.573 0.241
34.8348 5.896 0.248
34.8552 5.750 0.245
34.8757 5.563 0.241
34.8962 5.573 0.241
34.9166 5.438 0.238
34.9371 5.615 0.242
34.9575 5.948 0.249
34.9780 5.938 0.249
34.9985 5.604 0.242
35.0189 6.000 0.250
35.0394 6.052 0.251
35.0599 5.573 0.241
35.0803 5.813 0.246
35.1008 5.823 0.246
35.1212 5.813 0.246
35.1417 5.781 0.245
35.1622 5.948 0.249
35.1826 5.865 0.247
35.2031 6.271 0.256
35.2236 6.135 0.253
35.2440 5.292 0.235
35.2645 6.104 0.252
35.2849 5.615 0.242
35.3054 6.042 0.251
35.3259 6.125 0.253
35.3463 5.958 0.249
35.3668 6.052 0.251
35.3873 5.708 0.244
35.4077 5.740 0.245
35.4282 5.948 0.249
35.4486 6.229 0.255
35.4691 6.167 0.253
35.4896 6.021 0.250
35.5100 5.760 0.245
35.5305 6.313 0.256
35.5510 6.313 0.256
35.5714 5.927 0.248
35.5919 6.031 0.251
35.6124 6.219 0.255
35.6328 6.490 0.260
35.6533 5.865 0.247
35.6737 6.083 0.252
35.6942 6.604 0.262
35.7147 6.406 0.258
35.7351 6.563 0.261
35.7556 6.688 0.264
35.7761 6.865 0.267
35.7965 7.302 0.276
35.8170 6.698 0.264
35.8374 6.479 0.260
35.8579 6.615 0.262
35.8784 7.146 0.273
35.8988 7.010 0.270
35.9193 7.458 0.279
35.9398 7.948 0.288
35.9602 8.510 0.298
35.9807 9.135 0.308
36.0011 9.375 0.313
36.0216 9.771 0.319
36.0421 9.573 0.316
36.0625 10.135 0.325
36.0830 10.781 0.335
36.1035 10.917 0.337
36.1239 11.135 0.341
36.1444 11.500 0.346
36.1648 11.104 0.340
36.1853 11.281 0.343
36.2058 10.552 0.332
36.2262 10.573 0.332
36.2467 10.354 0.328
36.2672 11.115 0.340
36.2876 10.646 0.333
36.3081 10.302 0.328
36.3285 10.719 0.334
36.3490 11.219 0.342
36.3695 12.146 0.356
36.3899 12.677 0.363
36.4104 12.865 0.366
36.4309 12.052 0.354
36.4513 13.990 0.382
36.4718 14.052 0.383
36.4923 14.073 0.383
36.5127 16.292 0.412
36.5332 18.229 0.436
36.5536 21.260 0.471
36.5741 26.167 0.522
36.5946 31.000 0.568
36.6150 34.563 0.600
36.6355 31.365 0.572
36.6560 26.531 0.526
36.6764 25.469 0.515
36.6969 24.688 0.507
36.7173 23.865 0.499
36.7378 19.250 0.448
36.7583 16.594 0.416
36.7787 15.906 0.407
36.7992 13.990 0.382
36.8197 14.438 0.388
36.8401 14.313 0.386
36.8606 13.729 0.378
36.8810 14.177 0.384
36.9015 14.052 0.383
36.9220 15.833 0.406
36.9424 15.354 0.400
36.9629 17.260 0.424
36.9834 17.740 0.430
37.0038 19.729 0.453
37.0243 23.646 0.496
37.0447 29.240 0.552
37.0652 35.406 0.607
37.0857 40.240 0.647
37.1061 41.448 0.657
37.1266 36.260 0.615
37.1471 31.563 0.573
37.1675 29.635 0.556
37.1880 30.073 0.560
37.2084 26.104 0.521
37.2289 21.469 0.473
37.2494 19.021 0.445
37.2698 16.198 0.411
37.2903 14.427 0.388
37.3108 12.927 0.367
37.3312 12.573 0.362
37.3517 11.469 0.346
37.3722 11.823 0.351
37.3926 10.677 0.333
37.4131 11.646 0.348
37.4335 11.083 0.340
37.4540 10.354 0.328
37.4745 10.906 0.337
37.4949 10.948 0.338
37.5154 11.885 0.352
37.5359 11.271 0.343
37.5563 10.948 0.338
37.5768 11.573 0.347
37.5972 11.833 0.351
37.6177 11.583 0.347
37.6382 12.396 0.359
37.6586 12.250 0.357
37.6791 12.094 0.355
37.6996 11.229 0.342
37.7200 11.792 0.350
37.7405 11.563 0.347
37.7609 11.240 0.342
37.7814 11.031 0.339
37.8019 10.281 0.327
37.8223 10.760 0.335
37.8428 10.479 0.330
37.8633 10.583 0.332
37.8837 10.615 0.333
37.9042 10.458 0.330
37.9246 11.135 0.341
37.9451 11.490 0.346
37.9656 11.969 0.353
37.9860 13.656 0.377
38.0065 14.969 0.395
38.0270 16.615 0.416
38.0474 17.375 0.425
38.0679 17.063 0.422
38.0884 15.823 0.406
38.1088 14.729 0.392
38.1293 14.281 0.386
38.1497 14.906 0.394
38.1702 13.969 0.381
38.1907 13.073 0.369
38.2111 11.958 0.353
38.2316 10.375 0.329
38.2521 10.271 0.327
38.2725 10.885 0.337
38.2930 10.427 0.330
38.3134 10.135 0.325
38.3339 10.281 0.327
38.3544 11.010 0.339
38.3748 10.906 0.337
38.3953 11.344 0.344
38.4158 13.083 0.369
38.4362 14.333 0.386
38.4567 16.969 0.420
38.4771 17.167 0.423
38.4976 15.729 0.405
38.5181 14.250 0.385
38.5385 13.063 0.369
38.5590 14.292 0.386
38.5795 12.406 0.359
38.5999 11.396 0.345
38.6204 11.073 0.340
38.6408 9.865 0.321
38.6613 9.510 0.315
38.6818 8.813 0.303
38.7022 8.385 0.296
38.7227 8.208 0.292
38.7432 7.667 0.283
38.7636 7.688 0.283
38.7841 8.083 0.290
38.8045 8.052 0.290
38.8250 7.885 0.287
38.8455 7.094 0.272
38.8659 7.406 0.278
38.8864 7.677 0.283
38.9069 7.042 0.271
38.9273 7.406 0.278
38.9478 7.385 0.277
38.9683 7.479 0.279
38.9887 7.427 0.278
39.0092 7.573 0.281
39.0296 7.521 0.280
39.0501 8.135 0.291
39.0706 8.052 0.290
39.0910 7.906 0.287
39.1115 8.281 0.294
39.1320 7.333 0.276
39.1524 7.750 0.284
39.1729 7.115 0.272
39.1933 7.719 0.284
39.2138 7.760 0.284
39.2343 7.729 0.284
39.2547 7.813 0.285
39.2752 8.156 0.291
39.2957 8.198 0.292
39.3161 7.865 0.286
39.3366 8.010 0.289
39.3570 8.146 0.291
39.3775 8.594 0.299
39.3980 8.344 0.295
39.4184 8.708 0.301
39.4389 8.896 0.304
39.4594 8.740 0.302
39.4798 9.500 0.315
39.5003 9.052 0.307
39.5207 8.979 0.306
39.5412 9.719 0.318
39.5617 9.115 0.308
39.5821 9.156 0.309
39.6026 9.135 0.308
39.6231 9.365 0.312
39.6435 9.313 0.311
39.6640 9.219 0.310
39.6844 9.594 0.316
39.7049 10.104 0.324
39.7254 10.438 0.330
39.7458 10.948 0.338
39.7663 11.885 0.352
39.7868 13.250 0.372
39.8072 13.781 0.379
39.8277 14.031 0.382
39.8482 13.396 0.374
39.8686 12.083 0.355
39.8891 12.021 0.354
39.9095 11.896 0.352
39.9300 11.573 0.347
39.9505 10.573 0.332
39.9709 9.906 0.321
39.9914 10.010 0.323
40.0119 9.271 0.311
40.0323 9.094 0.308
40.0528 9.177 0.309
40.0732 9.281 0.311
40.0937 8.688 0.301
40.1142 9.552 0.315
40.1346 8.896 0.304
40.1551 9.760 0.319
40.1756 9.208 0.310
40.1960 8.667 0.300
40.2165 9.646 0.317
40.2369 10.188 0.326
40.2574 10.375 0.329
40.2779 11.250 0.342
40.2983 12.646 0.363
40.3188 13.427 0.374
40.3393 13.073 0.369
40.3597 11.750 0.350
40.3802 11.042 0.339
40.4006 12.323 0.358
40.4211 12.646 0.363
40.4416 12.052 0.354
40.4620 11.125 0.340
40.4825 10.510 0.331
40.5030 10.896 0.337
40.5234 11.063 0.339
40.5439 10.198 0.326
40.5643 10.740 0.334
40.5848 10.740 0.334
40.6053 9.990 0.323
40.6257 9.781 0.319
40.6462 10.063 0.324
40.6667 9.979 0.322
40.6871 9.604 0.316
40.7076 9.656 0.317
40.7281 9.250 0.310
40.7485 9.083 0.308
40.7690 8.542 0.298
40.7894 9.021 0.307
40.8099 8.406 0.296
40.8304 8.625 0.300
40.8508 8.333 0.295
40.8713 8.010 0.289
40.8918 8.188 0.292
40.9122 8.396 0.296
40.9327 7.719 0.284
40.9531 8.500 0.298
40.9736 8.219 0.293
40.9941 8.677 0.301
41.0145 8.521 0.298
41.0350 9.469 0.314
41.0555 9.813 0.320
41.0759 10.063 0.324
41.0964 11.604 0.348
41.1168 13.667 0.377
41.1373 15.365 0.400
41.1578 16.240 0.411
41.1782 16.146 0.410
41.1987 12.802 0.365
41.2192 13.667 0.377
41.2396 12.563 0.362
41.2601 12.760 0.365
41.2805 11.615 0.348
41.3010 11.063 0.339
41.3215 9.010 0.306
41.3419 8.635 0.300
41.3624 7.885 0.287
41.3829 7.833 0.286
41.4033 7.208 0.274
41.4238 7.417 0.278
41.4442 7.042 0.271
41.4647 7.156 0.273
41.4852 7.083 0.272
41.5056 7.156 0.273
41.5261 7.010 0.270
41.5466 7.063 0.271
41.5670 6.896 0.268
41.5875 7.135 0.273
41.6080 7.823 0.285
41.6284 7.396 0.278
41.6489 7.354 0.277
41.6693 7.667 0.283
41.6898 7.542 0.280
41.7103 7.281 0.275
41.7307 6.875 0.268
41.7512 6.979 0.270
41.7717 7.031 0.271
41.7921 7.396 0.278
41.8126 6.667 0.264
41.8330 6.948 0.269
41.8535 6.969 0.269
41.8740 6.896 0.268
41.8944 6.469 0.260
41.9149 6.656 0.263
41.9354 6.854 0.267
41.9558 6.698 0.264
41.9763 6.438 0.259
41.9967 6.042 0.251
42.0172 6.906 0.268
42.0377 6.427 0.259
42.0581 7.031 0.271
42.0786 6.448 0.259
42.0991 6.156 0.253
42.1195 6.396 0.258
42.1400 6.625 0.263
42.1604 6.396 0.258
42.1809 6.021 0.250
42.2014 6.781 0.266
42.2218 6.365 0.257
42.2423 6.240 0.255
42.2628 6.427 0.259
42.2832 6.083 0.252
42.3037 6.292 0.256
42.3242 6.135 0.253
42.3446 6.615 0.262
42.3651 6.250 0.255
42.3855 6.063 0.251
42.4060 6.260 0.255
42.4265 6.458 0.259
42.4469 6.302 0.256
42.4674 6.010 0.250
42.4879 5.990 0.250
42.5083 6.354 0.257
42.5288 6.354 0.257
42.5492 6.656 0.263
42.5697 6.417 0.259
42.5902 6.240 0.255
42.6106 6.406 0.258
42.6311 6.469 0.260
42.6516 6.365 0.257
42.6720 6.656 0.263
42.6925 6.938 0.269
42.7129 6.906 0.268
42.7334 6.844 0.267
42.7539 6.354 0.257
42.7743 6.958 0.269
42.7948 6.646 0.263
42.8153 6.375 0.258
42.8357 6.510 0.260
42.8562 5.885 0.248
42.8766 6.719 0.265
42.8971 6.792 0.266
42.9176 6.406 0.258
42.9380 6.760 0.265
42.9585 6.521 0.261
42.9790 7.125 0.272
42.9994 6.573 0.262
43.0199 6.615 0.262
43.0403 6.896 0.268
43.0608 6.542 0.261
43.0813 6.594 0.262
43.1017 6.750 0.265
43.1222 7.708 0.283
43.1427 7.490 0.279
43.1631 8.000 0.289
43.1836 8.167 0.292
43.2041 9.333 0.312
43.2245 9.667 0.317
43.2450 9.594 0.316
43.2654 10.031 0.323
43.2859 9.417 0.313
43.3064 9.281 0.311
43.3268 9.219 0.310
43.3473 10.042 0.323
43.3678 9.667 0.317
43.3882 9.604 0.316
43.4087 9.698 0.318
43.4291 9.438 0.314
43.4496 10.031 0.323
43.4701 9.333 0.312
43.4905 10.667 0.333
43.5110 10.865 0.336
43.5315 10.854 0.336
43.5519 13.469 0.375
43.5724 14.875 0.394
43.5928 17.146 0.423
43.6133 19.615 0.452
43.6338 21.792 0.476
43.6542 24.552 0.506
43.6747 23.271 0.492
43.6952 21.708 0.476
43.7156 19.490 0.451
43.7361 18.104 0.434
43.7565 17.552 0.428
43.7770 17.427 0.426
43.7975 15.146 0.397
43.8179 13.396 0.374
43.8384 12.167 0.356
43.8589 10.906 0.337
43.8793 9.365 0.312
43.8998 9.073 0.307
43.9202 8.969 0.306
43.9407 8.490 0.297
43.9612 7.969 0.288
43.9816 7.813 0.285
44.0021 7.927 0.287
44.0226 7.615 0.282
44.0430 7.688 0.283
44.0635 7.813 0.285
44.0840 7.583 0.281
44.1044 7.875 0.286
44.1249 7.594 0.281
44.1453 7.688 0.283
44.1658 7.990 0.288
44.1863 8.063 0.290
44.2067 7.948 0.288
44.2272 7.438 0.278
44.2477 7.427 0.278
44.2681 7.542 0.280
44.2886 7.188 0.274
44.3090 7.635 0.282
44.3295 7.083 0.272
44.3500 6.510 0.260
44.3704 7.073 0.271
44.3909 6.969 0.269
44.4114 7.323 0.276
44.4318 6.813 0.266
44.4523 6.604 0.262
44.4727 6.323 0.257
44.4932 7.302 0.276
44.5137 6.625 0.263
44.5341 6.531 0.261
44.5546 6.490 0.260
44.5751 7.229 0.274
44.5955 6.688 0.264
44.6160 7.177 0.273
44.6364 6.698 0.264
44.6569 7.000 0.270
44.6774 7.521 0.280
44.6978 6.802 0.266
44.7183 6.979 0.270
44.7388 7.125 0.272
44.7592 6.990 0.270
44.7797 7.323 0.276
44.8001 6.802 0.266
44.8206 6.719 0.265
44.8411 7.438 0.278
44.8615 7.219 0.274
44.8820 7.135 0.273
44.9025 7.583 0.281
44.9229 6.583 0.262
44.9434 6.875 0.268
44.9639 6.958 0.269
44.9843 7.188 0.274
45.0048 7.135 0.273
45.0252 6.854 0.267
45.0457 7.021 0.270
45.0662 7.417 0.278
45.0866 7.281 0.275
45.1071 7.490 0.279
45.1276 7.823 0.285
45.1480 7.802 0.285
45.1685 8.219 0.293
45.1889 8.875 0.304
45.2094 9.188 0.309
45.2299 10.542 0.331
45.2503 11.385 0.344
45.2708 12.250 0.357
45.2913 11.240 0.342
45.3117 10.594 0.332
45.3322 9.656 0.317
45.3526 9.510 0.315
45.3731 9.844 0.320
45.3936 9.635 0.317
45.4140 9.198 0.310
45.4345 8.563 0.299
45.4550 8.115 0.291
45.4754 7.573 0.281
45.4959 7.302 0.276
45.5163 7.542 0.280
45.5368 6.990 0.270
45.5573 6.969 0.269
45.5777 6.625 0.263
45.5982 6.729 0.265
45.6187 6.625 0.263
45.6391 6.188 0.254
45.6596 6.021 0.250
45.6800 6.156 0.253
45.7005 5.698 0.244
45.7210 5.417 0.238
45.7414 5.844 0.247
45.7619 5.885 0.248
45.7824 5.990 0.250
45.8028 5.698 0.244
45.8233 5.750 0.245
45.8438 5.885 0.248
45.8642 5.458 0.238
45.8847 6.083 0.252
45.9051 5.344 0.236
45.9256 5.260 0.234
45.9461 5.271 0.234
45.9665 5.250 0.234
45.9870 5.385 0.237
46.0075 5.260 0.234
46.0279 5.750 0.245
46.0484 5.406 0.237
46.0688 5.500 0.239
46.0893 5.802 0.246
46.1098 5.271 0.234
46.1302 5.323 0.235
46.1507 5.354 0.236
46.1712 5.729 0.244
46.1916 5.583 0.241
46.2121 4.979 0.228
46.2325 5.010 0.228
46.2530 5.125 0.231
46.2735 5.302 0.235
46.2939 5.688 0.243
46.3144 5.260 0.234
46.3349 5.635 0.242
46.3553 5.083 0.230
46.3758 5.427 0.238
46.3962 5.135 0.231
46.4167 5.250 0.234
46.4372 5.052 0.229
46.4576 5.021 0.229
46.4781 5.104 0.231
46.4986 5.177 0.232
46.5190 5.500 0.239
46.5395 5.292 0.235
46.5600 5.323 0.235
46.5804 5.313 0.235
46.6009 4.927 0.227
46.6213 4.938 0.227
46.6418 5.479 0.239
46.6623 5.167 0.232
46.6827 4.979 0.228
46.7032 5.250 0.234
46.7237 4.927 0.227
46.7441 5.427 0.238
46.7646 5.104 0.231
46.7850 5.365 0.236
46.8055 4.844 0.225
46.8260 5.208 0.233
46.8464 5.125 0.231
46.8669 5.500 0.239
46.8874 4.938 0.227
46.9078 5.281 0.235
46.9283 4.792 0.223
46.9487 5.271 0.234
46.9692 5.521 0.240
46.9897 5.677 0.243
47.0101 5.510 0.240
47.0306 5.177 0.232
47.0511 5.521 0.240
47.0715 5.250 0.234
47.0920 5.417 0.238
47.1124 5.531 0.240
47.1329 5.458 0.238
47.1534 5.521 0.240
47.1738 5.510 0.240
47.1943 5.677 0.243
47.2148 5.260 0.234
47.2352 5.875 0.247
47.2557 5.938 0.249
47.2761 6.010 0.250
47.2966 6.104 0.252
47.3171 5.938 0.249
47.3375 6.458 0.259
47.3580 6.427 0.259
47.3785 6.427 0.259
47.3989 6.708 0.264
47.4194 6.719 0.265
47.4399 6.948 0.269
47.4603 6.677 0.264
47.4808 6.792 0.266
47.5012 7.458 0.279
47.5217 7.490 0.279
47.5422 7.917 0.287
47.5626 8.219 0.293
47.5831 9.188 0.309
47.6036 9.208 0.310
47.6240 10.271 0.327
47.6445 10.417 0.329
47.6649 10.563 0.332
47.6854 9.469 0.314
47.7059 9.083 0.308
47.7263 8.583 0.299
47.7468 8.792 0.303
47.7673 9.042 0.307
47.7877 8.073 0.290
47.8082 7.510 0.280
47.8286 7.125 0.272
47.8491 6.479 0.260
47.8696 6.490 0.260
47.8900 5.969 0.249
47.9105 5.948 0.249
47.9310 6.229 0.255
47.9514 5.802 0.246
47.9719 5.823 0.246
47.9923 5.625 0.242
48.0128 5.448 0.238
48.0333 5.479 0.239
48.0537 5.271 0.234
48.0742 5.792 0.246
48.0947 5.885 0.248
48.1151 5.438 0.238
48.1356 5.875 0.247
48.1560 5.625 0.242
48.1765 5.729 0.244
48.1970 5.500 0.239
48.2174 5.365 0.236
48.2379 5.771 0.245
48.2584 6.281 0.256
48.2788 6.052 0.251
48.2993 7.208 0.274
48.3198 7.198 0.274
48.3402 7.594 0.281
48.3607 7.573 0.281
48.3811 6.167 0.253
48.4016 6.323 0.257
48.4221 6.396 0.258
48.4425 6.052 0.251
48.4630 7.292 0.276
48.4835 6.792 0.266
48.5039 6.479 0.260
48.5244 6.208 0.254
48.5448 5.635 0.242
48.5653 5.885 0.248
48.5858 5.833 0.247
48.6062 5.906 0.248
48.6267 6.125 0.253
48.6472 5.917 0.248
48.6676 6.229 0.255
48.6881 6.656 0.263
48.7085 7.521 0.280
48.7290 7.625 0.282
48.7495 7.198 0.274
48.7699 6.583 0.262
48.7904 5.875 0.247
48.8109 6.635 0.263
48.8313 6.135 0.253
48.8518 6.188 0.254
48.8722 6.302 0.256
48.8927 5.427 0.238
48.9132 5.552 0.240
48.9336 5.646 0.243
48.9541 5.323 0.235
48.9746 5.479 0.239
48.9950 5.042 0.229
49.0155 5.365 0.236
49.0359 5.208 0.233
49.0564 5.042 0.229
49.0769 4.625 0.219
49.0973 4.792 0.223
49.1178 4.844 0.225
49.1383 4.708 0.221
49.1587 4.969 0.228
49.1792 4.875 0.225
49.1997 5.198 0.233
49.2201 5.000 0.228
49.2406 4.896 0.226
49.2610 5.063 0.230
49.2815 5.125 0.231
49.3020 5.188 0.232
49.3224 5.188 0.232
49.3429 5.219 0.233
49.3634 5.438 0.238
49.3838 4.750 0.222
49.4043 4.948 0.227
49.4247 5.458 0.238
49.4452 5.229 0.233
49.4657 5.375 0.237
49.4861 5.229 0.233
49.5066 5.354 0.236
49.5271 5.896 0.248
49.5475 5.885 0.248
49.5680 5.740 0.245
49.5884 6.354 0.257
49.6089 6.188 0.254
49.6294 6.354 0.257
49.6498 6.438 0.259
49.6703 6.885 0.268
49.6908 7.385 0.277
49.7112 7.354 0.277
49.7317 8.563 0.299
49.7521 8.677 0.301
49.7726 9.823 0.320
49.7931 11.219 0.342
49.8135 11.823 0.351
49.8340 14.260 0.385
49.8545 16.448 0.414
49.8749 16.708 0.417
49.8954 16.500 0.415
49.9158 14.698 0.391
49.9363 13.542 0.376
49.9568 12.615 0.362
49.9772 13.104 0.369
49.9977 13.010 0.368
50.0182 11.750 0.350
50.0386 11.229 0.342
50.0591 10.438 0.330
50.0796 9.292 0.311
50.1000 8.469 0.297
50.1205 8.594 0.299
50.1409 8.552 0.298
50.1614 8.813 0.303
50.1819 8.896 0.304
50.2023 10.115 0.325
50.2228 9.365 0.312
50.2433 8.677 0.301
50.2637 8.219 0.293
50.2842 7.938 0.288
50.3046 7.781 0.285
50.3251 7.292 0.276
50.3456 7.573 0.281
50.3660 7.865 0.286
50.3865 7.146 0.273
50.4070 7.396 0.278
50.4274 6.302 0.256
50.4479 6.854 0.267
50.4683 6.198 0.254
50.4888 6.302 0.256
50.5093 6.104 0.252
50.5297 6.333 0.257
50.5502 6.396 0.258
50.5707 6.083 0.252
50.5911 5.948 0.249
50.6116 6.458 0.259
50.6320 5.885 0.248
50.6525 6.146 0.253
50.6730 6.104 0.252
50.6934 5.510 0.240
50.7139 5.510 0.240
50.7344 5.625 0.242
50.7548 5.313 0.235
50.7753 5.469 0.239
50.7958 5.656 0.243
50.8162 6.125 0.253
50.8367 5.781 0.245
50.8571 5.458 0.238
50.8776 5.604 0.242
50.8981 5.844 0.247
50.9185 5.229 0.233
50.9390 6.208 0.254
50.9595 6.125 0.253
50.9799 6.635 0.263
51.0004 6.906 0.268
51.0208 7.354 0.277
51.0413 7.000 0.270
51.0618 6.479 0.260
51.0822 5.990 0.250
51.1027 5.802 0.246
51.1232 6.385 0.258
51.1436 5.969 0.249
51.1641 6.021 0.250
51.1845 6.375 0.258
51.2050 6.104 0.252
51.2255 6.063 0.251
51.2459 5.635 0.242
51.2664 6.115 0.252
51.2869 6.302 0.256
51.3073 6.260 0.255
51.3278 6.073 0.252
51.3482 6.448 0.259
51.3687 5.646 0.243
51.3892 5.865 0.247
51.4096 5.771 0.245
51.4301 5.990 0.250
51.4506 6.031 0.251
51.4710 5.813 0.246
51.4915 5.771 0.245
51.5119 5.573 0.241
51.5324 5.281 0.235
51.5529 6.208 0.254
51.5733 5.302 0.235
51.5938 5.063 0.230
51.6143 6.073 0.252
51.6347 6.135 0.253
51.6552 6.375 0.258
51.6757 6.104 0.252
51.6961 6.740 0.265
51.7166 7.083 0.272
51.7370 6.656 0.263
51.7575 6.104 0.252
51.7780 5.927 0.248
51.7984 5.844 0.247
51.8189 6.000 0.250
51.8394 5.698 0.244
51.8598 5.719 0.244
51.8803 5.646 0.243
51.9007 5.667 0.243
51.9212 5.615 0.242
51.9417 5.250 0.234
51.9621 5.802 0.246
51.9826 5.146 0.232
52.0031 5.000 0.228
52.0235 5.021 0.229
52.0440 4.792 0.223
52.0644 5.177 0.232
52.0849 5.635 0.242
52.1054 5.479 0.239
52.1258 5.260 0.234
52.1463 5.219 0.233
52.1668 5.219 0.233
52.1872 5.302 0.235
52.2077 5.646 0.243
52.2281 5.521 0.240
52.2486 5.500 0.239
52.2691 5.365 0.236
52.2895 5.406 0.237
52.3100 5.781 0.245
52.3305 5.177 0.232
52.3509 5.083 0.230
52.3714 5.469 0.239
52.3918 5.615 0.242
52.4123 5.813 0.246
52.4328 5.635 0.242
52.4532 5.448 0.238
52.4737 5.313 0.235
52.4942 4.854 0.225
52.5146 4.896 0.226
52.5351 5.167 0.232
52.5556 5.125 0.231
52.5760 5.250 0.234
52.5965 4.500 0.217
52.6169 4.948 0.227
52.6374 4.542 0.218
52.6579 4.875 0.225
52.6783 5.208 0.233
52.6988 5.344 0.236
52.7193 4.635 0.220
52.7397 4.646 0.220
52.7602 4.938 0.227
52.7806 4.958 0.227
52.8011 5.073 0.230
52.8216 4.635 0.220
52.8420 4.563 0.218
52.8625 4.896 0.226
52.8830 4.917 0.226
52.9034 5.083 0.230
52.9239 4.969 0.228
52.9443 5.115 0.231
52.9648 4.656 0.220
52.9853 5.083 0.230
53.0057 5.271 0.234
53.0262 4.875 0.225
53.0467 5.156 0.232
53.0671 5.417 0.238
53.0876 5.083 0.230
53.1080 5.469 0.239
53.1285 5.792 0.246
53.1490 5.323 0.235
53.1694 5.229 0.233
53.1899 6.021 0.250
53.2104 5.500 0.239
53.2308 5.406 0.237
53.2513 5.229 0.233
53.2717 5.240 0.234
53.2922 5.167 0.232
53.3127 5.271 0.234
53.3331 4.667 0.220
53.3536 4.604 0.219
53.3741 4.656 0.220
53.3945 4.625 0.219
53.4150 4.521 0.217
53.4355 4.990 0.228
53.4559 4.406 0.214
53.4764 4.333 0.212
53.4968 4.344 0.213
53.5173 4.625 0.219
53.5378 4.792 0.223
53.5582 4.271 0.211
53.5787 4.271 0.211
53.5992 4.573 0.218
53.6196 4.073 0.206
53.6401 4.729 0.222
53.6605 4.448 0.215
53.6810 4.219 0.210
53.7015 4.094 0.207
53.7219 4.656 0.220
53.7424 4.458 0.216
53.7629 4.375 0.213
53.7833 4.531 0.217
53.8038 4.625 0.219
53.8242 4.208 0.209
53.8447 4.573 0.218
53.8652 4.208 0.209
53.8856 4.583 0.219
53.9061 4.479 0.216
53.9266 4.656 0.220
53.9470 5.063 0.230
53.9675 4.781 0.223
53.9879 4.531 0.217
54.0084 4.656 0.220
54.0289 5.094 0.230
54.0493 4.792 0.223
54.0698 4.719 0.222
54.0903 4.833 0.224
54.1107 5.292 0.235
54.1312 5.115 0.231
54.1516 5.344 0.236
54.1721 5.281 0.235
54.1926 5.229 0.233
54.2130 5.083 0.230
54.2335 4.990 0.228
54.2540 5.260 0.234
54.2744 5.479 0.239
54.2949 5.167 0.232
54.3154 5.000 0.228
54.3358 4.875 0.225
54.3563 4.854 0.225
54.3767 5.073 0.230
54.3972 4.896 0.226
54.4177 4.833 0.224
54.4381 4.917 0.226
54.4586 4.427 0.215
54.4791 5.010 0.228
54.4995 4.917 0.226
54.5200 4.781 0.223
54.5404 5.156 0.232
54.5609 4.844 0.225
54.5814 4.708 0.221
54.6018 4.302 0.212
54.6223 3.990 0.204
54.6428 4.760 0.223
54.6632 4.542 0.218
54.6837 4.698 0.221
54.7041 4.521 0.217
54.7246 4.313 0.212
54.7451 4.448 0.215
54.7655 4.156 0.208
54.7860 4.844 0.225
54.8065 4.333 0.212
54.8269 4.688 0.221
54.8474 4.542 0.218
54.8678 4.906 0.226
54.8883 4.854 0.225
54.9088 5.135 0.231
54.9292 5.021 0.229
54.9497 5.406 0.237
54.9702 5.302 0.235
54.9906 5.823 0.246
55.0111 5.510 0.240
55.0316 6.135 0.253
55.0520 6.656 0.263
55.0725 7.677 0.283
55.0929 9.563 0.316
55.1134 10.510 0.331
55.1339 13.479 0.375
55.1543 15.635 0.404
55.1748 17.031 0.421
55.1953 18.073 0.434
55.2157 15.740 0.405
55.2362 13.135 0.370
55.2566 11.240 0.342
55.2771 11.354 0.344
55.2976 11.844 0.351
55.3180 13.042 0.369
55.3385 13.323 0.373
55.3590 10.781 0.335
55.3794 9.781 0.319
55.3999 8.646 0.300
55.4203 7.323 0.276
55.4408 7.521 0.280
55.4613 6.792 0.266
55.4817 6.563 0.261
55.5022 5.969 0.249
55.5227 5.990 0.250
55.5431 5.979 0.250
55.5636 5.292 0.235
55.5840 5.521 0.240
55.6045 5.729 0.244
55.6250 5.323 0.235
55.6454 4.958 0.227
55.6659 5.615 0.242
55.6864 5.417 0.238
55.7068 5.396 0.237
55.7273 5.292 0.235
55.7477 5.781 0.245
55.7682 5.510 0.240
55.7887 5.885 0.248
55.8091 5.969 0.249
55.8296 6.177 0.254
55.8501 6.521 0.261
55.8705 6.208 0.254
55.8910 6.708 0.264
55.9115 6.542 0.261
55.9319 5.750 0.245
55.9524 6.250 0.255
55.9728 6.229 0.255
55.9933 6.146 0.253
56.0138 6.333 0.257
56.0342 6.365 0.257
56.0547 6.354 0.257
56.0752 6.677 0.264
56.0956 7.240 0.275
56.1161 7.615 0.282
56.1365 8.427 0.296
56.1570 9.406 0.313
56.1775 11.042 0.339
56.1979 11.458 0.345
56.2184 11.750 0.350
56.2389 10.188 0.326
56.2593 9.135 0.308
56.2798 8.458 0.297
56.3002 8.250 0.293
56.3207 7.927 0.287
56.3412 7.813 0.285
56.3616 8.156 0.291
56.3821 8.000 0.289
56.4026 6.646 0.263
56.4230 6.750 0.265
56.4435 5.125 0.231
56.4639 4.813 0.224
56.4844 4.875 0.225
56.5049 4.271 0.211
56.5253 4.094 0.207
56.5458 4.281 0.211
56.5663 4.031 0.205
56.5867 4.427 0.215
56.6072 4.146 0.208
56.6276 4.042 0.205
56.6481 4.052 0.205
56.6686 4.125 0.207
56.6890 3.646 0.195
56.7095 3.979 0.204
56.7300 4.146 0.208
56.7504 3.667 0.195
56.7709 3.750 0.198
56.7914 4.135 0.208
56.8118 4.229 0.210
56.8323 3.771 0.198
56.8527 4.083 0.206
56.8732 3.823 0.200
56.8937 3.729 0.197
56.9141 3.531 0.192
56.9346 3.896 0.201
56.9551 4.073 0.206
56.9755 3.885 0.201
56.9960 3.438 0.189
57.0164 4.146 0.208
57.0369 3.938 0.203
57.0574 3.844 0.200
57.0778 3.885 0.201
57.0983 4.177 0.209
57.1188 3.760 0.198
57.1392 3.979 0.204
57.1597 4.260 0.211
57.1801 3.813 0.199
57.2006 4.031 0.205
57.2211 3.854 0.200
57.2415 4.167 0.208
57.2620 4.219 0.210
57.2825 3.625 0.194
57.3029 3.813 0.199
57.3234 4.115 0.207
57.3438 4.188 0.209
57.3643 4.198 0.209
57.3848 4.250 0.210
57.4052 4.052 0.205
57.4257 3.979 0.204
57.4462 4.354 0.213
57.4666 4.104 0.207
57.4871 4.229 0.210
57.5075 4.354 0.213
57.5280 4.604 0.219
57.5485 4.177 0.209
57.5689 3.958 0.203
57.5894 4.698 0.221
57.6099 4.604 0.219
57.6303 4.021 0.205
57.6508 4.604 0.219
57.6713 4.875 0.225
57.6917 4.802 0.224
57.7122 4.854 0.225
57.7326 4.542 0.218
57.7531 5.125 0.231
57.7736 5.010 0.228
57.7940 5.500 0.239
57.8145 5.917 0.248
57.8350 5.583 0.241
57.8554 6.521 0.261
57.8759 7.000 0.270
57.8963 7.281 0.275
57.9168 7.427 0.278
57.9373 8.479 0.297
57.9577 8.344 0.295
57.9782 8.563 0.299
57.9987 8.333 0.295
58.0191 7.271 0.275
58.0396 6.885 0.268
58.0600 6.917 0.268
58.0805 6.573 0.262
58.1010 6.792 0.266
58.1214 6.146 0.253
58.1419 6.229 0.255
58.1624 5.917 0.248
58.1828 5.500 0.239
58.2033 5.260 0.234
58.2237 4.729 0.222
58.2442 4.625 0.219
58.2647 4.740 0.222
58.2851 4.802 0.224
58.3056 4.427 0.215
58.3261 4.813 0.224
58.3465 4.542 0.218
58.3670 4.198 0.209
58.3874 4.292 0.211
58.4079 4.313 0.212
58.4284 4.354 0.213
58.4488 4.156 0.208
58.4693 4.521 0.217
58.4898 4.281 0.211
58.5102 3.927 0.202
58.5307 3.948 0.203
58.5512 4.188 0.209
58.5716 4.323 0.212
58.5921 4.188 0.209
58.6125 4.406 0.214
58.6330 4.552 0.218
58.6535 4.250 0.210
58.6739 4.052 0.205
58.6944 4.198 0.209
58.7149 4.271 0.211
58.7353 4.521 0.217
58.7558 4.583 0.219
58.7762 4.344 0.213
58.7967 4.260 0.211
58.8172 4.167 0.208
58.8376 4.823 0.224
58.8581 4.500 0.217
58.8786 4.219 0.210
58.8990 4.125 0.207
58.9195 4.198 0.209
58.9399 4.229 0.210
58.9604 4.865 0.225
58.9809 4.333 0.212
59.0013 4.625 0.219
59.0218 4.458 0.216
59.0423 4.656 0.220
59.0627 4.833 0.224
59.0832 5.260 0.234
59.1036 5.375 0.237
59.1241 5.229 0.233
59.1446 6.417 0.259
59.1650 6.490 0.260
59.1855 6.781 0.266
59.2060 7.156 0.273
59.2264 7.469 0.279
59.2469 7.313 0.276
59.2674 6.781 0.266
59.2878 6.656 0.263
59.3083 5.583 0.241
59.3287 5.594 0.241
59.3492 5.833 0.247
59.3697 6.177 0.254
59.3901 6.240 0.255
59.4106 5.292 0.235
59.4311 5.521 0.240
59.4515 5.188 0.232
59.4720 4.958 0.227
59.4924 4.208 0.209
59.5129 4.448 0.215
59.5334 4.510 0.217
59.5538 4.323 0.212
59.5743 4.198 0.209
59.5948 4.125 0.207
59.6152 4.396 0.214
59.6357 3.875 0.201
59.6561 4.125 0.207
59.6766 4.698 0.221
59.6971 4.323 0.212
59.7175 4.531 0.217
59.7380 4.583 0.219
59.7585 4.313 0.212
59.7789 4.917 0.226
59.7994 5.042 0.229
59.8198 5.406 0.237
59.8403 5.563 0.241
59.8608 6.167 0.253
59.8812 6.198 0.254
59.9017 7.219 0.274
59.9222 6.646 0.263
59.9426 6.740 0.265
59.9631 6.052 0.251
59.9835 5.438 0.238
60.0040 5.177 0.232
60.0245 5.510 0.240
60.0449 5.667 0.243
60.0654 5.875 0.247
60.0859 5.500 0.239
60.1063 5.000 0.228
60.1268 5.063 0.230
60.1473 4.458 0.216
60.1677 4.458 0.216
60.1882 4.208 0.209
60.2086 4.021 0.205
60.2291 3.802 0.199
60.2496 3.375 0.188
60.2700 3.854 0.200
60.2905 3.844 0.200
60.3110 3.698 0.196
60.3314 3.719 0.197
60.3519 3.552 0.192
60.3723 3.573 0.193
60.3928 3.740 0.197
60.4133 3.656 0.195
60.4337 3.719 0.197
60.4542 3.458 0.190
60.4747 3.615 0.194
60.4951 3.677 0.196
60.5156 3.781 0.198
60.5360 3.396 0.188
60.5565 3.271 0.185
60.5770 3.490 0.191
60.5974 3.771 0.198
60.6179 3.219 0.183
60.6384 3.552 0.192
60.6588 3.688 0.196
60.6793 3.302 0.185
60.6997 3.604 0.194
60.7202 3.448 0.190
60.7407 3.083 0.179
60.7611 3.563 0.193
60.7816 3.417 0.189
60.8021 3.969 0.203
60.8225 3.594 0.193
60.8430 3.646 0.195
60.8634 3.427 0.189
60.8839 3.958 0.203
60.9044 3.646 0.195
60.9248 3.635 0.195
60.9453 3.875 0.201
60.9658 3.750 0.198
60.9862 3.729 0.197
61.0067 3.458 0.190
61.0272 3.833 0.200
61.0476 3.583 0.193
61.0681 3.688 0.196
61.0885 3.479 0.190
61.1090 3.542 0.192
61.1295 3.490 0.191
61.1499 3.635 0.195
61.1704 3.625 0.194
61.1909 3.698 0.196
61.2113 3.281 0.185
61.2318 3.594 0.193
61.2522 3.427 0.189
61.2727 3.688 0.196
61.2932 3.292 0.185
61.3136 3.479 0.190
61.3341 3.531 0.192
61.3546 3.406 0.188
61.3750 3.469 0.190
61.3955 3.313 0.186
61.4159 3.240 0.184
61.4364 3.448 0.190
61.4569 3.240 0.184
61.4773 3.302 0.185
61.4978 3.271 0.185
61.5183 3.344 0.187
61.5387 3.354 0.187
61.5592 3.781 0.198
61.5796 3.781 0.198
61.6001 3.604 0.194
61.6206 3.302 0.185
61.6410 3.583 0.193
61.6615 3.427 0.189
61.6820 3.635 0.195
61.7024 3.302 0.185
61.7229 3.573 0.193
61.7433 3.417 0.189
61.7638 3.656 0.195
61.7843 3.271 0.185
61.8047 3.115 0.180
61.8252 3.625 0.194
61.8457 3.521 0.192
61.8661 3.760 0.198
61.8866 3.552 0.192
61.9071 3.177 0.182
61.9275 3.500 0.191
61.9480 3.250 0.184
61.9684 3.604 0.194
61.9889 3.656 0.195
62.0094 3.854 0.200
62.0298 3.615 0.194
62.0503 3.813 0.199
62.0708 4.010 0.204
62.0912 4.135 0.208
62.1117 4.323 0.212
62.1321 4.323 0.212
62.1526 4.885 0.226
62.1731 4.510 0.217
62.1935 4.760 0.223
62.2140 4.635 0.220
62.2345 4.146 0.208
62.2549 4.063 0.206
62.2754 4.260 0.211
62.2958 3.844 0.200
62.3163 4.125 0.207
62.3368 4.115 0.207
62.3572 4.083 0.206
62.3777 3.969 0.203
62.3982 3.708 0.197
62.4186 3.875 0.201
62.4391 3.563 0.193
62.4595 3.313 0.186
62.4800 3.323 0.186
62.5005 3.281 0.185
62.5209 3.719 0.197
62.5414 3.240 0.184
62.5619 3.500 0.191
62.5823 3.042 0.178
62.6028 3.198 0.183
62.6232 3.406 0.188
62.6437 3.167 0.182
62.6642 2.990 0.176
62.6846 3.344 0.187
62.7051 3.281 0.185
62.7256 3.323 0.186
62.7460 3.313 0.186
62.7665 3.313 0.186
62.7870 3.490 0.191
62.8074 3.250 0.184
62.8279 3.333 0.186
62.8483 3.229 0.183
62.8688 3.385 0.188
62.8893 3.198 0.183
62.9097 3.552 0.192
62.9302 3.000 0.177
62.9507 3.479 0.190
62.9711 3.344 0.187
62.9916 3.708 0.197
63.0120 3.125 0.180
63.0325 3.500 0.191
63.0530 3.240 0.184
63.0734 3.542 0.192
63.0939 3.667 0.195
63.1144 3.500 0.191
63.1348 3.375 0.188
63.1553 3.365 0.187
63.1757 3.448 0.190
63.1962 3.271 0.185
63.2167 3.333 0.186
63.2371 3.115 0.180
63.2576 3.229 0.183
63.2781 3.104 0.180
63.2985 3.219 0.183
63.3190 3.115 0.180
63.3394 3.417 0.189
63.3599 3.927 0.202
63.3804 3.333 0.186
63.4008 3.365 0.187
63.4213 3.458 0.190
63.4418 3.333 0.186
63.4622 3.240 0.184
63.4827 3.354 0.187
63.5032 3.708 0.197
63.5236 3.510 0.191
63.5441 3.490 0.191
63.5645 3.885 0.201
63.5850 3.542 0.192
63.6055 3.375 0.188
63.6259 3.969 0.203
63.6464 4.323 0.212
63.6669 3.708 0.197
63.6873 4.083 0.206
63.7078 4.708 0.221
63.7282 4.688 0.221
63.7487 4.750 0.222
63.7692 4.854 0.225
63.7896 4.594 0.219
63.8101 4.948 0.227
63.8306 4.604 0.219
63.8510 4.094 0.207
63.8715 4.573 0.218
63.8919 5.021 0.229
63.9124 4.823 0.224
63.9329 4.375 0.213
63.9533 4.417 0.214
63.9738 5.000 0.228
63.9943 4.354 0.213
64.0147 4.667 0.220
64.0352 4.740 0.222
64.0556 4.573 0.218
64.0761 4.396 0.214
64.0966 4.490 0.216
64.1170 4.375 0.213
64.1375 4.271 0.211
64.1580 4.167 0.208
64.1784 4.167 0.208
64.1989 4.000 0.204
64.2193 4.313 0.212
64.2398 4.406 0.214
64.2603 3.958 0.203
64.2807 4.313 0.212
64.3012 4.427 0.215
64.3217 3.771 0.198
64.3421 3.677 0.196
64.3626 4.365 0.213
64.3831 4.010 0.204
64.4035 4.490 0.216
64.4240 4.198 0.209
64.4444 4.271 0.211
64.4649 4.760 0.223
64.4854 4.333 0.212
64.5058 5.083 0.230
64.5263 5.052 0.229
64.5468 5.271 0.234
64.5672 5.708 0.244
64.5877 6.365 0.257
64.6081 7.333 0.276
64.6286 7.927 0.287
64.6491 8.438 0.296
64.6695 8.396 0.296
64.6900 8.052 0.290
64.7105 7.083 0.272
64.7309 6.563 0.261
64.7514 5.875 0.247
64.7718 5.833 0.247
64.7923 6.156 0.253
64.8128 6.188 0.254
64.8332 6.417 0.259
64.8537 6.031 0.251
64.8742 6.260 0.255
64.8946 5.188 0.232
64.9151 5.198 0.233
64.9355 4.292 0.211
64.9560 4.469 0.216
64.9765 4.490 0.216
64.9969 3.708 0.197
65.0174 3.875 0.201
65.0379 3.750 0.198
65.0583 3.979 0.204
65.0788 3.865 0.201
65.0992 3.719 0.197
65.1197 3.823 0.200
65.1402 3.833 0.200
65.1606 3.583 0.193
65.1811 3.865 0.201
65.2016 3.583 0.193
65.2220 3.271 0.185
65.2425 3.531 0.192
65.2630 3.667 0.195
65.2834 3.688 0.196
65.3039 3.833 0.200
65.3243 3.625 0.194
65.3448 3.292 0.185
65.3653 3.458 0.190
65.3857 3.385 0.188
65.4062 4.010 0.204
65.4267 3.500 0.191
65.4471 3.760 0.198
65.4676 3.906 0.202
65.4880 3.823 0.200
65.5085 3.979 0.204
65.5290 4.271 0.211
65.5494 4.927 0.227
65.5699 4.771 0.223
65.5904 4.677 0.221
65.6108 4.708 0.221
65.6313 3.927 0.202
65.6517 4.417 0.214
65.6722 4.615 0.219
65.6927 4.156 0.208
65.7131 3.823 0.200
65.7336 4.542 0.218
65.7541 3.667 0.195
65.7745 4.552 0.218
65.7950 3.990 0.204
65.8154 4.125 0.207
65.8359 3.750 0.198
65.8564 3.313 0.186
65.8768 3.531 0.192
65.8973 3.760 0.198
65.9178 3.198 0.183
65.9382 3.510 0.191
65.9587 3.313 0.186
65.9791 3.510 0.191
65.9996 3.479 0.190
66.0201 3.458 0.190
66.0405 3.365 0.187
66.0610 3.802 0.199
66.0815 3.760 0.198
66.1019 3.552 0.192
66.1224 3.979 0.204
66.1429 3.281 0.185
66.1633 3.344 0.187
66.1838 3.135 0.181
66.2042 3.667 0.195
66.2247 3.375 0.188
66.2452 3.531 0.192
66.2656 3.458 0.190
66.2861 3.365 0.187
66.3066 3.594 0.193
66.3270 3.750 0.198
66.3475 3.167 0.182
66.3679 3.406 0.188
66.3884 3.365 0.187
66.4089 3.375 0.188
66.4293 3.344 0.187
66.4498 3.292 0.185
66.4703 3.656 0.195
66.4907 3.208 0.183
66.5112 3.438 0.189
66.5316 3.229 0.183
66.5521 3.438 0.189
66.5726 3.719 0.197
66.5930 3.417 0.189
66.6135 3.510 0.191
66.6340 3.260 0.184
66.6544 3.500 0.191
66.6749 3.448 0.190
66.6953 3.531 0.192
66.7158 3.635 0.195
66.7363 3.250 0.184
66.7567 3.771 0.198
66.7772 3.635 0.195
66.7977 3.469 0.190
66.8181 3.604 0.194
66.8386 3.427 0.189
66.8590 3.750 0.198
66.8795 3.563 0.193
66.9000 3.625 0.194
66.9204 3.615 0.194
66.9409 3.656 0.195
66.9614 4.240 0.210
66.9818 4.125 0.207
67.0023 4.365 0.213
67.0228 4.479 0.216
67.0432 4.646 0.220
67.0637 4.885 0.226
67.0841 5.448 0.238
67.1046 5.906 0.248
67.1251 6.156 0.253
67.1455 6.594 0.262
67.1660 7.063 0.271
67.1865 7.188 0.274
67.2069 7.656 0.282
67.2274 7.344 0.277
67.2478 6.729 0.265
67.2683 5.979 0.250
67.2888 6.083 0.252
67.3092 5.594 0.241
67.3297 5.625 0.242
67.3502 5.563 0.241
67.3706 6.146 0.253
67.3911 5.719 0.244
67.4115 5.521 0.240
67.4320 5.385 0.237
67.4525 5.031 0.229
67.4729 4.969 0.228
67.4934 4.302 0.212
67.5139 3.969 0.203
67.5343 4.156 0.208
67.5548 4.344 0.213
67.5752 3.719 0.197
67.5957 4.115 0.207
67.6162 3.813 0.199
67.6366 3.906 0.202
67.6571 4.042 0.205
67.6776 3.729 0.197
67.6980 3.906 0.202
67.7185 4.365 0.213
67.7389 4.323 0.212
67.7594 4.010 0.204
67.7799 4.094 0.207
67.8003 3.885 0.201
67.8208 3.958 0.203
67.8413 3.729 0.197
67.8617 3.708 0.197
67.8822 3.938 0.203
67.9027 3.604 0.194
67.9231 3.938 0.203
67.9436 3.563 0.193
67.9640 3.823 0.200
67.9845 3.656 0.195
68.0050 4.052 0.205
68.0254 3.990 0.204
68.0459 4.229 0.210
68.0664 3.510 0.191
68.0868 3.677 0.196
68.1073 3.458 0.190
68.1277 3.531 0.192
68.1482 3.479 0.190
68.1687 3.583 0.193
68.1891 4.073 0.206
68.2096 3.948 0.203
68.2301 3.719 0.197
68.2505 3.781 0.198
68.2710 4.229 0.210
68.2914 4.417 0.214
68.3119 4.552 0.218
68.3324 4.615 0.219
68.3528 5.125 0.231
68.3733 4.938 0.227
68.3938 4.677 0.221
68.4142 4.615 0.219
68.4347 3.948 0.203
68.4551 3.917 0.202
68.4756 4.031 0.205
68.4961 3.760 0.198
68.5165 3.958 0.203
68.5370 4.115 0.207
68.5575 4.417 0.214
68.5779 3.823 0.200
68.5984 3.729 0.197
68.6189 3.656 0.195
68.6393 3.344 0.187
68.6598 3.771 0.198
68.6802 3.354 0.187
68.7007 3.521 0.192
68.7212 3.198 0.183
68.7416 3.052 0.178
68.7621 2.990 0.176
68.7826 3.406 0.188
68.8030 3.438 0.189
68.8235 3.646 0.195
68.8439 3.219 0.183
68.8644 3.344 0.187
68.8849 3.729 0.197
68.9053 3.552 0.192
68.9258 3.760 0.198
68.9463 3.781 0.198
68.9667 3.542 0.192
68.9872 3.625 0.194
69.0076 3.990 0.204
69.0281 4.302 0.212
69.0486 4.188 0.209
69.0690 4.438 0.215
69.0895 4.385 0.214
69.1100 4.250 0.210
69.1304 3.917 0.202
69.1509 4.115 0.207
69.1713 4.094 0.207
69.1918 4.104 0.207
69.2123 4.542 0.218
69.2327 4.542 0.218
69.2532 4.500 0.217
69.2737 4.625 0.219
69.2941 4.865 0.225
69.3146 4.396 0.214
69.3350 4.490 0.216
69.3555 4.188 0.209
69.3760 3.500 0.191
69.3964 3.750 0.198
69.4169 3.479 0.190
69.4374 3.844 0.200
69.4578 3.990 0.204
69.4783 3.667 0.195
69.4988 3.594 0.193
69.5192 3.229 0.183
69.5397 3.677 0.196
69.5601 3.240 0.184
69.5806 3.125 0.180
69.6011 3.115 0.180
69.6215 3.052 0.178
69.6420 3.188 0.182
69.6625 2.833 0.172
69.6829 3.000 0.177
69.7034 2.708 0.168
69.7238 3.063 0.179
69.7443 2.833 0.172
69.7648 3.135 0.181
69.7852 2.844 0.172
69.8057 2.906 0.174
69.8262 2.948 0.175
69.8466 2.698 0.168
69.8671 2.990 0.176
69.8875 3.083 0.179
69.9080 2.875 0.173
69.9285 3.198 0.183
69.9489 3.042 0.178
69.9694 2.990 0.176
69.9899 2.844 0.172
70.0103 2.750 0.169
70.0308 2.563 0.163
70.0512 2.979 0.176
70.0717 3.000 0.177
70.0922 2.635 0.166
70.1126 2.667 0.167
70.1331 3.083 0.179
70.1536 2.948 0.175
70.1740 2.635 0.166
70.1945 3.052 0.178
70.2149 2.917 0.174
70.2354 2.948 0.175
70.2559 2.917 0.174
70.2763 2.771 0.170
70.2968 2.625 0.165
70.3173 2.698 0.168
70.3377 2.750 0.169
70.3582 2.979 0.176
70.3787 2.802 0.171
70.3991 2.708 0.168
70.4196 3.302 0.185
70.4400 3.302 0.185
70.4605 2.990 0.176
70.4810 3.240 0.184
70.5014 2.865 0.173
70.5219 3.281 0.185
70.5424 2.823 0.171
70.5628 3.281 0.185
70.5833 3.208 0.183
70.6037 3.250 0.184
70.6242 2.917 0.174
70.6447 2.802 0.171
70.6651 3.375 0.188
70.6856 3.125 0.180
70.7061 3.333 0.186
70.7265 3.260 0.184
70.7470 2.906 0.174
70.7674 3.094 0.180
70.7879 3.177 0.182
70.8084 2.885 0.173
70.8288 2.906 0.174
70.8493 2.990 0.176
70.8698 3.115 0.180
70.8902 2.729 0.169
70.9107 3.271 0.185
70.9311 2.927 0.175
70.9516 2.750 0.169
70.9721 2.708 0.168
70.9925 2.990 0.176
71.0130 2.906 0.174
71.0335 2.719 0.168
71.0539 2.875 0.173
71.0744 3.083 0.179
71.0948 2.635 0.166
71.1153 2.990 0.176
71.1358 3.219 0.183
71.1562 3.010 0.177
71.1767 2.958 0.176
71.1972 2.896 0.174
71.2176 2.854 0.172
71.2381 2.615 0.165
71.2586 2.688 0.167
71.2790 2.625 0.165
71.2995 2.521 0.162
71.3199 2.917 0.174
71.3404 2.885 0.173
71.3609 3.073 0.179
71.3813 2.844 0.172
71.4018 2.833 0.172
71.4223 2.917 0.174
71.4427 2.844 0.172
71.4632 2.635 0.166
71.4836 2.771 0.170
71.5041 2.385 0.158
71.5246 2.802 0.171
71.5450 2.813 0.171
71.5655 2.656 0.166
71.5860 2.979 0.176
71.6064 2.333 0.156
71.6269 2.781 0.170
71.6473 2.469 0.160
71.6678 2.656 0.166
71.6883 2.906 0.174
71.7087 2.552 0.163
71.7292 2.573 0.164
71.7497 2.365 0.157
71.7701 2.500 0.161
71.7906 2.792 0.171
71.8110 2.354 0.157
71.8315 2.583 0.164
71.8520 2.490 0.161
71.8724 2.240 0.153
71.8929 2.594 0.164
71.9134 2.490 0.161
71.9338 2.479 0.161
71.9543 2.656 0.166
71.9747 2.740 0.169
71.9952 2.802 0.171
72.0157 2.208 0.152
72.0361 2.708 0.168
72.0566 2.365 0.157
72.0771 2.510 0.162
72.0975 2.375 0.157
72.1180 2.375 0.157
72.1385 2.771 0.170
72.1589 2.417 0.159
72.1794 2.625 0.165
72.1998 2.760 0.170
72.2203 2.406 0.158
72.2408 2.531 0.162
72.2612 2.354 0.157
72.2817 2.427 0.159
72.3022 2.729 0.169
72.3226 2.448 0.160
72.3431 2.510 0.162
72.3635 2.688 0.167
72.3840 2.396 0.158
72.4045 2.677 0.167
72.4249 2.573 0.164
72.4454 2.615 0.165
72.4659 2.406 0.158
72.4863 2.500 0.161
72.5068 2.427 0.159
72.5272 2.583 0.164
72.5477 2.729 0.169
72.5682 2.573 0.164
72.5886 2.760 0.170
72.6091 2.656 0.166
72.6296 2.667 0.167
72.6500 2.625 0.165
72.6705 2.698 0.168
72.6909 2.479 0.161
72.7114 2.854 0.172
72.7319 3.146 0.181
72.7523 2.750 0.169
72.7728 2.885 0.173
72.7933 3.052 0.178
72.8137 3.250 0.184
72.8342 3.229 0.183
72.8547 3.177 0.182
72.8751 3.333 0.186
72.8956 3.188 0.182
72.9160 3.115 0.180
72.9365 2.760 0.170
72.9570 2.948 0.175
72.9774 2.656 0.166
72.9979 2.698 0.168
73.0184 2.833 0.172
73.0388 2.875 0.173
73.0593 3.021 0.177
73.0797 2.656 0.166
73.1002 2.875 0.173
73.1207 2.469 0.160
73.1411 2.490 0.161
73.1616 2.406 0.158
73.1821 2.583 0.164
73.2025 2.323 0.156
73.2230 2.521 0.162
73.2434 2.510 0.162
73.2639 2.510 0.162
73.2844 2.448 0.160
73.3048 2.333 0.156
73.3253 2.479 0.161
73.3458 2.313 0.155
73.3662 2.125 0.149
73.3867 2.229 0.152
73.4071 2.281 0.154
73.4276 2.271 0.154
73.4481 2.365 0.157
73.4685 2.281 0.154
73.4890 2.333 0.156
73.5095 2.240 0.153
73.5299 2.094 0.148
73.5504 2.365 0.157
73.5708 2.031 0.145
73.5913 2.240 0.153
73.6118 2.396 0.158
73.6322 2.073 0.147
73.6527 2.302 0.155
73.6732 2.260 0.153
73.6936 2.302 0.155
73.7141 2.094 0.148
73.7346 2.271 0.154
73.7550 2.240 0.153
73.7755 2.104 0.148
73.7959 2.344 0.156
73.8164 2.365 0.157
73.8369 2.302 0.155
73.8573 2.417 0.159
73.8778 2.313 0.155
73.8983 2.240 0.153
73.9187 2.510 0.162
73.9392 2.396 0.158
73.9596 2.406 0.158
73.9801 2.573 0.164
74.0006 2.438 0.159
74.0210 2.885 0.173
74.0415 2.510 0.162
74.0620 2.677 0.167
74.0824 2.615 0.165
74.1029 2.563 0.163
74.1233 2.354 0.157
74.1438 2.417 0.159
74.1643 2.510 0.162
74.1847 2.604 0.165
74.2052 2.500 0.161
74.2257 2.552 0.163
74.2461 2.417 0.159
74.2666 2.667 0.167
74.2870 2.479 0.161
74.3075 2.458 0.160
74.3280 2.344 0.156
74.3484 2.448 0.160
74.3689 2.396 0.158
74.3894 2.146 0.150
74.4098 2.010 0.145
74.4303 2.281 0.154
74.4507 2.260 0.153
74.4712 2.583 0.164
74.4917 2.427 0.159
74.5121 2.167 0.150
74.5326 2.479 0.161
74.5531 2.125 0.149
74.5735 2.292 0.155
74.5940 2.229 0.152
74.6145 2.510 0.162
74.6349 2.250 0.153
74.6554 2.156 0.150
74.6758 2.250 0.153
74.6963 2.281 0.154
74.7168 2.313 0.155
74.7372 1.813 0.137
74.7577 2.281 0.154
74.7782 2.417 0.159
74.7986 2.646 0.166
74.8191 2.260 0.153
74.8395 1.927 0.142
74.8600 2.104 0.148
74.8805 2.313 0.155
74.9009 2.271 0.154
74.9214 2.219 0.152
74.9419 1.958 0.143
74.9623 2.188 0.151
74.9828 2.073 0.147
75.0032 2.438 0.159
75.0237 2.573 0.164
75.0442 2.396 0.158
75.0646 1.906 0.141
75.0851 2.510 0.162
75.1056 2.219 0.152
75.1260 2.344 0.156
75.1465 2.250 0.153
75.1669 2.177 0.151
75.1874 2.250 0.153
75.2079 2.073 0.147
75.2283 1.854 0.139
75.2488 2.271 0.154
75.2693 2.302 0.155
75.2897 2.438 0.159
75.3102 2.323 0.156
75.3306 2.281 0.154
75.3511 2.281 0.154
75.3716 2.531 0.162
75.3920 2.438 0.159
75.4125 1.917 0.141
75.4330 2.271 0.154
75.4534 2.375 0.157
75.4739 2.469 0.160
75.4944 2.448 0.160
75.5148 2.521 0.162
75.5353 2.354 0.157
75.5557 2.250 0.153
75.5762 2.427 0.159
75.5967 2.354 0.157
75.6171 2.792 0.171
75.6376 2.563 0.163
75.6581 2.969 0.176
75.6785 2.938 0.175
75.6990 2.781 0.170
75.7194 2.844 0.172
75.7399 3.177 0.182
75.7604 3.052 0.178
75.7808 3.250 0.184
75.8013 3.458 0.190
75.8218 3.500 0.191
75.8422 3.573 0.193
75.8627 3.760 0.198
75.8831 3.823 0.200
75.9036 3.417 0.189
75.9241 3.656 0.195
75.9445 3.375 0.188
75.9650 3.125 0.180
75.9855 3.229 0.183
76.0059 3.250 0.184
76.0264 3.521 0.192
76.0468 3.385 0.188
76.0673 3.667 0.195
76.0878 3.271 0.185
76.1082 2.906 0.174
76.1287 2.865 0.173
76.1492 2.990 0.176
76.1696 2.990 0.176
76.1901 2.708 0.168
76.2105 2.521 0.162
76.2310 2.708 0.168
76.2515 3.219 0.183
76.2719 2.740 0.169
76.2924 2.552 0.163
76.3129 2.479 0.161
76.3333 2.333 0.156
76.3538 2.448 0.160
76.3743 2.500 0.161
76.3947 2.521 0.162
76.4152 2.250 0.153
76.4356 2.573 0.164
76.4561 2.625 0.165
76.4766 2.354 0.157
76.4970 2.094 0.148
76.5175 2.188 0.151
76.5380 2.500 0.161
76.5584 2.156 0.150
76.5789 2.583 0.164
76.5993 2.083 0.147
76.6198 2.688 0.167
76.6403 2.500 0.161
76.6607 2.458 0.160
76.6812 2.573 0.164
76.7017 2.333 0.156
76.7221 2.271 0.154
76.7426 2.344 0.156
76.7630 2.104 0.148
76.7835 2.469 0.160
76.8040 2.458 0.160
76.8244 2.344 0.156
76.8449 2.427 0.159
76.8654 2.385 0.158
76.8858 2.323 0.156
76.9063 2.104 0.148
76.9267 2.406 0.158
76.9472 2.063 0.147
76.9677 2.260 0.153
76.9881 2.333 0.156
77.0086 2.156 0.150
77.0291 2.521 0.162
77.0495 2.458 0.160
77.0700 2.281 0.154
77.0905 2.271 0.154
77.1109 2.271 0.154
77.1314 2.281 0.154
77.1518 2.500 0.161
77.1723 2.063 0.147
77.1928 2.271 0.154
77.2132 2.396 0.158
77.2337 1.969 0.143
77.2542 2.250 0.153
77.2746 2.583 0.164
77.2951 2.406 0.158
77.3155 2.167 0.150
77.3360 2.375 0.157
77.3565 2.698 0.168
77.3769 2.896 0.174
77.3974 2.469 0.160
77.4179 2.583 0.164
77.4383 2.927 0.175
77.4588 2.865 0.173
77.4792 2.698 0.168
77.4997 3.042 0.178
77.5202 2.677 0.167
77.5406 3.115 0.180
77.5611 2.865 0.173
77.5816 3.177 0.182
77.6020 2.958 0.176
77.6225 3.115 0.180
77.6429 3.021 0.177
77.6634 2.760 0.170
77.6839 2.885 0.173
77.7043 3.052 0.178
77.7248 2.823 0.171
77.7453 2.833 0.172
77.7657 2.948 0.175
77.7862 3.094 0.180
77.8066 3.021 0.177
77.8271 3.250 0.184
77.8476 3.125 0.180
77.8680 2.865 0.173
77.8885 2.677 0.167
77.9090 2.833 0.172
77.9294 2.885 0.173
77.9499 2.958 0.176
77.9704 2.688 0.167
77.9908 2.781 0.170
78.0113 2.635 0.166
78.0317 2.646 0.166
78.0522 2.385 0.158
78.0727 2.552 0.163
78.0931 2.906 0.174
78.1136 2.646 0.166
78.1341 2.573 0.164
78.1545 2.500 0.161
78.1750 2.271 0.154
78.1954 2.563 0.163
78.2159 2.573 0.164
78.2364 2.667 0.167
78.2568 2.615 0.165
78.2773 2.719 0.168
78.2978 2.646 0.166
78.3182 2.635 0.166
78.3387 2.448 0.160
78.3591 2.865 0.173
78.3796 2.667 0.167
78.4001 2.875 0.173
78.4205 2.844 0.172
78.4410 2.604 0.165
78.4615 2.719 0.168
78.4819 2.990 0.176
78.5024 2.760 0.170
78.5228 2.813 0.171
78.5433 2.542 0.163
78.5638 2.740 0.169
78.5842 2.823 0.171
78.6047 2.948 0.175
78.6252 3.083 0.179
78.6456 2.948 0.175
78.6661 2.781 0.170
78.6865 2.990 0.176
78.7070 2.958 0.176
78.7275 3.271 0.185
78.7479 2.708 0.168
78.7684 2.833 0.172
78.7889 2.813 0.171
78.8093 2.917 0.174
78.8298 2.927 0.175
78.8503 2.698 0.168
78.8707 2.698 0.168
78.8912 2.594 0.164
78.9116 2.802 0.171
78.9321 3.063 0.179
78.9526 3.063 0.179
78.9730 2.719 0.168
78.9935 3.021 0.177
79.0140 3.000 0.177
79.0344 3.104 0.180
79.0549 2.698 0.168
79.0753 3.063 0.179
79.0958 2.646 0.166
79.1163 2.792 0.171
79.1367 2.521 0.162
79.1572 2.521 0.162
79.1777 2.885 0.173
79.1981 3.271 0.185
79.2186 2.813 0.171
79.2390 2.938 0.175
79.2595 2.448 0.160
79.2800 2.823 0.171
79.3004 2.677 0.167
79.3209 2.427 0.159
79.3414 2.573 0.164
79.3618 2.146 0.150
79.3823 2.781 0.170
79.4027 2.885 0.173
79.4232 2.760 0.170
79.4437 2.885 0.173
79.4641 2.792 0.171
79.4846 2.677 0.167
79.5051 2.979 0.176
79.5255 3.094 0.180
79.5460 2.948 0.175
79.5664 3.115 0.180
79.5869 2.802 0.171
79.6074 3.083 0.179
79.6278 3.219 0.183
79.6483 2.760 0.170
79.6688 2.854 0.172
79.6892 3.073 0.179
79.7097 2.802 0.171
79.7302 2.594 0.164
79.7506 2.917 0.174
79.7711 2.927 0.175
79.7915 2.708 0.168
79.8120 2.677 0.167
79.8325 2.813 0.171
79.8529 2.781 0.170
79.8734 2.719 0.168
79.8939 2.625 0.165
79.9143 2.698 0.168
79.9348 2.979 0.176
79.9552 2.719 0.168
79.9757 2.354 0.157
79.9962 2.615 0.165
