'Id: "" Comment: "" Operator: "Lab Manager" Anode: "Cu" Scantype: "Locked Coupled" TimePerStep: "96" X: "0" Y: "0" Z: "0" 
5.0000 18.469 0.439
5.0205 19.531 0.451
5.0409 18.792 0.442
5.0614 19.115 0.446
5.0819 18.740 0.442
5.1023 18.417 0.438
5.1228 18.396 0.438
5.1432 18.115 0.434
5.1637 19.448 0.450
5.1842 18.042 0.434
5.2046 17.927 0.432
5.2251 17.344 0.425
5.2456 18.146 0.435
5.2660 18.521 0.439
5.2865 17.656 0.429
5.3069 18.896 0.444
5.3274 18.521 0.439
5.3479 17.438 0.426
5.3683 19.073 0.446
5.3888 17.250 0.424
5.4093 18.688 0.441
5.4297 17.698 0.429
5.4502 18.323 0.437
5.4706 17.354 0.425
5.4911 17.927 0.432
5.5116 17.375 0.425
5.5320 17.146 0.423
5.5525 17.490 0.427
5.5730 17.583 0.428
5.5934 18.042 0.434
5.6139 17.479 0.427
5.6343 17.615 0.428
5.6548 16.719 0.417
5.6753 16.604 0.416
5.6957 17.302 0.425
5.7162 17.729 0.430
5.7367 16.510 0.415
5.7571 17.760 0.430
5.7776 17.042 0.421
5.7980 17.167 0.423
5.8185 17.021 0.421
5.8390 16.906 0.420
5.8594 17.521 0.427
5.8799 17.333 0.425
5.9004 16.313 0.412
5.9208 16.427 0.414
5.9413 15.854 0.406
5.9618 17.385 0.426
5.9822 16.458 0.414
6.0027 16.854 0.419
6.0231 17.583 0.428
6.0436 16.979 0.421
6.0641 17.146 0.423
6.0845 16.292 0.412
6.1050 17.167 0.423
6.1255 16.813 0.418
6.1459 17.250 0.424
6.1664 16.823 0.419
6.1868 16.719 0.417
6.2073 16.906 0.420
6.2278 16.896 0.420
6.2482 16.031 0.409
6.2687 16.969 0.420
6.2892 15.656 0.404
6.3096 17.063 0.422
6.3301 16.135 0.410
6.3505 16.073 0.409
6.3710 16.240 0.411
6.3915 16.031 0.409
6.4119 15.750 0.405
6.4324 16.646 0.416
6.4529 16.344 0.413
6.4733 16.479 0.414
6.4938 16.406 0.413
6.5142 16.896 0.420
6.5347 15.969 0.408
6.5552 16.760 0.418
6.5756 16.792 0.418
6.5961 16.104 0.410
6.6166 16.583 0.416
6.6370 15.844 0.406
6.6575 15.969 0.408
6.6779 15.313 0.399
6.6984 17.302 0.425
6.7189 16.323 0.412
6.7393 16.823 0.419
6.7598 17.010 0.421
6.7803 16.063 0.409
6.8007 16.635 0.416
6.8212 16.625 0.416
6.8417 17.167 0.423
6.8621 15.792 0.406
6.8826 15.844 0.406
6.9030 16.646 0.416
6.9235 16.250 0.411
6.9440 15.760 0.405
6.9644 16.021 0.409
6.9849 15.479 0.402
7.0054 17.229 0.424
7.0258 16.396 0.413
7.0463 16.219 0.411
7.0667 16.271 0.412
7.0872 16.156 0.410
7.1077 16.521 0.415
7.1281 16.552 0.415
7.1486 15.344 0.400
7.1691 16.250 0.411
7.1895 15.375 0.400
7.2100 15.510 0.402
7.2304 16.260 0.412
7.2509 16.042 0.409
7.2714 16.625 0.416
7.2918 16.083 0.409
7.3123 16.740 0.418
7.3328 16.625 0.416
7.3532 15.896 0.407
7.3737 16.021 0.409
7.3941 15.823 0.406
7.4146 16.604 0.416
7.4351 15.396 0.400
7.4555 16.448 0.414
7.4760 16.219 0.411
7.4965 16.063 0.409
7.5169 16.635 0.416
7.5374 16.979 0.421
7.5579 16.292 0.412
7.5783 16.656 0.417
7.5988 15.969 0.408
7.6192 16.115 0.410
7.6397 15.948 0.408
7.6602 16.969 0.420
7.6806 16.583 0.416
7.7011 16.302 0.412
7.7216 16.271 0.412
7.7420 16.698 0.417
7.7625 16.969 0.420
7.7829 16.646 0.416
7.8034 15.833 0.406
7.8239 16.281 0.412
7.8443 16.344 0.413
7.8648 16.865 0.419
7.8853 16.740 0.418
7.9057 16.708 0.417
7.9262 16.594 0.416
7.9466 16.729 0.417
7.9671 16.760 0.418
7.9876 16.323 0.412
8.0080 16.833 0.419
8.0285 16.396 0.413
8.0490 16.979 0.421
8.0694 16.896 0.420
8.0899 15.948 0.408
8.1103 17.344 0.425
8.1308 16.979 0.421
8.1513 17.583 0.428
8.1717 17.615 0.428
8.1922 16.740 0.418
8.2127 18.583 0.440
8.2331 19.198 0.447
8.2536 18.375 0.438
8.2740 19.063 0.446
8.2945 18.396 0.438
8.3150 18.292 0.437
8.3354 16.531 0.415
8.3559 16.771 0.418
8.3764 17.302 0.425
8.3968 16.302 0.412
8.4173 16.104 0.410
8.4378 16.583 0.416
8.4582 15.969 0.408
8.4787 16.667 0.417
8.4991 17.354 0.425
8.5196 16.938 0.420
8.5401 16.260 0.412
8.5605 16.844 0.419
8.5810 16.583 0.416
8.6015 17.438 0.426
8.6219 16.719 0.417
8.6424 17.438 0.426
8.6628 17.125 0.422
8.6833 17.219 0.424
8.7038 16.417 0.414
8.7242 17.479 0.427
8.7447 16.990 0.421
8.7652 18.021 0.433
8.7856 17.542 0.427
8.8061 18.427 0.438
8.8265 19.458 0.450
8.8470 20.042 0.457
8.8675 20.219 0.459
8.8879 20.990 0.468
8.9084 21.385 0.472
8.9289 23.510 0.495
8.9493 27.021 0.531
8.9698 28.604 0.546
8.9902 32.208 0.579
9.0107 37.229 0.623
9.0312 44.396 0.680
9.0516 56.385 0.766
9.0721 68.094 0.842
9.0926 83.906 0.935
9.1130 92.250 0.980
9.1335 80.188 0.914
9.1539 61.635 0.801
9.1744 44.323 0.679
9.1949 35.802 0.611
9.2153 36.510 0.617
9.2358 39.458 0.641
9.2563 43.188 0.671
9.2767 51.365 0.731
9.2972 56.375 0.766
9.3177 56.854 0.770
9.3381 52.490 0.739
9.3586 47.052 0.700
9.3790 42.333 0.664
9.3995 39.052 0.638
9.4200 36.510 0.617
9.4404 36.885 0.620
9.4609 36.490 0.617
9.4814 35.354 0.607
9.5018 34.854 0.603
9.5223 36.063 0.613
9.5427 36.427 0.616
9.5632 37.510 0.625
9.5837 40.917 0.653
9.6041 42.083 0.662
9.6246 44.000 0.677
9.6451 47.250 0.702
9.6655 49.219 0.716
9.6860 53.219 0.745
9.7064 56.125 0.765
9.7269 63.365 0.812
9.7474 70.188 0.855
9.7678 81.677 0.922
9.7883 98.250 1.012
9.8088 117.094 1.104
9.8292 155.167 1.271
9.8497 217.396 1.505
9.8701 314.563 1.810
9.8906 443.885 2.150
9.9111 547.615 2.388
9.9315 450.240 2.166
9.9520 248.427 1.609
9.9725 108.740 1.064
9.9929 66.344 0.831
10.0134 53.552 0.747
10.0338 47.813 0.706
10.0543 40.500 0.650
10.0748 37.521 0.625
10.0952 33.823 0.594
10.1157 32.510 0.582
10.1362 30.333 0.562
10.1566 27.719 0.537
10.1771 24.240 0.502
10.1976 23.760 0.497
10.2180 21.792 0.476
10.2385 21.000 0.468
10.2589 20.292 0.460
10.2794 19.990 0.456
10.2999 19.240 0.448
10.3203 19.740 0.453
10.3408 19.531 0.451
10.3613 19.406 0.450
10.3817 19.000 0.445
10.4022 18.958 0.444
10.4226 17.531 0.427
10.4431 18.094 0.434
10.4636 17.688 0.429
10.4840 17.510 0.427
10.5045 17.406 0.426
10.5250 16.917 0.420
10.5454 16.344 0.413
10.5659 17.677 0.429
10.5863 16.448 0.414
10.6068 17.188 0.423
10.6273 16.010 0.408
10.6477 16.990 0.421
10.6682 16.427 0.414
10.6887 16.781 0.418
10.7091 16.250 0.411
10.7296 16.542 0.415
10.7500 15.990 0.408
10.7705 16.469 0.414
10.7910 15.688 0.404
10.8114 16.083 0.409
10.8319 15.917 0.407
10.8524 14.875 0.394
10.8728 14.740 0.392
10.8933 15.292 0.399
10.9137 15.167 0.397
10.9342 15.740 0.405
10.9547 14.260 0.385
10.9751 14.198 0.385
10.9956 14.365 0.387
11.0161 14.167 0.384
11.0365 14.604 0.390
11.0570 14.615 0.390
11.0775 13.844 0.380
11.0979 13.635 0.377
11.1184 13.583 0.376
11.1388 14.156 0.384
11.1593 13.438 0.374
11.1798 13.438 0.374
11.2002 13.385 0.373
11.2207 14.052 0.383
11.2412 13.698 0.378
11.2616 13.156 0.370
11.2821 13.573 0.376
11.3025 13.281 0.372
11.3230 13.229 0.371
11.3435 13.188 0.371
11.3639 12.677 0.363
11.3844 12.729 0.364
11.4049 12.417 0.360
11.4253 12.448 0.360
11.4458 12.271 0.358
11.4662 12.375 0.359
11.4867 12.115 0.355
11.5072 13.354 0.373
11.5276 12.229 0.357
11.5481 12.802 0.365
11.5686 11.854 0.351
11.5890 12.052 0.354
11.6095 12.031 0.354
11.6299 13.031 0.368
11.6504 12.313 0.358
11.6709 11.698 0.349
11.6913 12.031 0.354
11.7118 11.792 0.350
11.7323 11.833 0.351
11.7527 11.688 0.349
11.7732 11.219 0.342
11.7937 11.646 0.348
11.8141 11.281 0.343
11.8346 11.865 0.352
11.8550 11.354 0.344
11.8755 11.302 0.343
11.8960 10.948 0.338
11.9164 10.917 0.337
11.9369 10.833 0.336
11.9574 10.792 0.335
11.9778 11.417 0.345
11.9983 11.260 0.342
12.0187 11.219 0.342
12.0392 10.813 0.336
12.0597 11.333 0.344
12.0801 10.354 0.328
12.1006 11.104 0.340
12.1211 10.875 0.337
12.1415 10.896 0.337
12.1620 11.042 0.339
12.1824 11.375 0.344
12.2029 11.281 0.343
12.2234 11.396 0.345
12.2438 11.719 0.349
12.2643 11.021 0.339
12.2848 12.063 0.354
12.3052 12.792 0.365
12.3257 11.844 0.351
12.3461 11.521 0.346
12.3666 11.365 0.344
12.3871 10.844 0.336
12.4075 10.781 0.335
12.4280 10.771 0.335
12.4485 10.260 0.327
12.4689 10.406 0.329
12.4894 10.333 0.328
12.5098 10.240 0.327
12.5303 10.135 0.325
12.5508 9.719 0.318
12.5712 10.469 0.330
12.5917 10.146 0.325
12.6122 10.406 0.329
12.6326 10.760 0.335
12.6531 9.802 0.320
12.6736 9.583 0.316
12.6940 9.385 0.313
12.7145 9.521 0.315
12.7349 9.781 0.319
12.7554 9.604 0.316
12.7759 9.750 0.319
12.7963 9.313 0.311
12.8168 9.823 0.320
12.8373 9.438 0.314
12.8577 9.958 0.322
12.8782 9.271 0.311
12.8986 9.813 0.320
12.9191 9.948 0.322
12.9396 9.729 0.318
12.9600 9.167 0.309
12.9805 10.125 0.325
13.0010 9.521 0.315
13.0214 9.177 0.309
13.0419 9.323 0.312
13.0623 9.083 0.308
13.0828 9.625 0.317
13.1033 9.396 0.313
13.1237 10.156 0.325
13.1442 9.406 0.313
13.1647 9.698 0.318
13.1851 9.823 0.320
13.2056 9.635 0.317
13.2260 9.073 0.307
13.2465 9.917 0.321
13.2670 9.323 0.312
13.2874 9.469 0.314
13.3079 8.417 0.296
13.3284 8.656 0.300
13.3488 9.260 0.311
13.3693 9.135 0.308
13.3897 9.104 0.308
13.4102 9.083 0.308
13.4307 9.333 0.312
13.4511 9.281 0.311
13.4716 9.563 0.316
13.4921 8.938 0.305
13.5125 9.375 0.313
13.5330 9.271 0.311
13.5535 8.896 0.304
13.5739 9.823 0.320
13.5944 9.156 0.309
13.6148 8.885 0.304
13.6353 8.896 0.304
13.6558 9.552 0.315
13.6762 9.094 0.308
13.6967 9.438 0.314
13.7172 9.500 0.315
13.7376 9.677 0.317
13.7581 9.698 0.318
13.7785 9.740 0.319
13.7990 9.635 0.317
13.8195 9.458 0.314
13.8399 9.740 0.319
13.8604 9.531 0.315
13.8809 9.563 0.316
13.9013 10.021 0.323
13.9218 9.885 0.321
13.9422 10.385 0.329
13.9627 10.323 0.328
13.9832 9.813 0.320
14.0036 10.115 0.325
14.0241 10.500 0.331
14.0446 11.094 0.340
14.0650 11.552 0.347
14.0855 12.510 0.361
14.1059 11.365 0.344
14.1264 12.375 0.359
14.1469 13.396 0.374
14.1673 13.594 0.376
14.1878 14.833 0.393
14.2083 14.698 0.391
14.2287 16.156 0.410
14.2492 17.365 0.425
14.2696 19.115 0.446
14.2901 20.510 0.462
14.3106 22.563 0.485
14.3310 23.677 0.497
14.3515 24.708 0.507
14.3720 27.750 0.538
14.3924 28.771 0.547
14.4129 31.875 0.576
14.4334 33.010 0.586
14.4538 33.240 0.588
14.4743 33.896 0.594
14.4947 36.177 0.614
14.5152 35.167 0.605
14.5357 34.063 0.596
14.5561 32.177 0.579
14.5766 32.396 0.581
14.5971 28.969 0.549
14.6175 28.135 0.541
14.6380 26.167 0.522
14.6584 24.260 0.503
14.6789 22.208 0.481
14.6994 20.490 0.462
14.7198 18.458 0.438
14.7403 17.729 0.430
14.7608 16.583 0.416
14.7812 15.323 0.400
14.8017 14.115 0.383
14.8221 13.177 0.370
14.8426 12.833 0.366
14.8631 12.375 0.359
14.8835 11.302 0.343
14.9040 11.531 0.347
14.9245 10.792 0.335
14.9449 9.938 0.322
14.9654 10.177 0.326
14.9858 9.823 0.320
15.0063 9.729 0.318
15.0268 9.427 0.313
15.0472 9.635 0.317
15.0677 9.656 0.317
15.0882 9.448 0.314
15.1086 8.979 0.306
15.1291 8.344 0.295
15.1495 8.854 0.304
15.1700 8.365 0.295
15.1905 8.927 0.305
15.2109 8.677 0.301
15.2314 8.729 0.302
15.2519 9.010 0.306
15.2723 9.490 0.314
15.2928 9.583 0.316
15.3133 9.292 0.311
15.3337 9.938 0.322
15.3542 10.323 0.328
15.3746 11.740 0.350
15.3951 11.604 0.348
15.4156 11.500 0.346
15.4360 10.229 0.326
15.4565 9.719 0.318
15.4770 9.521 0.315
15.4974 9.271 0.311
15.5179 9.063 0.307
15.5383 9.208 0.310
15.5588 9.292 0.311
15.5793 9.573 0.316
15.5997 9.667 0.317
15.6202 9.396 0.313
15.6407 9.854 0.320
15.6611 12.031 0.354
15.6816 13.635 0.377
15.7020 16.354 0.413
15.7225 21.167 0.470
15.7430 28.615 0.546
15.7634 36.344 0.615
15.7839 44.083 0.678
15.8044 45.802 0.691
15.8248 38.396 0.632
15.8453 29.188 0.551
15.8657 20.000 0.456
15.8862 14.094 0.383
15.9067 11.865 0.352
15.9271 10.698 0.334
15.9476 9.948 0.322
15.9681 9.250 0.310
15.9885 9.219 0.310
16.0090 8.969 0.306
16.0295 8.375 0.295
16.0499 8.313 0.294
16.0704 8.542 0.298
16.0908 7.417 0.278
16.1113 8.146 0.291
16.1318 7.406 0.278
16.1522 7.292 0.276
16.1727 7.302 0.276
16.1932 7.354 0.277
16.2136 7.313 0.276
16.2341 7.010 0.270
16.2545 7.500 0.280
16.2750 7.354 0.277
16.2955 7.333 0.276
16.3159 7.354 0.277
16.3364 7.125 0.272
16.3569 6.833 0.267
16.3773 7.146 0.273
16.3978 7.271 0.275
16.4182 6.729 0.265
16.4387 7.594 0.281
16.4592 7.490 0.279
16.4796 7.542 0.280
16.5001 7.479 0.279
16.5206 7.365 0.277
16.5410 6.917 0.268
16.5615 7.354 0.277
16.5819 7.260 0.275
16.6024 6.771 0.266
16.6229 7.240 0.275
16.6433 6.500 0.260
16.6638 6.885 0.268
16.6843 7.135 0.273
16.7047 6.813 0.266
16.7252 7.083 0.272
16.7456 6.792 0.266
16.7661 7.260 0.275
16.7866 6.854 0.267
16.8070 6.885 0.268
16.8275 7.000 0.270
16.8480 7.281 0.275
16.8684 6.635 0.263
16.8889 6.615 0.262
16.9094 6.844 0.267
16.9298 7.427 0.278
16.9503 7.479 0.279
16.9707 7.604 0.281
16.9912 7.146 0.273
17.0117 7.167 0.273
17.0321 7.031 0.271
17.0526 7.354 0.277
17.0731 6.938 0.269
17.0935 7.156 0.273
17.1140 7.552 0.280
17.1344 6.875 0.268
17.1549 7.281 0.275
17.1754 7.875 0.286
17.1958 7.635 0.282
17.2163 7.833 0.286
17.2368 7.708 0.283
17.2572 8.073 0.290
17.2777 8.813 0.303
17.2981 10.948 0.338
17.3186 13.271 0.372
17.3391 15.344 0.400
17.3595 20.104 0.458
17.3800 25.302 0.513
17.4005 23.396 0.494
17.4209 17.729 0.430
17.4414 12.885 0.366
17.4618 9.417 0.313
17.4823 7.594 0.281
17.5028 7.542 0.280
17.5232 7.313 0.276
17.5437 7.406 0.278
17.5642 6.958 0.269
17.5846 7.438 0.278
17.6051 7.240 0.275
17.6255 7.208 0.274
17.6460 7.573 0.281
17.6665 7.594 0.281
17.6869 8.250 0.293
17.7074 7.365 0.277
17.7279 8.052 0.290
17.7483 8.844 0.304
17.7688 10.135 0.325
17.7893 11.563 0.347
17.8097 14.729 0.392
17.8302 16.875 0.419
17.8506 16.479 0.414
17.8711 15.583 0.403
17.8916 12.635 0.363
17.9120 10.688 0.334
17.9325 9.563 0.316
17.9530 8.104 0.291
17.9734 8.292 0.294
17.9939 7.896 0.287
18.0143 8.010 0.289
18.0348 7.677 0.283
18.0553 7.885 0.287
18.0757 8.271 0.294
18.0962 7.750 0.284
18.1167 7.281 0.275
18.1371 7.573 0.281
18.1576 8.063 0.290
18.1780 8.396 0.296
18.1985 8.604 0.299
18.2190 9.104 0.308
18.2394 9.771 0.319
18.2599 10.000 0.323
18.2804 9.844 0.320
18.3008 9.135 0.308
18.3213 8.573 0.299
18.3417 8.521 0.298
18.3622 8.656 0.300
18.3827 7.969 0.288
18.4031 8.177 0.292
18.4236 8.406 0.296
18.4441 8.156 0.291
18.4645 8.990 0.306
18.4850 9.281 0.311
18.5054 9.917 0.321
18.5259 10.031 0.323
18.5464 11.385 0.344
18.5668 12.771 0.365
18.5873 14.354 0.387
18.6078 16.458 0.414
18.6282 17.563 0.428
18.6487 18.156 0.435
18.6692 17.354 0.425
18.6896 15.896 0.407
18.7101 15.104 0.397
18.7305 13.844 0.380
18.7510 13.729 0.378
18.7715 14.323 0.386
18.7919 13.698 0.378
18.8124 15.083 0.396
18.8329 17.823 0.431
18.8533 20.792 0.465
18.8738 26.469 0.525
18.8942 29.344 0.553
18.9147 30.323 0.562
18.9352 26.490 0.525
18.9556 21.875 0.477
18.9761 17.615 0.428
18.9966 14.198 0.385
19.0170 12.375 0.359
19.0375 10.760 0.335
19.0579 10.802 0.335
19.0784 10.490 0.331
19.0989 10.000 0.323
19.1193 9.833 0.320
19.1398 9.656 0.317
19.1603 9.635 0.317
19.1807 10.656 0.333
19.2012 10.323 0.328
19.2216 10.260 0.327
19.2421 10.458 0.330
19.2626 9.979 0.322
19.2830 10.469 0.330
19.3035 10.177 0.326
19.3240 9.552 0.315
19.3444 10.406 0.329
19.3649 9.958 0.322
19.3853 10.385 0.329
19.4058 11.104 0.340
19.4263 10.656 0.333
19.4467 10.583 0.332
19.4672 10.990 0.338
19.4877 11.021 0.339
19.5081 11.792 0.350
19.5286 11.948 0.353
19.5491 12.115 0.355
19.5695 12.875 0.366
19.5900 13.875 0.380
19.6104 14.146 0.384
19.6309 15.292 0.399
19.6514 15.583 0.403
19.6718 17.156 0.423
19.6923 18.281 0.436
19.7128 19.969 0.456
19.7332 24.271 0.503
19.7537 28.885 0.549
19.7741 37.490 0.625
19.7946 52.635 0.740
19.8151 80.260 0.914
19.8355 117.698 1.107
19.8560 161.948 1.299
19.8765 134.125 1.182
19.8969 96.552 1.003
19.9174 82.677 0.928
19.9378 41.531 0.658
19.9583 24.219 0.502
19.9788 18.844 0.443
19.9992 16.906 0.420
20.0197 16.229 0.411
20.0402 16.646 0.416
20.0606 18.438 0.438
20.0811 20.969 0.467
20.1015 20.146 0.458
20.1220 17.354 0.425
20.1425 14.427 0.388
20.1629 12.240 0.357
20.1834 9.458 0.314
20.2039 9.260 0.311
20.2243 8.865 0.304
20.2448 7.833 0.286
20.2653 8.417 0.296
20.2857 7.948 0.288
20.3062 8.260 0.293
20.3266 7.177 0.273
20.3471 7.875 0.286
20.3676 7.479 0.279
20.3880 7.375 0.277
20.4085 7.625 0.282
20.4290 7.385 0.277
20.4494 7.479 0.279
20.4699 7.104 0.272
20.4903 7.448 0.279
20.5108 6.885 0.268
20.5313 6.552 0.261
20.5517 7.188 0.274
20.5722 7.177 0.273
20.5927 7.094 0.272
20.6131 6.302 0.256
20.6336 6.896 0.268
20.6540 6.750 0.265
20.6745 6.479 0.260
20.6950 6.698 0.264
20.7154 6.240 0.255
20.7359 6.385 0.258
20.7564 6.417 0.259
20.7768 6.490 0.260
20.7973 7.135 0.273
20.8177 6.521 0.261
20.8382 6.406 0.258
20.8587 6.188 0.254
20.8791 5.844 0.247
20.8996 6.146 0.253
20.9201 6.833 0.267
20.9405 6.229 0.255
20.9610 6.406 0.258
20.9814 5.833 0.247
21.0019 6.698 0.264
21.0224 6.427 0.259
21.0428 6.375 0.258
21.0633 6.063 0.251
21.0838 6.365 0.257
21.1042 6.208 0.254
21.1247 5.813 0.246
21.1452 6.573 0.262
21.1656 6.063 0.251
21.1861 6.010 0.250
21.2065 6.146 0.253
21.2270 6.125 0.253
21.2475 6.021 0.250
21.2679 6.323 0.257
21.2884 6.219 0.255
21.3089 6.375 0.258
21.3293 6.188 0.254
21.3498 5.760 0.245
21.3702 6.604 0.262
21.3907 5.948 0.249
21.4112 5.854 0.247
21.4316 6.188 0.254
21.4521 5.740 0.245
21.4726 5.750 0.245
21.4930 5.844 0.247
21.5135 6.010 0.250
21.5339 5.927 0.248
21.5544 5.802 0.246
21.5749 5.583 0.241
21.5953 6.354 0.257
21.6158 6.542 0.261
21.6363 6.000 0.250
21.6567 6.073 0.252
21.6772 6.052 0.251
21.6976 6.135 0.253
21.7181 6.167 0.253
21.7386 6.094 0.252
21.7590 6.448 0.259
21.7795 5.521 0.240
21.8000 6.135 0.253
21.8204 6.167 0.253
21.8409 6.583 0.262
21.8613 6.135 0.253
21.8818 6.125 0.253
21.9023 6.438 0.259
21.9227 6.313 0.256
21.9432 6.281 0.256
21.9637 6.594 0.262
21.9841 6.240 0.255
22.0046 6.823 0.267
22.0251 7.292 0.276
22.0455 7.896 0.287
22.0660 8.917 0.305
22.0864 9.646 0.317
22.1069 10.260 0.327
22.1274 10.313 0.328
22.1478 10.250 0.327
22.1683 10.052 0.324
22.1888 11.333 0.344
22.2092 10.583 0.332
22.2297 10.844 0.336
22.2501 9.469 0.314
22.2706 9.563 0.316
22.2911 8.323 0.294
22.3115 7.604 0.281
22.3320 6.781 0.266
22.3525 7.052 0.271
22.3729 6.698 0.264
22.3934 6.698 0.264
22.4138 6.823 0.267
22.4343 6.677 0.264
22.4548 6.677 0.264
22.4752 6.927 0.269
22.4957 5.823 0.246
22.5162 6.708 0.264
22.5366 6.344 0.257
22.5571 6.104 0.252
22.5775 6.365 0.257
22.5980 6.781 0.266
22.6185 7.208 0.274
22.6389 6.990 0.270
22.6594 7.427 0.278
22.6799 6.427 0.259
22.7003 7.615 0.282
22.7208 7.448 0.279
22.7412 7.750 0.284
22.7617 7.219 0.274
22.7822 8.333 0.295
22.8026 9.083 0.308
22.8231 10.417 0.329
22.8436 11.802 0.351
22.8640 16.010 0.408
22.8845 21.750 0.476
22.9050 28.458 0.544
22.9254 33.771 0.593
22.9459 32.906 0.585
22.9663 28.688 0.547
22.9868 22.906 0.488
23.0073 19.073 0.446
23.0277 13.979 0.382
23.0482 10.333 0.328
23.0687 9.052 0.307
23.0891 8.438 0.296
23.1096 7.938 0.288
23.1300 7.354 0.277
23.1505 7.208 0.274
23.1710 6.635 0.263
23.1914 6.833 0.267
23.2119 7.010 0.270
23.2324 6.198 0.254
23.2528 5.948 0.249
23.2733 6.375 0.258
23.2937 6.365 0.257
23.3142 6.094 0.252
23.3347 5.823 0.246
23.3551 5.990 0.250
23.3756 6.208 0.254
23.3961 5.542 0.240
23.4165 5.792 0.246
23.4370 6.781 0.266
23.4574 6.354 0.257
23.4779 5.750 0.245
23.4984 6.396 0.258
23.5188 6.208 0.254
23.5393 6.167 0.253
23.5598 6.240 0.255
23.5802 5.969 0.249
23.6007 5.948 0.249
23.6211 6.354 0.257
23.6416 6.490 0.260
23.6621 6.719 0.265
23.6825 6.156 0.253
23.7030 6.240 0.255
23.7235 6.260 0.255
23.7439 6.271 0.256
23.7644 6.156 0.253
23.7849 6.333 0.257
23.8053 6.010 0.250
23.8258 5.844 0.247
23.8462 6.177 0.254
23.8667 5.260 0.234
23.8872 6.219 0.255
23.9076 5.646 0.243
23.9281 6.115 0.252
23.9486 5.385 0.237
23.9690 5.667 0.243
23.9895 6.052 0.251
24.0099 5.427 0.238
24.0304 5.656 0.243
24.0509 5.813 0.246
24.0713 6.031 0.251
24.0918 6.365 0.257
24.1123 6.052 0.251
24.1327 6.552 0.261
24.1532 6.688 0.264
24.1736 7.469 0.279
24.1941 7.729 0.284
24.2146 8.083 0.290
24.2350 8.073 0.290
24.2555 7.365 0.277
24.2760 7.156 0.273
24.2964 7.552 0.280
24.3169 7.573 0.281
24.3373 7.688 0.283
24.3578 8.458 0.297
24.3783 10.979 0.338
24.3987 14.229 0.385
24.4192 15.573 0.403
24.4397 13.927 0.381
24.4601 11.500 0.346
24.4806 11.292 0.343
24.5011 10.167 0.325
24.5215 8.083 0.290
24.5420 7.823 0.285
24.5624 8.625 0.300
24.5829 9.177 0.309
24.6034 10.115 0.325
24.6238 12.260 0.357
24.6443 17.073 0.422
24.6648 22.656 0.486
24.6852 29.521 0.555
24.7057 40.156 0.647
24.7261 51.375 0.732
24.7466 45.104 0.685
24.7671 30.792 0.566
24.7875 29.781 0.557
24.8080 22.385 0.483
24.8285 13.583 0.376
24.8489 9.760 0.319
24.8694 7.969 0.288
24.8898 7.740 0.284
24.9103 7.063 0.271
24.9308 7.115 0.272
24.9512 6.927 0.269
24.9717 6.542 0.261
24.9922 6.833 0.267
25.0126 6.427 0.259
25.0331 6.323 0.257
25.0535 6.271 0.256
25.0740 6.104 0.252
25.0945 6.500 0.260
25.1149 6.323 0.257
25.1354 6.344 0.257
25.1559 6.104 0.252
25.1763 6.667 0.264
25.1968 7.000 0.270
25.2172 7.208 0.274
25.2377 6.781 0.266
25.2582 7.406 0.278
25.2786 8.260 0.293
25.2991 8.594 0.299
25.3196 9.729 0.318
25.3400 10.333 0.328
25.3605 14.094 0.383
25.3810 17.594 0.428
25.4014 22.635 0.486
25.4219 29.740 0.557
25.4423 37.479 0.625
25.4628 41.333 0.656
25.4833 40.958 0.653
25.5037 41.365 0.656
25.5242 33.802 0.593
25.5447 25.354 0.514
25.5651 24.656 0.507
25.5856 22.198 0.481
25.6060 21.438 0.473
25.6265 19.406 0.450
25.6470 16.302 0.412
25.6674 15.156 0.397
25.6879 13.542 0.376
25.7084 11.510 0.346
25.7288 9.406 0.313
25.7493 7.531 0.280
25.7697 7.052 0.271
25.7902 6.823 0.267
25.8107 7.198 0.274
25.8311 6.354 0.257
25.8516 6.083 0.252
25.8721 6.354 0.257
25.8925 6.125 0.253
25.9130 5.438 0.238
25.9334 5.677 0.243
25.9539 6.188 0.254
25.9744 5.760 0.245
25.9948 5.625 0.242
26.0153 5.479 0.239
26.0358 5.531 0.240
26.0562 5.854 0.247
26.0767 5.552 0.240
26.0971 5.865 0.247
26.1176 5.500 0.239
26.1381 5.323 0.235
26.1585 5.125 0.231
26.1790 5.240 0.234
26.1995 5.510 0.240
26.2199 5.813 0.246
26.2404 5.427 0.238
26.2609 5.417 0.238
26.2813 5.396 0.237
26.3018 5.313 0.235
26.3222 5.844 0.247
26.3427 5.542 0.240
26.3632 5.063 0.230
26.3836 5.438 0.238
26.4041 5.354 0.236
26.4246 5.042 0.229
26.4450 5.615 0.242
26.4655 5.698 0.244
26.4859 5.667 0.243
26.5064 5.885 0.248
26.5269 6.344 0.257
26.5473 6.146 0.253
26.5678 6.750 0.265
26.5883 7.083 0.272
26.6087 8.313 0.294
26.6292 9.802 0.320
26.6496 11.990 0.353
26.6701 13.208 0.371
26.6906 10.510 0.331
26.7110 9.729 0.318
26.7315 8.906 0.305
26.7520 8.281 0.294
26.7724 6.760 0.265
26.7929 6.094 0.252
26.8133 5.906 0.248
26.8338 5.667 0.243
26.8543 5.938 0.249
26.8747 5.813 0.246
26.8952 5.656 0.243
26.9157 6.031 0.251
26.9361 5.500 0.239
26.9566 5.854 0.247
26.9770 5.969 0.249
26.9975 5.698 0.244
27.0180 6.385 0.258
27.0384 6.052 0.251
27.0589 6.552 0.261
27.0794 6.031 0.251
27.0998 6.448 0.259
27.1203 7.396 0.278
27.1408 7.563 0.281
27.1612 8.708 0.301
27.1817 9.146 0.309
27.2021 13.146 0.370
27.2226 20.438 0.461
27.2431 35.344 0.607
27.2635 45.490 0.688
27.2840 37.719 0.627
27.3045 25.677 0.517
27.3249 27.240 0.533
27.3454 24.958 0.510
27.3658 14.531 0.389
27.3863 10.031 0.323
27.4068 8.979 0.306
27.4272 9.563 0.316
27.4477 10.448 0.330
27.4682 12.073 0.355
27.4886 12.833 0.366
27.5091 13.354 0.373
27.5295 12.365 0.359
27.5500 11.188 0.341
27.5705 10.354 0.328
27.5909 9.833 0.320
27.6114 7.958 0.288
27.6319 7.250 0.275
27.6523 7.281 0.275
27.6728 6.823 0.267
27.6932 6.604 0.262
27.7137 6.490 0.260
27.7342 6.292 0.256
27.7546 6.688 0.264
27.7751 6.250 0.255
27.7956 7.271 0.275
27.8160 6.750 0.265
27.8365 7.948 0.288
27.8569 8.490 0.297
27.8774 7.479 0.279
27.8979 7.396 0.278
27.9183 7.646 0.282
27.9388 8.448 0.297
27.9593 7.813 0.285
27.9797 8.271 0.294
28.0002 7.927 0.287
28.0207 9.156 0.309
28.0411 9.813 0.320
28.0616 9.844 0.320
28.0820 10.396 0.329
28.1025 11.427 0.345
28.1230 12.927 0.367
28.1434 13.917 0.381
28.1639 14.490 0.389
28.1844 15.625 0.403
28.2048 16.104 0.410
28.2253 17.063 0.422
28.2457 17.115 0.422
28.2662 17.531 0.427
28.2867 16.229 0.411
28.3071 15.615 0.403
28.3276 14.708 0.391
28.3481 13.969 0.381
28.3685 13.656 0.377
28.3890 13.000 0.368
28.4094 11.979 0.353
28.4299 11.198 0.342
28.4504 10.781 0.335
28.4708 10.604 0.332
28.4913 11.313 0.343
28.5118 12.104 0.355
28.5322 14.281 0.386
28.5527 13.000 0.368
28.5731 10.552 0.332
28.5936 10.667 0.333
28.6141 10.010 0.323
28.6345 9.083 0.308
28.6550 8.010 0.289
28.6755 6.719 0.265
28.6959 6.698 0.264
28.7164 7.146 0.273
28.7368 7.813 0.285
28.7573 7.146 0.273
28.7778 6.688 0.264
28.7982 6.594 0.262
28.8187 6.438 0.259
28.8392 6.146 0.253
28.8596 5.938 0.249
28.8801 5.708 0.244
28.9006 5.604 0.242
28.9210 5.458 0.238
28.9415 5.438 0.238
28.9619 5.427 0.238
28.9824 4.969 0.228
29.0029 4.740 0.222
29.0233 4.979 0.228
29.0438 5.490 0.239
29.0643 5.427 0.238
29.0847 5.281 0.235
29.1052 4.948 0.227
29.1256 5.104 0.231
29.1461 5.333 0.236
29.1666 5.021 0.229
29.1870 5.281 0.235
29.2075 5.063 0.230
29.2280 5.646 0.243
29.2484 5.542 0.240
29.2689 5.198 0.233
29.2893 5.563 0.241
29.3098 5.750 0.245
29.3303 6.010 0.250
29.3507 5.688 0.243
29.3712 6.229 0.255
29.3917 6.604 0.262
29.4121 7.146 0.273
29.4326 7.344 0.277
29.4530 9.177 0.309
29.4735 12.906 0.367
29.4940 17.688 0.429
29.5144 20.771 0.465
29.5349 16.083 0.409
29.5554 13.479 0.375
29.5758 15.063 0.396
29.5963 15.698 0.404
29.6168 11.323 0.343
29.6372 8.885 0.304
29.6577 7.656 0.282
29.6781 7.719 0.284
29.6986 7.063 0.271
29.7191 6.292 0.256
29.7395 5.896 0.248
29.7600 5.792 0.246
29.7805 5.208 0.233
29.8009 5.396 0.237
29.8214 5.094 0.230
29.8418 5.135 0.231
29.8623 4.740 0.222
29.8828 5.354 0.236
29.9032 5.302 0.235
29.9237 5.000 0.228
29.9442 5.333 0.236
29.9646 5.271 0.234
29.9851 5.063 0.230
30.0055 4.865 0.225
30.0260 5.354 0.236
30.0465 4.969 0.228
30.0669 4.719 0.222
30.0874 4.594 0.219
30.1079 4.510 0.217
30.1283 4.750 0.222
30.1488 4.500 0.217
30.1692 4.896 0.226
30.1897 4.802 0.224
30.2102 4.510 0.217
30.2306 4.792 0.223
30.2511 4.781 0.223
30.2716 4.646 0.220
30.2920 4.667 0.220
30.3125 4.302 0.212
30.3329 4.813 0.224
30.3534 4.635 0.220
30.3739 5.000 0.228
30.3943 4.698 0.221
30.4148 4.948 0.227
30.4353 4.823 0.224
30.4557 4.802 0.224
30.4762 4.927 0.227
30.4967 4.479 0.216
30.5171 4.469 0.216
30.5376 4.635 0.220
30.5580 4.875 0.225
30.5785 4.396 0.214
30.5990 4.302 0.212
30.6194 4.917 0.226
30.6399 4.365 0.213
30.6604 4.927 0.227
30.6808 4.802 0.224
30.7013 4.948 0.227
30.7217 4.646 0.220
30.7422 4.917 0.226
30.7627 5.427 0.238
30.7831 5.042 0.229
30.8036 4.573 0.218
30.8241 5.063 0.230
30.8445 5.198 0.233
30.8650 4.781 0.223
30.8854 4.833 0.224
30.9059 5.396 0.237
30.9264 5.177 0.232
30.9468 5.313 0.235
30.9673 5.521 0.240
30.9878 6.073 0.252
31.0082 6.740 0.265
31.0287 8.010 0.289
31.0491 9.302 0.311
31.0696 10.094 0.324
31.0901 10.000 0.323
31.1105 10.146 0.325
31.1310 9.344 0.312
31.1515 8.167 0.292
31.1719 8.115 0.291
31.1924 7.573 0.281
31.2128 7.052 0.271
31.2333 6.125 0.253
31.2538 5.927 0.248
31.2742 5.917 0.248
31.2947 5.958 0.249
31.3152 6.823 0.267
31.3356 7.573 0.281
31.3561 8.625 0.300
31.3766 12.188 0.356
31.3970 17.313 0.425
31.4175 22.250 0.481
31.4379 18.438 0.438
31.4584 13.177 0.370
31.4789 12.646 0.363
31.4993 14.417 0.388
31.5198 10.979 0.338
31.5403 7.719 0.284
31.5607 6.510 0.260
31.5812 6.448 0.259
31.6016 6.063 0.251
31.6221 6.344 0.257
31.6426 6.656 0.263
31.6630 6.823 0.267
31.6835 8.156 0.291
31.7040 10.865 0.336
31.7244 15.563 0.403
31.7449 17.677 0.429
31.7653 13.469 0.375
31.7858 12.104 0.355
31.8063 15.000 0.395
31.8267 20.469 0.462
31.8472 24.167 0.502
31.8677 28.063 0.541
31.8881 29.260 0.552
31.9086 26.344 0.524
31.9290 23.385 0.494
31.9495 24.146 0.502
31.9700 28.229 0.542
31.9904 31.104 0.569
32.0109 31.021 0.568
32.0314 27.479 0.535
32.0518 20.552 0.463
32.0723 18.208 0.436
32.0927 18.531 0.439
32.1132 17.021 0.421
32.1337 12.656 0.363
32.1541 11.177 0.341
32.1746 12.490 0.361
32.1951 15.427 0.401
32.2155 18.375 0.438
32.2360 21.625 0.475
32.2565 21.177 0.470
32.2769 18.448 0.438
32.2974 16.385 0.413
32.3178 15.750 0.405
32.3383 14.615 0.390
32.3588 11.604 0.348
32.3792 9.542 0.315
32.3997 7.427 0.278
32.4202 7.625 0.282
32.4406 7.083 0.272
32.4611 6.323 0.257
32.4815 6.052 0.251
32.5020 6.292 0.256
32.5225 6.146 0.253
32.5429 5.771 0.245
32.5634 5.958 0.249
32.5839 6.354 0.257
32.6043 5.688 0.243
32.6248 6.000 0.250
32.6452 6.719 0.265
32.6657 7.000 0.270
32.6862 7.010 0.270
32.7066 7.375 0.277
32.7271 7.792 0.285
32.7476 6.156 0.253
32.7680 5.740 0.245
32.7885 6.063 0.251
32.8089 5.677 0.243
32.8294 5.469 0.239
32.8499 5.521 0.240
32.8703 5.219 0.233
32.8908 5.167 0.232
32.9113 4.990 0.228
32.9317 5.729 0.244
32.9522 5.438 0.238
32.9726 5.083 0.230
32.9931 5.583 0.241
33.0136 5.000 0.228
33.0340 5.448 0.238
33.0545 5.083 0.230
33.0750 5.417 0.238
33.0954 5.427 0.238
33.1159 5.875 0.247
33.1364 5.771 0.245
33.1568 6.365 0.257
33.1773 7.260 0.275
33.1977 6.854 0.267
33.2182 7.115 0.272
33.2387 6.823 0.267
33.2591 6.458 0.259
33.2796 6.667 0.264
33.3001 6.417 0.259
33.3205 6.365 0.257
33.3410 6.698 0.264
33.3614 6.583 0.262
33.3819 7.458 0.279
33.4024 7.948 0.288
33.4228 7.188 0.274
33.4433 7.208 0.274
33.4638 7.260 0.275
33.4842 6.333 0.257
33.5047 6.271 0.256
33.5251 5.844 0.247
33.5456 6.229 0.255
33.5661 5.719 0.244
33.5865 5.573 0.241
33.6070 5.708 0.244
33.6275 5.510 0.240
33.6479 4.667 0.220
33.6684 5.031 0.229
33.6888 5.094 0.230
33.7093 4.906 0.226
33.7298 4.865 0.225
33.7502 4.760 0.223
33.7707 4.583 0.219
33.7912 4.625 0.219
33.8116 4.156 0.208
33.8321 4.219 0.210
33.8526 4.656 0.220
33.8730 4.656 0.220
33.8935 4.385 0.214
33.9139 4.740 0.222
33.9344 4.990 0.228
33.9549 4.833 0.224
33.9753 5.177 0.232
33.9958 4.802 0.224
34.0163 4.781 0.223
34.0367 4.813 0.224
34.0572 5.188 0.232
34.0776 5.281 0.235
34.0981 5.500 0.239
34.1186 5.729 0.244
34.1390 6.656 0.263
34.1595 6.406 0.258
34.1800 7.167 0.273
34.2004 8.667 0.300
34.2209 10.250 0.327
34.2413 11.927 0.352
34.2618 14.917 0.394
34.2823 16.740 0.418
34.3027 15.865 0.407
34.3232 14.948 0.395
34.3437 12.667 0.363
34.3641 11.000 0.339
34.3846 11.146 0.341
34.4050 9.771 0.319
34.4255 7.500 0.280
34.4460 6.542 0.261
34.4664 6.563 0.261
34.4869 7.177 0.273
34.5074 9.417 0.313
34.5278 10.104 0.324
34.5483 9.750 0.319
34.5687 7.604 0.281
34.5892 7.542 0.280
34.6097 7.490 0.279
34.6301 7.365 0.277
34.6506 6.583 0.262
34.6711 5.948 0.249
34.6915 5.771 0.245
34.7120 5.781 0.245
34.7325 5.573 0.241
34.7529 5.656 0.243
34.7734 5.771 0.245
34.7938 6.042 0.251
34.8143 6.021 0.250
34.8348 6.250 0.255
34.8552 7.323 0.276
34.8757 8.281 0.294
34.8962 9.635 0.317
34.9166 12.000 0.354
34.9371 15.625 0.403
34.9575 19.833 0.455
34.9780 22.135 0.480
34.9985 22.927 0.489
35.0189 20.250 0.459
35.0394 18.229 0.436
35.0599 18.094 0.434
35.0803 16.542 0.415
35.1008 14.844 0.393
35.1212 12.865 0.366
35.1417 10.948 0.338
35.1622 9.688 0.318
35.1826 8.875 0.304
35.2031 8.208 0.292
35.2236 8.740 0.302
35.2440 10.667 0.333
35.2645 11.656 0.348
35.2849 15.063 0.396
35.3054 14.750 0.392
35.3259 12.125 0.355
35.3463 9.448 0.314
35.3668 9.708 0.318
35.3873 10.104 0.324
35.4077 9.260 0.311
35.4282 6.948 0.269
35.4486 5.385 0.237
35.4691 5.833 0.247
35.4896 6.000 0.250
35.5100 6.323 0.257
35.5305 6.000 0.250
35.5510 6.042 0.251
35.5714 5.771 0.245
35.5919 6.031 0.251
35.6124 5.104 0.231
35.6328 5.490 0.239
35.6533 5.760 0.245
35.6737 5.167 0.232
35.6942 4.760 0.223
35.7147 4.458 0.216
35.7351 4.573 0.218
35.7556 4.906 0.226
35.7761 4.344 0.213
35.7965 4.333 0.212
35.8170 4.531 0.217
35.8374 4.708 0.221
35.8579 4.365 0.213
35.8784 4.677 0.221
35.8988 4.958 0.227
35.9193 4.542 0.218
35.9398 4.698 0.221
35.9602 4.813 0.224
35.9807 5.031 0.229
36.0011 5.354 0.236
36.0216 5.521 0.240
36.0421 5.771 0.245
36.0625 6.052 0.251
36.0830 6.510 0.260
36.1035 6.479 0.260
36.1239 6.021 0.250
36.1444 6.396 0.258
36.1648 6.427 0.259
36.1853 6.906 0.268
36.2058 6.542 0.261
36.2262 6.854 0.267
36.2467 6.198 0.254
36.2672 6.229 0.255
36.2876 6.375 0.258
36.3081 7.042 0.271
36.3285 6.479 0.260
36.3490 5.938 0.249
36.3695 5.729 0.244
36.3899 5.885 0.248
36.4104 6.406 0.258
36.4309 6.490 0.260
36.4513 5.990 0.250
36.4718 6.104 0.252
36.4923 6.417 0.259
36.5127 6.469 0.260
36.5332 6.667 0.264
36.5536 6.583 0.262
36.5741 7.688 0.283
36.5946 8.563 0.299
36.6150 9.156 0.309
36.6355 9.448 0.314
36.6560 8.031 0.289
36.6764 7.594 0.281
36.6969 7.438 0.278
36.7173 7.479 0.279
36.7378 6.854 0.267
36.7583 6.448 0.259
36.7787 5.646 0.243
36.7992 5.396 0.237
36.8197 5.375 0.237
36.8401 5.729 0.244
36.8606 5.677 0.243
36.8810 5.333 0.236
36.9015 5.219 0.233
36.9220 5.740 0.245
36.9424 6.135 0.253
36.9629 5.854 0.247
36.9834 5.469 0.239
37.0038 6.177 0.254
37.0243 6.521 0.261
37.0447 6.771 0.266
37.0652 7.302 0.276
37.0857 8.844 0.304
37.1061 9.958 0.322
37.1266 10.667 0.333
37.1471 10.198 0.326
37.1675 11.635 0.348
37.1880 12.469 0.360
37.2084 13.094 0.369
37.2289 10.927 0.337
37.2494 10.521 0.331
37.2698 10.125 0.325
37.2903 10.542 0.331
37.3108 9.146 0.309
37.3312 7.552 0.280
37.3517 7.156 0.273
37.3722 7.635 0.282
37.3926 6.500 0.260
37.4131 6.479 0.260
37.4335 6.167 0.253
37.4540 5.313 0.235
37.4745 6.042 0.251
37.4949 6.427 0.259
37.5154 7.990 0.288
37.5359 7.292 0.276
37.5563 6.854 0.267
37.5768 6.302 0.256
37.5972 5.990 0.250
37.6177 6.615 0.262
37.6382 6.469 0.260
37.6586 7.198 0.274
37.6791 8.094 0.290
37.6996 7.469 0.279
37.7200 7.083 0.272
37.7405 6.719 0.265
37.7609 6.365 0.257
37.7814 6.198 0.254
37.8019 6.750 0.265
37.8223 6.188 0.254
37.8428 5.896 0.248
37.8633 5.667 0.243
37.8837 5.385 0.237
37.9042 5.990 0.250
37.9246 5.740 0.245
37.9451 6.021 0.250
37.9656 6.344 0.257
37.9860 6.854 0.267
38.0065 8.354 0.295
38.0270 9.427 0.313
38.0474 11.271 0.343
38.0679 10.771 0.335
38.0884 9.167 0.309
38.1088 8.688 0.301
38.1293 9.688 0.318
38.1497 10.646 0.333
38.1702 11.094 0.340
38.1907 11.208 0.342
38.2111 11.646 0.348
38.2316 13.458 0.374
38.2521 14.969 0.395
38.2725 15.583 0.403
38.2930 14.427 0.388
38.3134 14.802 0.393
38.3339 15.198 0.398
38.3544 16.156 0.410
38.3748 14.573 0.390
38.3953 14.885 0.394
38.4158 14.438 0.388
38.4362 13.313 0.372
38.4567 12.729 0.364
38.4771 13.073 0.369
38.4976 12.229 0.357
38.5181 11.167 0.341
38.5385 11.073 0.340
38.5590 10.260 0.327
38.5795 10.146 0.325
38.5999 9.604 0.316
38.6204 9.510 0.315
38.6408 9.156 0.309
38.6613 8.802 0.303
38.6818 8.563 0.299
38.7022 8.094 0.290
38.7227 6.865 0.267
38.7432 6.573 0.262
38.7636 6.844 0.267
38.7841 6.979 0.270
38.8045 6.594 0.262
38.8250 6.219 0.255
38.8455 5.813 0.246
38.8659 5.583 0.241
38.8864 5.188 0.232
38.9069 5.104 0.231
38.9273 5.333 0.236
38.9478 4.781 0.223
38.9683 5.052 0.229
38.9887 5.354 0.236
39.0092 4.865 0.225
39.0296 5.427 0.238
39.0501 5.271 0.234
39.0706 5.344 0.236
39.0910 5.740 0.245
39.1115 5.167 0.232
39.1320 5.427 0.238
39.1524 5.344 0.236
39.1729 5.375 0.237
39.1933 5.688 0.243
39.2138 5.635 0.242
39.2343 5.792 0.246
39.2547 6.156 0.253
39.2752 6.792 0.266
39.2957 8.656 0.300
39.3161 11.344 0.344
39.3366 15.875 0.407
39.3570 17.823 0.431
39.3775 16.010 0.408
39.3980 15.125 0.397
39.4184 16.667 0.417
39.4389 20.229 0.459
39.4594 18.323 0.437
39.4798 14.177 0.384
39.5003 11.406 0.345
39.5207 10.688 0.334
39.5412 10.583 0.332
39.5617 9.490 0.314
39.5821 7.479 0.279
39.6026 6.438 0.259
39.6231 5.375 0.237
39.6435 5.396 0.237
39.6640 5.167 0.232
39.6844 5.510 0.240
39.7049 5.281 0.235
39.7254 4.854 0.225
39.7458 5.417 0.238
39.7663 5.281 0.235
39.7868 5.323 0.235
39.8072 5.448 0.238
39.8277 5.198 0.233
39.8482 4.958 0.227
39.8686 5.094 0.230
39.8891 5.302 0.235
39.9095 5.229 0.233
39.9300 5.042 0.229
39.9505 4.875 0.225
39.9709 4.896 0.226
39.9914 4.542 0.218
40.0119 4.688 0.221
40.0323 4.938 0.227
40.0528 4.583 0.219
40.0732 4.635 0.220
40.0937 4.667 0.220
40.1142 4.688 0.221
40.1346 5.021 0.229
40.1551 5.156 0.232
40.1756 5.292 0.235
40.1960 5.740 0.245
40.2165 5.510 0.240
40.2369 6.583 0.262
40.2574 7.219 0.274
40.2779 9.323 0.312
40.2983 10.417 0.329
40.3188 10.094 0.324
40.3393 9.104 0.308
40.3597 9.385 0.313
40.3802 11.115 0.340
40.4006 14.385 0.387
40.4211 18.354 0.437
40.4416 19.260 0.448
40.4620 14.469 0.388
40.4825 10.792 0.335
40.5030 9.990 0.323
40.5234 10.906 0.337
40.5439 11.646 0.348
40.5643 10.156 0.325
40.5848 8.292 0.294
40.6053 7.146 0.273
40.6257 8.198 0.292
40.6462 9.688 0.318
40.6667 9.854 0.320
40.6871 9.833 0.320
40.7076 10.656 0.333
40.7281 10.625 0.333
40.7485 12.396 0.359
40.7690 14.552 0.389
40.7894 16.479 0.414
40.8099 19.792 0.454
40.8304 20.375 0.461
40.8508 18.792 0.442
40.8713 16.698 0.417
40.8918 15.208 0.398
40.9122 14.521 0.389
40.9327 14.208 0.385
40.9531 13.073 0.369
40.9736 11.323 0.343
40.9941 9.344 0.312
41.0145 8.135 0.291
41.0350 7.313 0.276
41.0555 6.583 0.262
41.0759 6.531 0.261
41.0964 6.406 0.258
41.1168 7.000 0.270
41.1373 7.365 0.277
41.1578 7.615 0.282
41.1782 7.510 0.280
41.1987 6.760 0.265
41.2192 6.677 0.264
41.2396 6.521 0.261
41.2601 7.698 0.283
41.2805 7.969 0.288
41.3010 8.198 0.292
41.3215 8.021 0.289
41.3419 7.875 0.286
41.3624 8.458 0.297
41.3829 6.823 0.267
41.4033 6.625 0.263
41.4238 6.208 0.254
41.4442 6.542 0.261
41.4647 6.365 0.257
41.4852 5.510 0.240
41.5056 5.208 0.233
41.5261 4.792 0.223
41.5466 5.125 0.231
41.5670 5.229 0.233
41.5875 5.323 0.235
41.6080 5.865 0.247
41.6284 8.490 0.297
41.6489 9.052 0.307
41.6693 7.896 0.287
41.6898 6.688 0.264
41.7103 6.625 0.263
41.7307 6.844 0.267
41.7512 7.396 0.278
41.7717 7.365 0.277
41.7921 6.875 0.268
41.8126 6.615 0.262
41.8330 6.896 0.268
41.8535 8.094 0.290
41.8740 9.135 0.308
41.8944 10.594 0.332
41.9149 11.667 0.349
41.9354 11.104 0.340
41.9558 10.146 0.325
41.9763 9.073 0.307
41.9967 9.510 0.315
42.0172 9.240 0.310
42.0377 8.510 0.298
42.0581 7.552 0.280
42.0786 7.156 0.273
42.0991 6.292 0.256
42.1195 5.365 0.236
42.1400 5.104 0.231
42.1604 5.521 0.240
42.1809 5.365 0.236
42.2014 5.219 0.233
42.2218 5.427 0.238
42.2423 5.167 0.232
42.2628 5.844 0.247
42.2832 7.146 0.273
42.3037 7.333 0.276
42.3242 6.583 0.262
42.3446 6.260 0.255
42.3651 6.396 0.258
42.3855 6.188 0.254
42.4060 6.708 0.264
42.4265 6.448 0.259
42.4469 6.156 0.253
42.4674 5.938 0.249
42.4879 5.844 0.247
42.5083 6.021 0.250
42.5288 5.740 0.245
42.5492 6.219 0.255
42.5697 6.208 0.254
42.5902 5.792 0.246
42.6106 5.865 0.247
42.6311 5.990 0.250
42.6516 5.969 0.249
42.6720 5.885 0.248
42.6925 5.573 0.241
42.7129 6.115 0.252
42.7334 5.708 0.244
42.7539 5.740 0.245
42.7743 5.615 0.242
42.7948 5.667 0.243
42.8153 5.188 0.232
42.8357 4.792 0.223
42.8562 4.917 0.226
42.8766 4.771 0.223
42.8971 5.458 0.238
42.9176 5.052 0.229
42.9380 4.844 0.225
42.9585 4.729 0.222
42.9790 4.604 0.219
42.9994 4.344 0.213
43.0199 4.615 0.219
43.0403 5.313 0.235
43.0608 5.990 0.250
43.0813 7.250 0.275
43.1017 9.448 0.314
43.1222 11.979 0.353
43.1427 11.646 0.348
43.1631 9.198 0.310
43.1836 7.958 0.288
43.2041 7.927 0.287
43.2245 9.104 0.308
43.2450 10.656 0.333
43.2654 10.802 0.335
43.2859 11.573 0.347
43.3064 13.073 0.369
43.3268 14.760 0.392
43.3473 13.396 0.374
43.3678 9.615 0.316
43.3882 8.917 0.305
43.4087 9.188 0.309
43.4291 10.042 0.323
43.4496 9.323 0.312
43.4701 7.792 0.285
43.4905 6.146 0.253
43.5110 5.865 0.247
43.5315 5.813 0.246
43.5519 6.177 0.254
43.5724 5.573 0.241
43.5928 5.833 0.247
43.6133 6.573 0.262
43.6338 7.219 0.274
43.6542 7.615 0.282
43.6747 9.115 0.308
43.6952 9.813 0.320
43.7156 10.031 0.323
43.7361 9.094 0.308
43.7565 8.875 0.304
43.7770 10.594 0.332
43.7975 10.281 0.327
43.8179 9.969 0.322
43.8384 8.354 0.295
43.8589 7.344 0.277
43.8793 7.885 0.287
43.8998 7.792 0.285
43.9202 7.604 0.281
43.9407 6.604 0.262
43.9612 5.927 0.248
43.9816 5.510 0.240
44.0021 5.427 0.238
44.0226 5.583 0.241
44.0430 5.969 0.249
44.0635 6.406 0.258
44.0840 6.281 0.256
44.1044 5.646 0.243
44.1249 4.875 0.225
44.1453 4.740 0.222
44.1658 5.156 0.232
44.1863 4.719 0.222
44.2067 4.979 0.228
44.2272 4.281 0.211
44.2477 4.167 0.208
44.2681 4.073 0.206
44.2886 4.333 0.212
44.3090 4.052 0.205
44.3295 4.344 0.213
44.3500 4.125 0.207
44.3704 4.271 0.211
44.3909 4.333 0.212
44.4114 4.844 0.225
44.4318 4.802 0.224
44.4523 4.938 0.227
44.4727 4.979 0.228
44.4932 5.604 0.242
44.5137 5.615 0.242
44.5341 6.490 0.260
44.5546 6.490 0.260
44.5751 8.833 0.303
44.5955 9.792 0.319
44.6160 11.323 0.343
44.6364 12.177 0.356
44.6569 9.979 0.322
44.6774 8.854 0.304
44.6978 7.729 0.284
44.7183 7.948 0.288
44.7388 8.271 0.294
44.7592 8.240 0.293
44.7797 6.521 0.261
44.8001 5.823 0.246
44.8206 5.177 0.232
44.8411 4.927 0.227
44.8615 5.271 0.234
44.8820 4.781 0.223
44.9025 4.552 0.218
44.9229 4.167 0.208
44.9434 4.052 0.205
44.9639 4.083 0.206
44.9843 4.219 0.210
45.0048 4.260 0.211
45.0252 4.281 0.211
45.0457 4.156 0.208
45.0662 3.760 0.198
45.0866 3.802 0.199
45.1071 3.760 0.198
45.1276 4.146 0.208
45.1480 4.500 0.217
45.1685 4.792 0.223
45.1889 4.188 0.209
45.2094 4.313 0.212
45.2299 4.219 0.210
45.2503 4.719 0.222
45.2708 4.427 0.215
45.2913 4.563 0.218
45.3117 4.458 0.216
45.3322 4.156 0.208
45.3526 4.188 0.209
45.3731 4.469 0.216
45.3936 4.417 0.214
45.4140 4.406 0.214
45.4345 4.073 0.206
45.4550 4.510 0.217
45.4754 4.458 0.216
45.4959 4.490 0.216
45.5163 4.573 0.218
45.5368 4.635 0.220
45.5573 4.500 0.217
45.5777 4.438 0.215
45.5982 4.635 0.220
45.6187 4.917 0.226
45.6391 5.688 0.243
45.6596 5.250 0.234
45.6800 5.281 0.235
45.7005 5.458 0.238
45.7210 5.104 0.231
45.7414 5.115 0.231
45.7619 5.688 0.243
45.7824 4.990 0.228
45.8028 5.365 0.236
45.8233 5.875 0.247
45.8438 5.510 0.240
45.8642 6.083 0.252
45.8847 5.625 0.242
45.9051 6.010 0.250
45.9256 5.677 0.243
45.9461 5.365 0.236
45.9665 5.594 0.241
45.9870 5.240 0.234
46.0075 5.406 0.237
46.0279 5.813 0.246
46.0484 5.990 0.250
46.0688 5.958 0.249
46.0893 4.958 0.227
46.1098 3.906 0.202
46.1302 4.292 0.211
46.1507 4.698 0.221
46.1712 4.396 0.214
46.1916 4.313 0.212
46.2121 4.125 0.207
46.2325 3.646 0.195
46.2530 4.260 0.211
46.2735 3.375 0.188
46.2939 3.500 0.191
46.3144 3.604 0.194
46.3349 3.698 0.196
46.3553 3.906 0.202
46.3758 3.417 0.189
46.3962 3.396 0.188
46.4167 3.844 0.200
46.4372 4.052 0.205
46.4576 3.729 0.197
46.4781 3.906 0.202
46.4986 3.917 0.202
46.5190 4.219 0.210
46.5395 3.917 0.202
46.5600 4.656 0.220
46.5804 4.729 0.222
46.6009 5.302 0.235
46.6213 6.146 0.253
46.6418 7.063 0.271
46.6623 6.542 0.261
46.6827 5.885 0.248
46.7032 5.740 0.245
46.7237 5.677 0.243
46.7441 5.792 0.246
46.7646 5.156 0.232
46.7850 5.458 0.238
46.8055 5.958 0.249
46.8260 4.875 0.225
46.8464 4.719 0.222
46.8669 4.635 0.220
46.8874 4.250 0.210
46.9078 4.354 0.213
46.9283 4.396 0.214
46.9487 3.750 0.198
46.9692 4.292 0.211
46.9897 4.063 0.206
47.0101 4.010 0.204
47.0306 4.281 0.211
47.0511 4.365 0.213
47.0715 4.406 0.214
47.0920 4.406 0.214
47.1124 4.177 0.209
47.1329 4.354 0.213
47.1534 4.010 0.204
47.1738 3.604 0.194
47.1943 4.635 0.220
47.2148 4.594 0.219
47.2352 4.229 0.210
47.2557 4.156 0.208
47.2761 4.083 0.206
47.2966 3.885 0.201
47.3171 4.167 0.208
47.3375 4.083 0.206
47.3580 4.167 0.208
47.3785 3.969 0.203
47.3989 4.354 0.213
47.4194 4.385 0.214
47.4399 5.677 0.243
47.4603 6.052 0.251
47.4808 6.406 0.258
47.5012 6.052 0.251
47.5217 5.531 0.240
47.5422 4.958 0.227
47.5626 5.146 0.232
47.5831 5.760 0.245
47.6036 6.000 0.250
47.6240 6.250 0.255
47.6445 6.302 0.256
47.6649 5.542 0.240
47.6854 5.125 0.231
47.7059 5.219 0.233
47.7263 5.229 0.233
47.7468 5.365 0.236
47.7673 5.385 0.237
47.7877 5.385 0.237
47.8082 4.969 0.228
47.8286 4.531 0.217
47.8491 4.156 0.208
47.8696 4.510 0.217
47.8900 4.646 0.220
47.9105 4.344 0.213
47.9310 4.281 0.211
47.9514 4.448 0.215
47.9719 4.010 0.204
47.9923 4.229 0.210
48.0128 4.208 0.209
48.0333 4.094 0.207
48.0537 3.958 0.203
48.0742 3.917 0.202
48.0947 4.490 0.216
48.1151 4.354 0.213
48.1356 3.875 0.201
48.1560 4.219 0.210
48.1765 4.354 0.213
48.1970 4.229 0.210
48.2174 3.823 0.200
48.2379 3.823 0.200
48.2584 3.906 0.202
48.2788 3.979 0.204
48.2993 4.188 0.209
48.3198 4.135 0.208
48.3402 4.146 0.208
48.3607 4.365 0.213
48.3811 4.135 0.208
48.4016 4.396 0.214
48.4221 4.490 0.216
48.4425 4.115 0.207
48.4630 4.604 0.219
48.4835 5.000 0.228
48.5039 4.885 0.226
48.5244 5.594 0.241
48.5448 4.896 0.226
48.5653 5.427 0.238
48.5858 5.740 0.245
48.6062 6.115 0.252
48.6267 6.271 0.256
48.6472 6.958 0.269
48.6676 6.563 0.261
48.6881 7.396 0.278
48.7085 7.323 0.276
48.7290 7.667 0.283
48.7495 7.490 0.279
48.7699 7.594 0.281
48.7904 7.979 0.288
48.8109 8.406 0.296
48.8313 8.823 0.303
48.8518 8.979 0.306
48.8722 8.917 0.305
48.8927 9.063 0.307
48.9132 9.552 0.315
48.9336 9.802 0.320
48.9541 9.552 0.315
48.9746 10.021 0.323
48.9950 9.458 0.314
49.0155 10.125 0.325
49.0359 10.427 0.330
49.0564 10.552 0.332
49.0769 10.646 0.333
49.0973 11.521 0.346
49.1178 11.365 0.344
49.1383 11.135 0.341
49.1587 11.438 0.345
49.1792 10.781 0.335
49.1997 10.583 0.332
49.2201 10.833 0.336
49.2406 11.313 0.343
49.2610 11.500 0.346
49.2815 11.125 0.340
49.3020 10.750 0.335
49.3224 11.396 0.345
49.3429 10.885 0.337
49.3634 10.979 0.338
49.3838 10.927 0.337
49.4043 9.906 0.321
49.4247 9.885 0.321
49.4452 8.833 0.303
49.4657 8.688 0.301
49.4861 8.385 0.296
49.5066 9.281 0.311
49.5271 8.000 0.289
49.5475 8.698 0.301
49.5680 8.729 0.302
49.5884 7.802 0.285
49.6089 6.688 0.264
49.6294 6.417 0.259
49.6498 6.292 0.256
49.6703 5.885 0.248
49.6908 6.021 0.250
49.7112 5.958 0.249
49.7317 6.021 0.250
49.7521 6.052 0.251
49.7726 5.615 0.242
49.7931 5.990 0.250
49.8135 5.979 0.250
49.8340 6.031 0.251
49.8545 6.042 0.251
49.8749 6.010 0.250
49.8954 6.198 0.254
49.9158 6.031 0.251
49.9363 5.510 0.240
49.9568 5.531 0.240
49.9772 5.646 0.243
49.9977 5.729 0.244
50.0182 5.240 0.234
50.0386 5.229 0.233
50.0591 4.979 0.228
50.0796 4.729 0.222
50.1000 4.604 0.219
50.1205 4.708 0.221
50.1409 4.719 0.222
50.1614 4.125 0.207
50.1819 4.271 0.211
50.2023 4.323 0.212
50.2228 4.250 0.210
50.2433 4.292 0.211
50.2637 4.698 0.221
50.2842 4.688 0.221
50.3046 4.813 0.224
50.3251 5.219 0.233
50.3456 5.094 0.230
50.3660 5.000 0.228
50.3865 4.396 0.214
50.4070 5.010 0.228
50.4274 4.719 0.222
50.4479 4.646 0.220
50.4683 5.313 0.235
50.4888 5.490 0.239
50.5093 5.896 0.248
50.5297 6.198 0.254
50.5502 5.583 0.241
50.5707 5.813 0.246
50.5911 5.750 0.245
50.6116 6.021 0.250
50.6320 5.885 0.248
50.6525 6.323 0.257
50.6730 6.740 0.265
50.6934 6.000 0.250
50.7139 5.292 0.235
50.7344 5.177 0.232
50.7548 4.719 0.222
50.7753 5.156 0.232
50.7958 5.531 0.240
50.8162 5.417 0.238
50.8367 5.219 0.233
50.8571 4.302 0.212
50.8776 4.385 0.214
50.8981 4.365 0.213
50.9185 4.677 0.221
50.9390 4.615 0.219
50.9595 5.115 0.231
50.9799 5.323 0.235
51.0004 5.615 0.242
51.0208 5.479 0.239
51.0413 5.115 0.231
51.0618 4.156 0.208
51.0822 4.281 0.211
51.1027 4.479 0.216
51.1232 4.760 0.223
51.1436 4.563 0.218
51.1641 4.292 0.211
51.1845 4.073 0.206
51.2050 3.958 0.203
51.2255 3.896 0.201
51.2459 3.698 0.196
51.2664 3.365 0.187
51.2869 3.531 0.192
51.3073 3.365 0.187
51.3278 3.510 0.191
51.3482 3.875 0.201
51.3687 3.813 0.199
51.3892 4.063 0.206
51.4096 4.323 0.212
51.4301 4.333 0.212
51.4506 4.438 0.215
51.4710 4.750 0.222
51.4915 5.052 0.229
51.5119 4.750 0.222
51.5324 4.302 0.212
51.5529 4.583 0.219
51.5733 4.917 0.226
51.5938 5.729 0.244
51.6143 5.406 0.237
51.6347 5.552 0.240
51.6552 5.729 0.244
51.6757 6.229 0.255
51.6961 6.365 0.257
51.7166 5.729 0.244
51.7370 5.729 0.244
51.7575 5.563 0.241
51.7780 5.469 0.239
51.7984 5.052 0.229
51.8189 5.125 0.231
51.8394 4.740 0.222
51.8598 5.073 0.230
51.8803 4.698 0.221
51.9007 4.979 0.228
51.9212 4.927 0.227
51.9417 5.156 0.232
51.9621 4.802 0.224
51.9826 4.667 0.220
52.0031 4.479 0.216
52.0235 4.271 0.211
52.0440 4.250 0.210
52.0644 4.448 0.215
52.0849 4.219 0.210
52.1054 4.594 0.219
52.1258 4.510 0.217
52.1463 4.521 0.217
52.1668 4.021 0.205
52.1872 4.490 0.216
52.2077 4.688 0.221
52.2281 4.938 0.227
52.2486 5.427 0.238
52.2691 5.146 0.232
52.2895 5.615 0.242
52.3100 5.271 0.234
52.3305 5.188 0.232
52.3509 5.375 0.237
52.3714 5.219 0.233
52.3918 5.177 0.232
52.4123 4.979 0.228
52.4328 4.802 0.224
52.4532 4.354 0.213
52.4737 4.375 0.213
52.4942 4.594 0.219
52.5146 4.042 0.205
52.5351 4.333 0.212
52.5556 4.521 0.217
52.5760 4.292 0.211
52.5965 5.063 0.230
52.6169 5.198 0.233
52.6374 5.292 0.235
52.6579 4.896 0.226
52.6783 5.615 0.242
52.6988 5.635 0.242
52.7193 6.354 0.257
52.7397 6.438 0.259
52.7602 6.510 0.260
52.7806 5.177 0.232
52.8011 5.125 0.231
52.8216 4.583 0.219
52.8420 4.458 0.216
52.8625 4.917 0.226
52.8830 4.635 0.220
52.9034 4.552 0.218
52.9239 3.854 0.200
52.9443 3.573 0.193
52.9648 3.740 0.197
52.9853 3.677 0.196
53.0057 3.792 0.199
53.0262 3.927 0.202
53.0467 4.010 0.204
53.0671 4.479 0.216
53.0876 4.250 0.210
53.1080 3.813 0.199
53.1285 3.635 0.195
53.1490 3.615 0.194
53.1694 3.490 0.191
53.1899 3.531 0.192
53.2104 3.573 0.193
53.2308 3.104 0.180
53.2513 2.938 0.175
53.2717 3.010 0.177
53.2922 3.240 0.184
53.3127 2.875 0.173
53.3331 3.146 0.181
53.3536 3.167 0.182
53.3741 3.115 0.180
53.3945 3.000 0.177
53.4150 3.000 0.177
53.4355 3.031 0.178
53.4559 2.750 0.169
53.4764 2.865 0.173
53.4968 2.875 0.173
53.5173 3.135 0.181
53.5378 3.219 0.183
53.5582 3.469 0.190
53.5787 3.385 0.188
53.5992 3.531 0.192
53.6196 3.750 0.198
53.6401 3.729 0.197
53.6605 3.760 0.198
53.6810 4.104 0.207
53.7015 3.896 0.201
53.7219 4.375 0.213
53.7424 5.010 0.228
53.7629 5.417 0.238
53.7833 5.156 0.232
53.8038 5.604 0.242
53.8242 5.385 0.237
53.8447 5.573 0.241
53.8652 4.969 0.228
53.8856 4.500 0.217
53.9061 4.625 0.219
53.9266 4.458 0.216
53.9470 4.906 0.226
53.9675 4.219 0.210
53.9879 4.344 0.213
54.0084 3.792 0.199
54.0289 3.427 0.189
54.0493 3.458 0.190
54.0698 3.250 0.184
54.0903 3.583 0.193
54.1107 3.083 0.179
54.1312 3.292 0.185
54.1516 3.521 0.192
54.1721 3.313 0.186
54.1926 3.802 0.199
54.2130 3.583 0.193
54.2335 3.854 0.200
54.2540 3.406 0.188
54.2744 3.521 0.192
54.2949 3.333 0.186
54.3154 3.208 0.183
54.3358 3.531 0.192
54.3563 3.625 0.194
54.3767 3.781 0.198
54.3972 3.625 0.194
54.4177 3.271 0.185
54.4381 2.958 0.176
54.4586 3.833 0.200
54.4791 4.073 0.206
54.4995 4.885 0.226
54.5200 4.896 0.226
54.5404 5.729 0.244
54.5609 5.885 0.248
54.5814 5.417 0.238
54.6018 5.073 0.230
54.6223 5.292 0.235
54.6428 5.333 0.236
54.6632 5.240 0.234
54.6837 5.167 0.232
54.7041 5.896 0.248
54.7246 5.135 0.231
54.7451 5.302 0.235
54.7655 5.615 0.242
54.7860 5.469 0.239
54.8065 5.927 0.248
54.8269 5.958 0.249
54.8474 7.094 0.272
54.8678 7.656 0.282
54.8883 8.708 0.301
54.9088 7.490 0.279
54.9292 7.573 0.281
54.9497 7.083 0.272
54.9702 7.083 0.272
54.9906 8.604 0.299
55.0111 8.667 0.300
55.0316 8.521 0.298
55.0520 8.313 0.294
55.0725 8.385 0.296
55.0929 8.375 0.295
55.1134 9.188 0.309
55.1339 9.135 0.308
55.1543 9.344 0.312
55.1748 8.365 0.295
55.1953 8.531 0.298
55.2157 8.833 0.303
55.2362 8.208 0.292
55.2566 8.167 0.292
55.2771 8.208 0.292
55.2976 7.323 0.276
55.3180 7.260 0.275
55.3385 6.750 0.265
55.3590 7.042 0.271
55.3794 6.385 0.258
55.3999 5.531 0.240
55.4203 5.594 0.241
55.4408 5.500 0.239
55.4613 5.031 0.229
55.4817 5.323 0.235
55.5022 4.719 0.222
55.5227 4.844 0.225
55.5431 4.271 0.211
55.5636 3.906 0.202
55.5840 4.125 0.207
55.6045 3.688 0.196
55.6250 4.042 0.205
55.6454 3.917 0.202
55.6659 3.875 0.201
55.6864 3.979 0.204
55.7068 4.177 0.209
55.7273 4.156 0.208
55.7477 4.573 0.218
55.7682 4.365 0.213
55.7887 4.167 0.208
55.8091 4.229 0.210
55.8296 4.156 0.208
55.8501 4.667 0.220
55.8705 4.188 0.209
55.8910 4.302 0.212
55.9115 3.969 0.203
55.9319 4.125 0.207
55.9524 3.656 0.195
55.9728 3.510 0.191
55.9933 3.531 0.192
56.0138 3.781 0.198
56.0342 3.260 0.184
56.0547 3.406 0.188
56.0752 3.229 0.183
56.0956 3.344 0.187
56.1161 3.479 0.190
56.1365 3.302 0.185
56.1570 3.458 0.190
56.1775 3.646 0.195
56.1979 3.594 0.193
56.2184 3.500 0.191
56.2389 3.854 0.200
56.2593 3.417 0.189
56.2798 3.531 0.192
56.3002 3.531 0.192
56.3207 3.635 0.195
56.3412 3.708 0.197
56.3616 3.594 0.193
56.3821 3.792 0.199
56.4026 3.333 0.186
56.4230 3.406 0.188
56.4435 2.750 0.169
56.4639 3.365 0.187
56.4844 3.313 0.186
56.5049 3.010 0.177
56.5253 3.115 0.180
56.5458 3.375 0.188
56.5663 3.240 0.184
56.5867 3.688 0.196
56.6072 4.010 0.204
56.6276 4.052 0.205
56.6481 4.385 0.214
56.6686 4.354 0.213
56.6890 4.625 0.219
56.7095 5.104 0.231
56.7300 5.448 0.238
56.7504 4.885 0.226
56.7709 5.281 0.235
56.7914 5.469 0.239
56.8118 5.292 0.235
56.8323 5.760 0.245
56.8527 5.469 0.239
56.8732 5.073 0.230
56.8937 4.448 0.215
56.9141 3.927 0.202
56.9346 4.073 0.206
56.9551 4.000 0.204
56.9755 3.573 0.193
56.9960 3.844 0.200
57.0164 3.365 0.187
57.0369 3.302 0.185
57.0574 3.396 0.188
57.0778 3.177 0.182
57.0983 3.406 0.188
57.1188 2.927 0.175
57.1392 2.938 0.175
57.1597 3.198 0.183
57.1801 2.750 0.169
57.2006 2.781 0.170
57.2211 2.708 0.168
57.2415 2.885 0.173
57.2620 2.885 0.173
57.2825 3.260 0.184
57.3029 3.177 0.182
57.3234 3.240 0.184
57.3438 3.135 0.181
57.3643 3.146 0.181
57.3848 3.563 0.193
57.4052 3.552 0.192
57.4257 4.240 0.210
57.4462 5.500 0.239
57.4666 7.406 0.278
57.4871 8.625 0.300
57.5075 9.083 0.308
57.5280 7.688 0.283
57.5485 6.260 0.255
57.5689 4.448 0.215
57.5894 5.031 0.229
57.6099 5.281 0.235
57.6303 5.635 0.242
57.6508 6.792 0.266
57.6713 6.438 0.259
57.6917 5.010 0.228
57.7122 5.281 0.235
57.7326 4.656 0.220
57.7531 4.510 0.217
57.7736 4.250 0.210
57.7940 3.729 0.197
57.8145 3.708 0.197
57.8350 3.208 0.183
57.8554 3.698 0.196
57.8759 3.938 0.203
57.8963 4.115 0.207
57.9168 4.448 0.215
57.9373 4.375 0.213
57.9577 4.344 0.213
57.9782 4.500 0.217
57.9987 3.906 0.202
58.0191 4.104 0.207
58.0396 4.615 0.219
58.0600 3.865 0.201
58.0805 3.740 0.197
58.1010 3.938 0.203
58.1214 4.542 0.218
58.1419 4.760 0.223
58.1624 4.948 0.227
58.1828 4.896 0.226
58.2033 4.375 0.213
58.2237 4.240 0.210
58.2442 4.010 0.204
58.2647 4.125 0.207
58.2851 4.135 0.208
58.3056 4.427 0.215
58.3261 4.531 0.217
58.3465 4.323 0.212
58.3670 4.229 0.210
58.3874 4.219 0.210
58.4079 4.010 0.204
58.4284 4.146 0.208
58.4488 4.344 0.213
58.4693 4.667 0.220
58.4898 4.604 0.219
58.5102 5.094 0.230
58.5307 5.500 0.239
58.5512 5.531 0.240
58.5716 6.448 0.259
58.5921 8.271 0.294
58.6125 10.219 0.326
58.6330 13.979 0.382
58.6535 17.833 0.431
58.6739 17.469 0.427
58.6944 15.365 0.400
58.7149 12.125 0.355
58.7353 8.948 0.305
58.7558 8.021 0.289
58.7762 8.188 0.292
58.7967 9.906 0.321
58.8172 10.979 0.338
58.8376 10.500 0.331
58.8581 9.823 0.320
58.8786 7.208 0.274
58.8990 6.281 0.256
58.9195 4.865 0.225
58.9399 4.427 0.215
58.9604 4.635 0.220
58.9809 4.792 0.223
59.0013 4.521 0.217
59.0218 4.156 0.208
59.0423 4.146 0.208
59.0627 4.531 0.217
59.0832 3.844 0.200
59.1036 3.333 0.186
59.1241 3.719 0.197
59.1446 3.615 0.194
59.1650 3.792 0.199
59.1855 4.146 0.208
59.2060 3.781 0.198
59.2264 3.854 0.200
59.2469 3.625 0.194
59.2674 3.271 0.185
59.2878 3.427 0.189
59.3083 3.469 0.190
59.3287 3.323 0.186
59.3492 3.281 0.185
59.3697 3.833 0.200
59.3901 3.563 0.193
59.4106 4.250 0.210
59.4311 4.302 0.212
59.4515 5.990 0.250
59.4720 8.417 0.296
59.4924 8.479 0.297
59.5129 6.802 0.266
59.5334 4.552 0.218
59.5538 4.000 0.204
59.5743 3.781 0.198
59.5948 4.083 0.206
59.6152 5.063 0.230
59.6357 5.500 0.239
59.6561 5.823 0.246
59.6766 4.365 0.213
59.6971 4.083 0.206
59.7175 3.458 0.190
59.7380 3.188 0.182
59.7585 3.583 0.193
59.7789 3.958 0.203
59.7994 5.260 0.234
59.8198 6.219 0.255
59.8403 7.188 0.274
59.8608 6.240 0.255
59.8812 5.802 0.246
59.9017 4.990 0.228
59.9222 4.313 0.212
59.9426 4.271 0.211
59.9631 4.542 0.218
59.9835 4.979 0.228
60.0040 5.167 0.232
60.0245 5.063 0.230
60.0449 5.042 0.229
60.0654 5.052 0.229
60.0859 4.667 0.220
60.1063 4.510 0.217
60.1268 4.344 0.213
60.1473 3.667 0.195
60.1677 3.521 0.192
60.1882 3.167 0.182
60.2086 3.354 0.187
60.2291 3.375 0.188
60.2496 3.469 0.190
60.2700 3.750 0.198
60.2905 3.448 0.190
60.3110 3.521 0.192
60.3314 3.479 0.190
60.3519 3.521 0.192
60.3723 3.260 0.184
60.3928 3.240 0.184
60.4133 3.354 0.187
60.4337 2.969 0.176
60.4542 3.438 0.189
60.4747 3.479 0.190
60.4951 3.323 0.186
60.5156 3.615 0.194
60.5360 3.844 0.200
60.5565 4.198 0.209
60.5770 4.417 0.214
60.5974 4.563 0.218
60.6179 4.375 0.213
60.6384 4.792 0.223
60.6588 4.417 0.214
60.6793 3.833 0.200
60.6997 3.969 0.203
60.7202 4.229 0.210
60.7407 4.219 0.210
60.7611 3.833 0.200
60.7816 4.031 0.205
60.8021 4.167 0.208
60.8225 4.323 0.212
60.8430 3.990 0.204
60.8634 3.938 0.203
60.8839 3.448 0.190
60.9044 3.510 0.191
60.9248 3.677 0.196
60.9453 4.115 0.207
60.9658 4.333 0.212
60.9862 4.167 0.208
61.0067 3.688 0.196
61.0272 3.906 0.202
61.0476 3.854 0.200
61.0681 3.698 0.196
61.0885 3.719 0.197
61.1090 3.948 0.203
61.1295 4.302 0.212
61.1499 4.094 0.207
61.1704 4.698 0.221
61.1909 4.531 0.217
61.2113 4.656 0.220
61.2318 4.656 0.220
61.2522 5.229 0.233
61.2727 5.531 0.240
61.2932 6.396 0.258
61.3136 6.354 0.257
61.3341 5.906 0.248
61.3546 6.083 0.252
61.3750 5.542 0.240
61.3955 5.906 0.248
61.4159 5.250 0.234
61.4364 4.906 0.226
61.4569 4.813 0.224
61.4773 5.156 0.232
61.4978 4.927 0.227
61.5183 4.448 0.215
61.5387 4.000 0.204
61.5592 3.854 0.200
61.5796 3.740 0.197
61.6001 3.313 0.186
61.6206 3.323 0.186
61.6410 3.146 0.181
61.6615 3.010 0.177
61.6820 3.063 0.179
61.7024 2.667 0.167
61.7229 2.927 0.175
61.7433 2.542 0.163
61.7638 2.521 0.162
61.7843 2.948 0.175
61.8047 2.760 0.170
61.8252 2.313 0.155
61.8457 2.885 0.173
61.8661 2.635 0.166
61.8866 2.677 0.167
61.9071 2.885 0.173
61.9275 2.719 0.168
61.9480 3.010 0.177
61.9684 2.833 0.172
61.9889 3.104 0.180
62.0094 2.885 0.173
62.0298 2.948 0.175
62.0503 2.896 0.174
62.0708 2.750 0.169
62.0912 2.875 0.173
62.1117 3.042 0.178
62.1321 2.990 0.176
62.1526 3.146 0.181
62.1731 3.073 0.179
62.1935 3.458 0.190
62.2140 3.000 0.177
62.2345 3.281 0.185
62.2549 3.198 0.183
62.2754 2.823 0.171
62.2958 2.958 0.176
62.3163 2.813 0.171
62.3368 3.042 0.178
62.3572 3.115 0.180
62.3777 3.156 0.181
62.3982 3.427 0.189
62.4186 3.677 0.196
62.4391 3.135 0.181
62.4595 3.073 0.179
62.4800 2.865 0.173
62.5005 2.750 0.169
62.5209 2.677 0.167
62.5414 2.948 0.175
62.5619 2.656 0.166
62.5823 3.021 0.177
62.6028 2.990 0.176
62.6232 2.844 0.172
62.6437 2.802 0.171
62.6642 2.729 0.169
62.6846 2.542 0.163
62.7051 2.458 0.160
62.7256 2.281 0.154
62.7460 2.490 0.161
62.7665 2.448 0.160
62.7870 2.417 0.159
62.8074 2.427 0.159
62.8279 2.646 0.166
62.8483 2.458 0.160
62.8688 2.490 0.161
62.8893 2.510 0.162
62.9097 2.313 0.155
62.9302 2.260 0.153
62.9507 2.646 0.166
62.9711 2.396 0.158
62.9916 2.833 0.172
63.0120 2.781 0.170
63.0325 2.625 0.165
63.0530 2.813 0.171
63.0734 3.104 0.180
63.0939 3.292 0.185
63.1144 2.833 0.172
63.1348 3.104 0.180
63.1553 3.490 0.191
63.1757 3.885 0.201
63.1962 4.375 0.213
63.2167 4.417 0.214
63.2371 4.042 0.205
63.2576 3.708 0.197
63.2781 3.260 0.184
63.2985 3.177 0.182
63.3190 3.542 0.192
63.3394 3.802 0.199
63.3599 3.875 0.201
63.3804 3.896 0.201
63.4008 4.167 0.208
63.4213 4.198 0.209
63.4418 4.188 0.209
63.4622 4.271 0.211
63.4827 3.938 0.203
63.5032 3.469 0.190
63.5236 3.521 0.192
63.5441 3.260 0.184
63.5645 3.042 0.178
63.5850 3.135 0.181
63.6055 3.510 0.191
63.6259 3.417 0.189
63.6464 3.271 0.185
63.6669 3.146 0.181
63.6873 3.313 0.186
63.7078 2.958 0.176
63.7282 2.896 0.174
63.7487 2.927 0.175
63.7692 2.865 0.173
63.7896 2.844 0.172
63.8101 3.188 0.182
63.8306 3.188 0.182
63.8510 3.635 0.195
63.8715 3.177 0.182
63.8919 3.542 0.192
63.9124 3.406 0.188
63.9329 3.604 0.194
63.9533 3.813 0.199
63.9738 3.854 0.200
63.9943 4.198 0.209
64.0147 4.313 0.212
64.0352 4.229 0.210
64.0556 4.573 0.218
64.0761 4.667 0.220
64.0966 4.333 0.212
64.1170 4.552 0.218
64.1375 4.740 0.222
64.1580 4.563 0.218
64.1784 4.635 0.220
64.1989 4.677 0.221
64.2193 4.385 0.214
64.2398 4.479 0.216
64.2603 4.292 0.211
64.2807 4.000 0.204
64.3012 4.125 0.207
64.3217 4.031 0.205
64.3421 3.948 0.203
64.3626 3.667 0.195
64.3831 3.573 0.193
64.4035 3.688 0.196
64.4240 3.385 0.188
64.4444 3.365 0.187
64.4649 3.385 0.188
64.4854 3.385 0.188
64.5058 3.052 0.178
64.5263 2.854 0.172
64.5468 3.010 0.177
64.5672 3.000 0.177
64.5877 2.792 0.171
64.6081 3.188 0.182
64.6286 3.042 0.178
64.6491 2.792 0.171
64.6695 3.167 0.182
64.6900 3.635 0.195
64.7105 3.521 0.192
64.7309 3.365 0.187
64.7514 3.448 0.190
64.7718 3.354 0.187
64.7923 3.417 0.189
64.8128 3.604 0.194
64.8332 3.604 0.194
64.8537 3.927 0.202
64.8742 3.615 0.194
64.8946 3.719 0.197
64.9151 4.135 0.208
64.9355 4.083 0.206
64.9560 4.010 0.204
64.9765 4.302 0.212
64.9969 4.031 0.205
65.0174 4.719 0.222
65.0379 4.146 0.208
65.0583 3.635 0.195
65.0788 3.927 0.202
65.0992 3.625 0.194
65.1197 3.667 0.195
65.1402 3.635 0.195
65.1606 3.927 0.202
65.1811 3.844 0.200
65.2016 3.250 0.184
65.2220 3.677 0.196
65.2425 3.823 0.200
65.2630 3.406 0.188
65.2834 3.646 0.195
65.3039 3.365 0.187
65.3243 3.010 0.177
65.3448 2.521 0.162
65.3653 2.740 0.169
65.3857 2.854 0.172
65.4062 2.667 0.167
65.4267 2.854 0.172
65.4471 2.865 0.173
65.4676 2.563 0.163
65.4880 2.479 0.161
65.5085 2.281 0.154
65.5290 2.333 0.156
65.5494 2.323 0.156
65.5699 2.510 0.162
65.5904 2.417 0.159
65.6108 2.542 0.163
65.6313 2.583 0.164
65.6517 2.792 0.171
65.6722 2.583 0.164
65.6927 2.677 0.167
65.7131 2.708 0.168
65.7336 2.438 0.159
65.7541 2.406 0.158
65.7745 2.479 0.161
65.7950 2.438 0.159
65.8154 2.563 0.163
65.8359 2.344 0.156
65.8564 2.844 0.172
65.8768 2.688 0.167
65.8973 3.146 0.181
65.9178 3.594 0.193
65.9382 3.375 0.188
65.9587 3.167 0.182
65.9791 2.969 0.176
65.9996 2.781 0.170
66.0201 2.292 0.155
66.0405 2.604 0.165
66.0610 2.677 0.167
66.0815 3.177 0.182
66.1019 3.021 0.177
66.1224 3.000 0.177
66.1429 2.823 0.171
66.1633 2.813 0.171
66.1838 2.781 0.170
66.2042 2.427 0.159
66.2247 2.438 0.159
66.2452 2.458 0.160
66.2656 2.385 0.158
66.2861 2.333 0.156
66.3066 2.292 0.155
66.3270 2.365 0.157
66.3475 2.365 0.157
66.3679 2.281 0.154
66.3884 2.490 0.161
66.4089 2.063 0.147
66.4293 2.406 0.158
66.4498 2.115 0.148
66.4703 2.188 0.151
66.4907 2.302 0.155
66.5112 2.365 0.157
66.5316 2.438 0.159
66.5521 2.594 0.164
66.5726 2.542 0.163
66.5930 2.667 0.167
66.6135 2.125 0.149
66.6340 2.583 0.164
66.6544 2.427 0.159
66.6749 2.542 0.163
66.6953 2.365 0.157
66.7158 2.375 0.157
66.7363 2.917 0.174
66.7567 2.635 0.166
66.7772 2.885 0.173
66.7977 2.969 0.176
66.8181 3.479 0.190
66.8386 3.646 0.195
66.8590 3.729 0.197
66.8795 3.448 0.190
66.9000 3.875 0.201
66.9204 3.990 0.204
66.9409 3.375 0.188
66.9614 3.625 0.194
66.9818 3.563 0.193
67.0023 3.385 0.188
67.0228 3.302 0.185
67.0432 3.750 0.198
67.0637 3.875 0.201
67.0841 3.823 0.200
67.1046 3.844 0.200
67.1251 3.750 0.198
67.1455 3.698 0.196
67.1660 4.250 0.210
67.1865 3.719 0.197
67.2069 3.396 0.188
67.2274 3.396 0.188
67.2478 3.427 0.189
67.2683 3.458 0.190
67.2888 2.990 0.176
67.3092 3.313 0.186
67.3297 2.906 0.174
67.3502 3.333 0.186
67.3706 3.229 0.183
67.3911 3.052 0.178
67.4115 3.333 0.186
67.4320 3.219 0.183
67.4525 2.979 0.176
67.4729 3.146 0.181
67.4934 3.000 0.177
67.5139 3.063 0.179
67.5343 3.198 0.183
67.5548 3.104 0.180
67.5752 2.844 0.172
67.5957 3.396 0.188
67.6162 3.271 0.185
67.6366 3.406 0.188
67.6571 3.260 0.184
67.6776 3.000 0.177
67.6980 3.167 0.182
67.7185 3.510 0.191
67.7389 3.104 0.180
67.7594 3.385 0.188
67.7799 3.198 0.183
67.8003 3.521 0.192
67.8208 2.948 0.175
67.8413 3.292 0.185
67.8617 3.052 0.178
67.8822 3.365 0.187
67.9027 3.229 0.183
67.9231 3.115 0.180
67.9436 3.344 0.187
67.9640 3.156 0.181
67.9845 3.010 0.177
68.0050 2.833 0.172
68.0254 3.010 0.177
68.0459 3.021 0.177
68.0664 3.177 0.182
68.0868 3.448 0.190
68.1073 3.365 0.187
68.1277 3.198 0.183
68.1482 3.052 0.178
68.1687 2.802 0.171
68.1891 2.583 0.164
68.2096 3.125 0.180
68.2301 2.917 0.174
68.2505 2.667 0.167
68.2710 2.521 0.162
68.2914 2.927 0.175
68.3119 2.813 0.171
68.3324 2.896 0.174
68.3528 2.844 0.172
68.3733 2.792 0.171
68.3938 2.865 0.173
68.4142 2.531 0.162
68.4347 2.625 0.165
68.4551 2.375 0.157
68.4756 2.469 0.160
68.4961 2.771 0.170
68.5165 3.344 0.187
68.5370 2.771 0.170
68.5575 3.333 0.186
68.5779 3.354 0.187
68.5984 3.458 0.190
68.6189 3.177 0.182
68.6393 3.031 0.178
68.6598 2.698 0.168
68.6802 3.167 0.182
68.7007 2.990 0.176
68.7212 3.073 0.179
68.7416 2.896 0.174
68.7621 2.760 0.170
68.7826 2.917 0.174
68.8030 2.667 0.167
68.8235 2.698 0.168
68.8439 2.750 0.169
68.8644 2.604 0.165
68.8849 2.500 0.161
68.9053 2.500 0.161
68.9258 2.615 0.165
68.9463 2.708 0.168
68.9667 2.615 0.165
68.9872 2.677 0.167
69.0076 3.010 0.177
69.0281 3.010 0.177
69.0486 2.875 0.173
69.0690 3.177 0.182
69.0895 2.458 0.160
69.1100 2.552 0.163
69.1304 2.177 0.151
69.1509 2.750 0.169
69.1713 2.635 0.166
69.1918 2.740 0.169
69.2123 2.438 0.159
69.2327 2.823 0.171
69.2532 2.604 0.165
69.2737 2.656 0.166
69.2941 2.625 0.165
69.3146 2.771 0.170
69.3350 2.458 0.160
69.3555 2.531 0.162
69.3760 2.146 0.150
69.3964 2.229 0.152
69.4169 2.250 0.153
69.4374 2.344 0.156
69.4578 2.063 0.147
69.4783 2.438 0.159
69.4988 2.427 0.159
69.5192 2.083 0.147
69.5397 2.198 0.151
69.5601 2.115 0.148
69.5806 2.146 0.150
69.6011 2.188 0.151
69.6215 2.490 0.161
69.6420 2.063 0.147
69.6625 2.219 0.152
69.6829 2.229 0.152
69.7034 2.354 0.157
69.7238 2.813 0.171
69.7443 2.146 0.150
69.7648 1.990 0.144
69.7852 2.396 0.158
69.8057 2.188 0.151
69.8262 2.292 0.155
69.8466 2.521 0.162
69.8671 2.396 0.158
69.8875 2.406 0.158
69.9080 2.500 0.161
69.9285 2.510 0.162
69.9489 2.458 0.160
69.9694 2.438 0.159
69.9899 2.302 0.155
70.0103 2.458 0.160
70.0308 2.615 0.165
70.0512 2.625 0.165
70.0717 2.448 0.160
70.0922 2.667 0.167
70.1126 2.740 0.169
70.1331 3.010 0.177
70.1536 3.000 0.177
70.1740 3.125 0.180
70.1945 3.042 0.178
70.2149 3.198 0.183
70.2354 3.250 0.184
70.2559 2.844 0.172
70.2763 2.698 0.168
70.2968 2.865 0.173
70.3173 2.865 0.173
70.3377 2.646 0.166
70.3582 2.740 0.169
70.3787 2.792 0.171
70.3991 2.792 0.171
70.4196 2.729 0.169
70.4400 2.833 0.172
70.4605 2.958 0.176
70.4810 2.917 0.174
70.5014 3.385 0.188
70.5219 3.354 0.187
70.5424 3.594 0.193
70.5628 3.625 0.194
70.5833 2.958 0.176
70.6037 2.823 0.171
70.6242 2.938 0.175
70.6447 2.615 0.165
70.6651 3.083 0.179
70.6856 2.677 0.167
70.7061 2.802 0.171
70.7265 2.792 0.171
70.7470 3.042 0.178
70.7674 2.583 0.164
70.7879 2.635 0.166
70.8084 2.760 0.170
70.8288 2.708 0.168
70.8493 2.333 0.156
70.8698 2.583 0.164
70.8902 2.323 0.156
70.9107 2.427 0.159
70.9311 2.458 0.160
70.9516 2.448 0.160
70.9721 2.250 0.153
70.9925 2.490 0.161
71.0130 2.083 0.147
71.0335 2.417 0.159
71.0539 2.260 0.153
71.0744 2.229 0.152
71.0948 2.135 0.149
71.1153 2.354 0.157
71.1358 2.042 0.146
71.1562 2.333 0.156
71.1767 2.156 0.150
71.1972 2.063 0.147
71.2176 1.958 0.143
71.2381 2.271 0.154
71.2586 2.198 0.151
71.2790 1.948 0.142
71.2995 2.146 0.150
71.3199 2.510 0.162
71.3404 2.156 0.150
71.3609 2.385 0.158
71.3813 2.531 0.162
71.4018 2.563 0.163
71.4223 2.490 0.161
71.4427 2.396 0.158
71.4632 2.552 0.163
71.4836 2.563 0.163
71.5041 2.635 0.166
71.5246 2.521 0.162
71.5450 2.448 0.160
71.5655 2.677 0.167
71.5860 2.604 0.165
71.6064 2.844 0.172
71.6269 2.906 0.174
71.6473 3.323 0.186
71.6678 2.938 0.175
71.6883 3.042 0.178
71.7087 3.094 0.180
71.7292 3.271 0.185
71.7497 2.792 0.171
71.7701 3.240 0.184
71.7906 3.667 0.195
71.8110 3.500 0.191
71.8315 3.313 0.186
71.8520 3.708 0.197
71.8724 3.604 0.194
71.8929 3.865 0.201
71.9134 4.292 0.211
71.9338 3.750 0.198
71.9543 3.969 0.203
71.9747 4.385 0.214
71.9952 4.115 0.207
72.0157 4.698 0.221
72.0361 4.021 0.205
72.0566 4.458 0.216
72.0771 4.938 0.227
72.0975 4.552 0.218
72.1180 5.406 0.237
72.1385 4.885 0.226
72.1589 4.823 0.224
72.1794 5.229 0.233
72.1998 4.698 0.221
72.2203 4.271 0.211
72.2408 4.635 0.220
72.2612 4.302 0.212
72.2817 4.667 0.220
72.3022 4.542 0.218
72.3226 4.010 0.204
72.3431 4.625 0.219
72.3635 4.438 0.215
72.3840 4.198 0.209
72.4045 3.781 0.198
72.4249 3.604 0.194
72.4454 3.417 0.189
72.4659 3.427 0.189
72.4863 3.135 0.181
72.5068 3.521 0.192
72.5272 2.677 0.167
72.5477 2.990 0.176
72.5682 2.813 0.171
72.5886 2.865 0.173
72.6091 2.510 0.162
72.6296 2.542 0.163
72.6500 2.469 0.160
72.6705 2.479 0.161
72.6909 2.531 0.162
72.7114 2.479 0.161
72.7319 2.490 0.161
72.7523 2.438 0.159
72.7728 2.125 0.149
72.7933 2.021 0.145
72.8137 1.990 0.144
72.8342 2.385 0.158
72.8547 2.385 0.158
72.8751 2.479 0.161
72.8956 2.458 0.160
72.9160 2.313 0.155
72.9365 2.115 0.148
72.9570 2.365 0.157
72.9774 2.115 0.148
72.9979 2.448 0.160
73.0184 2.271 0.154
73.0388 2.406 0.158
73.0593 2.250 0.153
73.0797 2.240 0.153
73.1002 2.313 0.155
73.1207 2.156 0.150
73.1411 2.188 0.151
73.1616 2.396 0.158
73.1821 2.365 0.157
73.2025 2.354 0.157
73.2230 2.333 0.156
73.2434 2.510 0.162
73.2639 2.281 0.154
73.2844 2.750 0.169
73.3048 2.552 0.163
73.3253 2.240 0.153
73.3458 2.406 0.158
73.3662 2.531 0.162
73.3867 2.604 0.165
73.4071 2.521 0.162
73.4276 2.854 0.172
73.4481 3.031 0.178
73.4685 2.781 0.170
73.4890 2.531 0.162
73.5095 2.656 0.166
73.5299 2.344 0.156
73.5504 2.000 0.144
73.5708 2.000 0.144
73.5913 2.031 0.145
73.6118 2.063 0.147
73.6322 2.323 0.156
73.6527 2.479 0.161
73.6732 2.490 0.161
73.6936 2.448 0.160
73.7141 2.365 0.157
73.7346 2.167 0.150
73.7550 1.990 0.144
73.7755 2.208 0.152
73.7959 2.135 0.149
73.8164 2.146 0.150
73.8369 1.938 0.142
73.8573 2.063 0.147
73.8778 2.156 0.150
73.8983 2.240 0.153
73.9187 2.094 0.148
73.9392 2.250 0.153
73.9596 2.365 0.157
73.9801 2.458 0.160
74.0006 2.625 0.165
74.0210 2.698 0.168
74.0415 2.604 0.165
74.0620 2.208 0.152
74.0824 2.583 0.164
74.1029 2.146 0.150
74.1233 2.469 0.160
74.1438 2.323 0.156
74.1643 2.792 0.171
74.1847 2.448 0.160
74.2052 2.365 0.157
74.2257 2.833 0.172
74.2461 2.740 0.169
74.2666 2.500 0.161
74.2870 2.365 0.157
74.3075 2.354 0.157
74.3280 2.198 0.151
74.3484 2.188 0.151
74.3689 2.021 0.145
74.3894 2.094 0.148
74.4098 2.052 0.146
74.4303 2.302 0.155
74.4507 1.948 0.142
74.4712 2.115 0.148
74.4917 2.031 0.145
74.5121 1.917 0.141
74.5326 2.063 0.147
74.5531 2.323 0.156
74.5735 2.188 0.151
74.5940 2.531 0.162
74.6145 2.281 0.154
74.6349 2.531 0.162
74.6554 1.927 0.142
74.6758 2.156 0.150
74.6963 1.896 0.141
74.7168 1.927 0.142
74.7372 2.354 0.157
74.7577 2.125 0.149
74.7782 2.354 0.157
74.7986 2.177 0.151
74.8191 2.365 0.157
74.8395 2.208 0.152
74.8600 2.302 0.155
74.8805 2.323 0.156
74.9009 2.375 0.157
74.9214 2.198 0.151
74.9419 2.281 0.154
74.9623 2.250 0.153
74.9828 2.271 0.154
75.0032 2.052 0.146
75.0237 2.615 0.165
75.0442 2.229 0.152
75.0646 2.240 0.153
75.0851 2.021 0.145
75.1056 2.510 0.162
75.1260 2.438 0.159
75.1465 2.281 0.154
75.1669 1.885 0.140
75.1874 2.125 0.149
75.2079 1.969 0.143
75.2283 1.885 0.140
75.2488 2.219 0.152
75.2693 2.177 0.151
75.2897 2.208 0.152
75.3102 2.260 0.153
75.3306 2.177 0.151
75.3511 2.229 0.152
75.3716 2.083 0.147
75.3920 2.010 0.145
75.4125 2.156 0.150
75.4330 2.083 0.147
75.4534 2.125 0.149
75.4739 1.844 0.139
75.4944 1.948 0.142
75.5148 2.010 0.145
75.5353 1.844 0.139
75.5557 1.823 0.138
75.5762 2.125 0.149
75.5967 2.115 0.148
75.6171 2.219 0.152
75.6376 2.354 0.157
75.6581 2.302 0.155
75.6785 2.188 0.151
75.6990 2.063 0.147
75.7194 2.313 0.155
75.7399 2.188 0.151
75.7604 2.250 0.153
75.7808 2.354 0.157
75.8013 2.563 0.163
75.8218 2.510 0.162
75.8422 2.219 0.152
75.8627 2.708 0.168
75.8831 2.740 0.169
75.9036 2.063 0.147
75.9241 2.292 0.155
75.9445 2.167 0.150
75.9650 2.073 0.147
75.9855 2.156 0.150
76.0059 2.479 0.161
76.0264 1.990 0.144
76.0468 2.302 0.155
76.0673 2.344 0.156
76.0878 2.260 0.153
76.1082 2.365 0.157
76.1287 2.188 0.151
76.1492 2.240 0.153
76.1696 1.938 0.142
76.1901 2.073 0.147
76.2105 2.000 0.144
76.2310 2.510 0.162
76.2515 2.510 0.162
76.2719 2.073 0.147
76.2924 2.094 0.148
76.3129 2.052 0.146
76.3333 2.115 0.148
76.3538 1.896 0.141
76.3743 2.031 0.145
76.3947 1.979 0.144
76.4152 1.823 0.138
76.4356 2.260 0.153
76.4561 2.292 0.155
76.4766 2.208 0.152
76.4970 2.438 0.159
76.5175 2.271 0.154
76.5380 2.135 0.149
76.5584 1.844 0.139
76.5789 2.010 0.145
76.5993 2.031 0.145
76.6198 1.969 0.143
76.6403 2.063 0.147
76.6607 1.938 0.142
76.6812 1.906 0.141
76.7017 2.208 0.152
76.7221 1.885 0.140
76.7426 2.042 0.146
76.7630 2.073 0.147
76.7835 1.896 0.141
76.8040 1.979 0.144
76.8244 1.813 0.137
76.8449 1.875 0.140
76.8654 1.833 0.138
76.8858 2.208 0.152
76.9063 1.927 0.142
76.9267 1.917 0.141
76.9472 1.885 0.140
76.9677 1.979 0.144
76.9881 1.948 0.142
77.0086 1.927 0.142
77.0291 1.917 0.141
77.0495 2.073 0.147
77.0700 1.979 0.144
77.0905 1.906 0.141
77.1109 2.052 0.146
77.1314 2.104 0.148
77.1518 1.917 0.141
77.1723 2.010 0.145
77.1928 1.938 0.142
77.2132 1.865 0.139
77.2337 2.115 0.148
77.2542 1.938 0.142
77.2746 1.979 0.144
77.2951 1.948 0.142
77.3155 1.896 0.141
77.3360 1.813 0.137
77.3565 1.875 0.140
77.3769 2.000 0.144
77.3974 1.906 0.141
77.4179 1.760 0.135
77.4383 2.094 0.148
77.4588 1.854 0.139
77.4792 1.656 0.131
77.4997 2.010 0.145
77.5202 1.896 0.141
77.5406 1.958 0.143
77.5611 1.854 0.139
77.5816 1.906 0.141
77.6020 1.823 0.138
77.6225 1.990 0.144
77.6429 1.740 0.135
77.6634 1.802 0.137
77.6839 1.948 0.142
77.7043 1.927 0.142
77.7248 1.990 0.144
77.7453 2.021 0.145
77.7657 2.021 0.145
77.7862 2.104 0.148
77.8066 2.417 0.159
77.8271 2.406 0.158
77.8476 2.563 0.163
77.8680 2.427 0.159
77.8885 2.688 0.167
77.9090 2.354 0.157
77.9294 2.604 0.165
77.9499 2.500 0.161
77.9704 2.292 0.155
77.9908 2.490 0.161
78.0113 2.500 0.161
78.0317 2.177 0.151
78.0522 2.271 0.154
78.0727 2.188 0.151
78.0931 2.260 0.153
78.1136 2.260 0.153
78.1341 2.281 0.154
78.1545 1.885 0.140
78.1750 2.271 0.154
78.1954 1.906 0.141
78.2159 2.010 0.145
78.2364 1.885 0.140
78.2568 2.135 0.149
78.2773 2.167 0.150
78.2978 2.375 0.157
78.3182 2.104 0.148
78.3387 2.188 0.151
78.3591 2.490 0.161
78.3796 2.542 0.163
78.4001 2.604 0.165
78.4205 2.552 0.163
78.4410 2.563 0.163
78.4615 2.021 0.145
78.4819 2.479 0.161
78.5024 2.385 0.158
78.5228 2.177 0.151
78.5433 2.156 0.150
78.5638 2.281 0.154
78.5842 2.458 0.160
78.6047 2.313 0.155
78.6252 2.365 0.157
78.6456 2.281 0.154
78.6661 2.260 0.153
78.6865 2.156 0.150
78.7070 1.875 0.140
78.7275 2.104 0.148
78.7479 1.958 0.143
78.7684 2.042 0.146
78.7889 1.990 0.144
78.8093 1.865 0.139
78.8298 1.865 0.139
78.8503 2.000 0.144
78.8707 1.760 0.135
78.8912 1.948 0.142
78.9116 1.760 0.135
78.9321 2.396 0.158
78.9526 1.917 0.141
78.9730 1.896 0.141
78.9935 2.010 0.145
79.0140 1.771 0.136
79.0344 2.240 0.153
79.0549 2.000 0.144
79.0753 2.135 0.149
79.0958 2.219 0.152
79.1163 2.250 0.153
79.1367 1.969 0.143
79.1572 2.135 0.149
79.1777 1.969 0.143
79.1981 2.021 0.145
79.2186 1.823 0.138
79.2390 2.125 0.149
79.2595 2.063 0.147
79.2800 2.375 0.157
79.3004 2.313 0.155
79.3209 2.271 0.154
79.3414 2.354 0.157
79.3618 1.927 0.142
79.3823 2.021 0.145
79.4027 2.042 0.146
79.4232 2.208 0.152
79.4437 2.042 0.146
79.4641 2.177 0.151
79.4846 2.031 0.145
79.5051 2.323 0.156
79.5255 2.177 0.151
79.5460 2.177 0.151
79.5664 2.135 0.149
79.5869 2.271 0.154
79.6074 1.917 0.141
79.6278 2.302 0.155
79.6483 2.302 0.155
79.6688 2.115 0.148
79.6892 2.010 0.145
79.7097 2.302 0.155
79.7302 1.938 0.142
79.7506 2.052 0.146
79.7711 2.281 0.154
79.7915 2.396 0.158
79.8120 2.292 0.155
79.8325 2.177 0.151
79.8529 2.146 0.150
79.8734 2.104 0.148
79.8939 2.042 0.146
79.9143 1.802 0.137
79.9348 1.927 0.142
79.9552 2.042 0.146
79.9757 1.969 0.143
79.9962 2.375 0.157
