'Id: "" Comment: "" Operator: "Lab Manager" Anode: "Cu" Scantype: "Locked Coupled" TimePerStep: "96" X: "0" Y: "0" Z: "0" 
5.0000 25.729 0.518
5.0205 26.875 0.529
5.0409 26.594 0.526
5.0614 25.938 0.520
5.0819 25.979 0.520
5.1023 25.615 0.517
5.1228 24.729 0.508
5.1432 24.740 0.508
5.1637 25.542 0.516
5.1842 25.063 0.511
5.2046 25.510 0.515
5.2251 25.188 0.512
5.2456 25.583 0.516
5.2660 25.375 0.514
5.2865 24.750 0.508
5.3069 25.531 0.516
5.3274 24.813 0.508
5.3479 24.635 0.507
5.3683 24.896 0.509
5.3888 24.458 0.505
5.4093 24.125 0.501
5.4297 25.115 0.511
5.4502 24.583 0.506
5.4706 23.510 0.495
5.4911 24.156 0.502
5.5116 23.875 0.499
5.5320 24.271 0.503
5.5525 23.552 0.495
5.5730 24.385 0.504
5.5934 24.021 0.500
5.6139 23.063 0.490
5.6343 23.969 0.500
5.6548 23.417 0.494
5.6753 24.344 0.504
5.6957 23.917 0.499
5.7162 22.865 0.488
5.7367 23.521 0.495
5.7571 23.938 0.499
5.7776 23.302 0.493
5.7980 22.740 0.487
5.8185 22.458 0.484
5.8390 23.844 0.498
5.8594 23.125 0.491
5.8799 23.490 0.495
5.9004 23.490 0.495
5.9208 23.135 0.491
5.9413 23.281 0.492
5.9618 22.115 0.480
5.9822 23.385 0.494
6.0027 23.094 0.490
6.0231 22.156 0.480
6.0436 23.271 0.492
6.0641 22.354 0.483
6.0845 22.354 0.483
6.1050 23.260 0.492
6.1255 22.979 0.489
6.1459 23.688 0.497
6.1664 23.094 0.490
6.1868 22.688 0.486
6.2073 23.229 0.492
6.2278 22.813 0.487
6.2482 22.698 0.486
6.2687 22.167 0.481
6.2892 22.354 0.483
6.3096 22.094 0.480
6.3301 22.979 0.489
6.3505 22.365 0.483
6.3710 22.542 0.485
6.3915 22.698 0.486
6.4119 23.396 0.494
6.4324 23.885 0.499
6.4529 23.302 0.493
6.4733 23.708 0.497
6.4938 23.469 0.494
6.5142 24.281 0.503
6.5347 24.760 0.508
6.5552 24.031 0.500
6.5756 23.802 0.498
6.5961 25.177 0.512
6.6166 26.708 0.527
6.6370 28.635 0.546
6.6575 32.583 0.583
6.6779 40.198 0.647
6.6984 46.969 0.699
6.7189 46.448 0.696
6.7393 35.906 0.612
6.7598 28.833 0.548
6.7803 26.010 0.521
6.8007 25.354 0.514
6.8212 25.052 0.511
6.8417 24.760 0.508
6.8621 24.229 0.502
6.8826 23.927 0.499
6.9030 23.000 0.489
6.9235 23.542 0.495
6.9440 23.917 0.499
6.9644 23.135 0.491
6.9849 22.865 0.488
7.0054 23.219 0.492
7.0258 23.010 0.490
7.0463 22.698 0.486
7.0667 22.990 0.489
7.0872 22.948 0.489
7.1077 22.500 0.484
7.1281 22.615 0.485
7.1486 22.698 0.486
7.1691 23.510 0.495
7.1895 21.833 0.477
7.2100 23.427 0.494
7.2304 23.083 0.490
7.2509 22.563 0.485
7.2714 22.510 0.484
7.2918 21.979 0.478
7.3123 22.583 0.485
7.3328 22.188 0.481
7.3532 22.771 0.487
7.3737 22.563 0.485
7.3941 22.573 0.485
7.4146 22.396 0.483
7.4351 22.563 0.485
7.4555 22.375 0.483
7.4760 22.875 0.488
7.4965 22.156 0.480
7.5169 23.260 0.492
7.5374 22.271 0.482
7.5579 24.271 0.503
7.5783 22.969 0.489
7.5988 22.844 0.488
7.6192 22.635 0.486
7.6397 23.646 0.496
7.6602 22.354 0.483
7.6806 22.635 0.486
7.7011 23.302 0.493
7.7216 22.792 0.487
7.7420 23.656 0.496
7.7625 22.854 0.488
7.7829 23.281 0.492
7.8034 23.354 0.493
7.8239 23.563 0.495
7.8443 22.604 0.485
7.8648 23.656 0.496
7.8853 22.365 0.483
7.9057 23.115 0.491
7.9262 22.760 0.487
7.9466 23.000 0.489
7.9671 23.750 0.497
7.9876 23.052 0.490
8.0080 24.063 0.501
8.0285 23.073 0.490
8.0490 23.083 0.490
8.0694 23.260 0.492
8.0899 22.625 0.485
8.1103 23.271 0.492
8.1308 23.792 0.498
8.1513 24.333 0.503
8.1717 24.521 0.505
8.1922 23.708 0.497
8.2127 24.177 0.502
8.2331 23.885 0.499
8.2536 24.500 0.505
8.2740 23.490 0.495
8.2945 24.250 0.503
8.3150 24.365 0.504
8.3354 25.896 0.519
8.3559 25.906 0.519
8.3764 26.250 0.523
8.3968 26.719 0.528
8.4173 26.344 0.524
8.4378 24.896 0.509
8.4582 25.198 0.512
8.4787 25.552 0.516
8.4991 24.990 0.510
8.5196 25.333 0.514
8.5401 25.052 0.511
8.5605 24.688 0.507
8.5810 25.250 0.513
8.6015 24.948 0.510
8.6219 26.479 0.525
8.6424 25.229 0.513
8.6628 26.885 0.529
8.6833 27.146 0.532
8.7038 26.563 0.526
8.7242 28.385 0.544
8.7447 27.479 0.535
8.7652 28.594 0.546
8.7856 29.177 0.551
8.8061 30.948 0.568
8.8265 30.917 0.567
8.8470 31.427 0.572
8.8675 34.083 0.596
8.8879 34.052 0.596
8.9084 36.760 0.619
8.9289 42.635 0.666
8.9493 47.438 0.703
8.9698 51.417 0.732
8.9902 58.927 0.783
9.0107 65.031 0.823
9.0312 70.719 0.858
9.0516 79.427 0.910
9.0721 85.781 0.945
9.0926 96.927 1.005
9.1130 108.781 1.064
9.1335 122.229 1.128
9.1539 146.167 1.234
9.1744 188.885 1.403
9.1949 262.979 1.655
9.2153 396.083 2.031
9.2358 635.427 2.573
9.2563 1020.135 3.260
9.2767 1530.531 3.993
9.2972 1818.583 4.352
9.3177 1464.063 3.905
9.3381 888.948 3.043
9.3586 539.292 2.370
9.3790 403.917 2.051
9.3995 356.010 1.926
9.4200 343.625 1.892
9.4404 336.490 1.872
9.4609 340.156 1.882
9.4814 346.031 1.899
9.5018 352.531 1.916
9.5223 360.469 1.938
9.5427 367.479 1.957
9.5632 376.021 1.979
9.5837 383.302 1.998
9.6041 391.750 2.020
9.6246 401.688 2.046
9.6451 413.885 2.076
9.6655 418.292 2.087
9.6860 424.333 2.102
9.7064 432.958 2.124
9.7269 440.135 2.141
9.7474 455.125 2.177
9.7678 477.031 2.229
9.7883 521.594 2.331
9.8088 587.625 2.474
9.8292 720.854 2.740
9.8497 949.219 3.144
9.8701 1307.969 3.691
9.8906 1758.958 4.280
9.9111 1907.635 4.458
9.9315 1270.896 3.638
9.9520 607.823 2.516
9.9725 287.354 1.730
9.9929 193.260 1.419
10.0134 155.844 1.274
10.0338 137.000 1.195
10.0543 124.021 1.137
10.0748 110.490 1.073
10.0952 103.500 1.038
10.1157 97.167 1.006
10.1362 86.635 0.950
10.1566 77.542 0.899
10.1771 69.646 0.852
10.1976 61.417 0.800
10.2180 59.010 0.784
10.2385 56.198 0.765
10.2589 53.219 0.745
10.2794 51.927 0.735
10.2999 52.115 0.737
10.3203 48.781 0.713
10.3408 47.542 0.704
10.3613 47.156 0.701
10.3817 45.688 0.690
10.4022 44.760 0.683
10.4226 45.021 0.685
10.4431 42.948 0.669
10.4636 41.865 0.660
10.4840 41.594 0.658
10.5045 41.813 0.660
10.5250 40.740 0.651
10.5454 40.406 0.649
10.5659 39.208 0.639
10.5863 38.979 0.637
10.6068 38.396 0.632
10.6273 38.875 0.636
10.6477 37.563 0.626
10.6682 37.990 0.629
10.6887 37.427 0.624
10.7091 36.167 0.614
10.7296 34.917 0.603
10.7500 35.625 0.609
10.7705 36.292 0.615
10.7910 34.177 0.597
10.8114 33.760 0.593
10.8319 33.823 0.594
10.8524 31.979 0.577
10.8728 33.323 0.589
10.8933 33.760 0.593
10.9137 33.313 0.589
10.9342 33.396 0.590
10.9547 34.375 0.598
10.9751 33.604 0.592
10.9956 33.104 0.587
11.0161 31.635 0.574
11.0365 30.063 0.560
11.0570 29.177 0.551
11.0775 28.531 0.545
11.0979 28.573 0.546
11.1184 27.219 0.532
11.1388 26.854 0.529
11.1593 26.542 0.526
11.1798 26.323 0.524
11.2002 26.656 0.527
11.2207 26.354 0.524
11.2412 26.094 0.521
11.2616 24.625 0.506
11.2821 24.896 0.509
11.3025 23.927 0.499
11.3230 25.219 0.513
11.3435 24.604 0.506
11.3639 23.531 0.495
11.3844 24.219 0.502
11.4049 23.198 0.492
11.4253 22.896 0.488
11.4458 22.354 0.483
11.4662 22.844 0.488
11.4867 22.594 0.485
11.5072 23.240 0.492
11.5276 21.729 0.476
11.5481 22.135 0.480
11.5686 22.625 0.485
11.5890 22.229 0.481
11.6095 21.792 0.476
11.6299 21.510 0.473
11.6504 21.510 0.473
11.6709 21.990 0.479
11.6913 21.260 0.471
11.7118 20.667 0.464
11.7323 21.896 0.478
11.7527 21.094 0.469
11.7732 19.875 0.455
11.7937 20.604 0.463
11.8141 20.448 0.462
11.8346 20.052 0.457
11.8550 20.792 0.465
11.8755 18.948 0.444
11.8960 19.646 0.452
11.9164 18.781 0.442
11.9369 19.333 0.449
11.9574 19.229 0.448
11.9778 18.167 0.435
11.9983 19.167 0.447
12.0187 17.635 0.429
12.0392 17.740 0.430
12.0597 18.281 0.436
12.0801 17.083 0.422
12.1006 17.938 0.432
12.1211 17.458 0.426
12.1415 17.823 0.431
12.1620 17.490 0.427
12.1824 17.427 0.426
12.2029 16.729 0.417
12.2234 16.823 0.419
12.2438 17.417 0.426
12.2643 16.177 0.411
12.2848 16.854 0.419
12.3052 16.615 0.416
12.3257 15.792 0.406
12.3461 15.740 0.405
12.3666 16.052 0.409
12.3871 16.542 0.415
12.4075 15.604 0.403
12.4280 14.958 0.395
12.4485 15.771 0.405
12.4689 15.427 0.401
12.4894 15.969 0.408
12.5098 15.594 0.403
12.5303 14.542 0.389
12.5508 15.708 0.405
12.5712 15.292 0.399
12.5917 15.031 0.396
12.6122 14.771 0.392
12.6326 15.031 0.396
12.6531 15.135 0.397
12.6736 14.938 0.394
12.6940 14.521 0.389
12.7145 14.490 0.389
12.7349 14.063 0.383
12.7554 13.719 0.378
12.7759 13.510 0.375
12.7963 13.823 0.379
12.8168 13.417 0.374
12.8373 13.729 0.378
12.8577 13.656 0.377
12.8782 12.729 0.364
12.8986 13.198 0.371
12.9191 13.281 0.372
12.9396 13.385 0.373
12.9600 12.979 0.368
12.9805 12.875 0.366
13.0010 13.479 0.375
13.0214 13.115 0.370
13.0419 13.698 0.378
13.0623 12.927 0.367
13.0828 13.208 0.371
13.1033 12.729 0.364
13.1237 12.885 0.366
13.1442 12.990 0.368
13.1647 12.719 0.364
13.1851 13.542 0.376
13.2056 13.198 0.371
13.2260 12.771 0.365
13.2465 13.281 0.372
13.2670 12.760 0.365
13.2874 13.490 0.375
13.3079 13.302 0.372
13.3284 14.417 0.388
13.3488 14.583 0.390
13.3693 15.719 0.405
13.3897 16.844 0.419
13.4102 15.115 0.397
13.4307 14.656 0.391
13.4511 13.677 0.377
13.4716 11.240 0.342
13.4921 12.333 0.358
13.5125 11.948 0.353
13.5330 11.604 0.348
13.5535 11.667 0.349
13.5739 11.615 0.348
13.5944 11.438 0.345
13.6148 11.406 0.345
13.6353 12.052 0.354
13.6558 10.854 0.336
13.6762 11.333 0.344
13.6967 11.646 0.348
13.7172 11.323 0.343
13.7376 11.188 0.341
13.7581 11.354 0.344
13.7785 11.542 0.347
13.7990 12.177 0.356
13.8195 11.344 0.344
13.8399 11.292 0.343
13.8604 11.000 0.339
13.8809 10.958 0.338
13.9013 10.979 0.338
13.9218 10.302 0.328
13.9422 10.594 0.332
13.9627 10.479 0.330
13.9832 11.125 0.340
14.0036 10.208 0.326
14.0241 10.906 0.337
14.0446 10.677 0.333
14.0650 11.135 0.341
14.0855 10.490 0.331
14.1059 10.271 0.327
14.1264 10.583 0.332
14.1469 11.344 0.344
14.1673 10.781 0.335
14.1878 10.063 0.324
14.2083 10.000 0.323
14.2287 10.271 0.327
14.2492 10.729 0.334
14.2696 10.063 0.324
14.2901 10.219 0.326
14.3106 11.063 0.339
14.3310 10.240 0.327
14.3515 9.365 0.312
14.3720 10.885 0.337
14.3924 9.938 0.322
14.4129 9.969 0.322
14.4334 9.646 0.317
14.4538 10.229 0.326
14.4743 10.490 0.331
14.4947 9.844 0.320
14.5152 9.958 0.322
14.5357 9.979 0.322
14.5561 10.490 0.331
14.5766 10.021 0.323
14.5971 10.344 0.328
14.6175 9.729 0.318
14.6380 9.667 0.317
14.6584 9.958 0.322
14.6789 10.500 0.331
14.6994 10.677 0.333
14.7198 10.146 0.325
14.7403 10.000 0.323
14.7608 10.010 0.323
14.7812 9.948 0.322
14.8017 9.302 0.311
14.8221 9.865 0.321
14.8426 9.750 0.319
14.8631 10.073 0.324
14.8835 10.063 0.324
14.9040 9.917 0.321
14.9245 9.927 0.322
14.9449 9.760 0.319
14.9654 9.156 0.309
14.9858 9.052 0.307
15.0063 9.594 0.316
15.0268 10.219 0.326
15.0472 9.792 0.319
15.0677 9.406 0.313
15.0882 10.063 0.324
15.1086 9.583 0.316
15.1291 9.292 0.311
15.1495 9.333 0.312
15.1700 9.240 0.310
15.1905 9.354 0.312
15.2109 9.521 0.315
15.2314 9.229 0.310
15.2519 9.531 0.315
15.2723 10.146 0.325
15.2928 9.271 0.311
15.3133 9.219 0.310
15.3337 9.260 0.311
15.3542 9.354 0.312
15.3746 9.260 0.311
15.3951 9.188 0.309
15.4156 9.677 0.317
15.4360 10.073 0.324
15.4565 9.646 0.317
15.4770 9.365 0.312
15.4974 9.302 0.311
15.5179 9.167 0.309
15.5383 9.677 0.317
15.5588 8.573 0.299
15.5793 9.104 0.308
15.5997 8.729 0.302
15.6202 9.302 0.311
15.6407 9.646 0.317
15.6611 9.375 0.313
15.6816 9.458 0.314
15.7020 9.490 0.314
15.7225 10.198 0.326
15.7430 10.229 0.326
15.7634 10.156 0.325
15.7839 10.448 0.330
15.8044 10.438 0.330
15.8248 10.667 0.333
15.8453 9.885 0.321
15.8657 9.229 0.310
15.8862 9.271 0.311
15.9067 9.167 0.309
15.9271 9.177 0.309
15.9476 9.719 0.318
15.9681 9.844 0.320
15.9885 9.271 0.311
16.0090 9.365 0.312
16.0295 9.167 0.309
16.0499 9.031 0.307
16.0704 8.729 0.302
16.0908 9.719 0.318
16.1113 9.500 0.315
16.1318 9.292 0.311
16.1522 9.219 0.310
16.1727 9.042 0.307
16.1932 9.260 0.311
16.2136 9.167 0.309
16.2341 8.938 0.305
16.2545 9.010 0.306
16.2750 9.656 0.317
16.2955 9.240 0.310
16.3159 8.708 0.301
16.3364 10.167 0.325
16.3569 9.917 0.321
16.3773 9.604 0.316
16.3978 9.552 0.315
16.4182 10.094 0.324
16.4387 9.333 0.312
16.4592 9.500 0.315
16.4796 9.250 0.310
16.5001 9.771 0.319
16.5206 9.354 0.312
16.5410 9.417 0.313
16.5615 9.271 0.311
16.5819 9.438 0.314
16.6024 9.802 0.320
16.6229 9.635 0.317
16.6433 9.115 0.308
16.6638 9.156 0.309
16.6843 10.240 0.327
16.7047 10.104 0.324
16.7252 10.188 0.326
16.7456 10.219 0.326
16.7661 10.167 0.325
16.7866 10.885 0.337
16.8070 11.063 0.339
16.8275 10.729 0.334
16.8480 9.750 0.319
16.8684 10.521 0.331
16.8889 10.823 0.336
16.9094 10.073 0.324
16.9298 10.281 0.327
16.9503 10.448 0.330
16.9707 10.688 0.334
16.9912 10.083 0.324
17.0117 10.385 0.329
17.0321 10.542 0.331
17.0526 10.875 0.337
17.0731 11.531 0.347
17.0935 11.167 0.341
17.1140 10.573 0.332
17.1344 11.063 0.339
17.1549 11.167 0.341
17.1754 11.104 0.340
17.1958 10.677 0.333
17.2163 11.219 0.342
17.2368 11.594 0.348
17.2572 11.656 0.348
17.2777 11.510 0.346
17.2981 11.833 0.351
17.3186 12.313 0.358
17.3391 12.333 0.358
17.3595 11.698 0.349
17.3800 12.177 0.356
17.4005 12.073 0.355
17.4209 12.792 0.365
17.4414 12.990 0.368
17.4618 13.594 0.376
17.4823 12.979 0.368
17.5028 13.385 0.373
17.5232 13.146 0.370
17.5437 13.198 0.371
17.5642 13.698 0.378
17.5846 14.604 0.390
17.6051 15.740 0.405
17.6255 15.354 0.400
17.6460 15.813 0.406
17.6665 16.135 0.410
17.6869 16.333 0.412
17.7074 16.510 0.415
17.7279 16.302 0.412
17.7483 17.729 0.430
17.7688 18.385 0.438
17.7893 17.896 0.432
17.8097 18.615 0.440
17.8302 19.854 0.455
17.8506 20.354 0.460
17.8711 20.865 0.466
17.8916 21.781 0.476
17.9120 23.010 0.490
17.9325 24.354 0.504
17.9530 24.854 0.509
17.9734 25.333 0.514
17.9939 27.625 0.536
18.0143 28.385 0.544
18.0348 29.844 0.558
18.0553 32.719 0.584
18.0757 34.563 0.600
18.0962 36.813 0.619
18.1167 36.344 0.615
18.1371 35.448 0.608
18.1576 36.177 0.614
18.1780 36.885 0.620
18.1985 37.615 0.626
18.2190 37.615 0.626
18.2394 38.896 0.637
18.2599 41.156 0.655
18.2804 42.635 0.666
18.3008 45.688 0.690
18.3213 46.271 0.694
18.3417 48.500 0.711
18.3622 50.510 0.725
18.3827 53.990 0.750
18.4031 55.125 0.758
18.4236 60.250 0.792
18.4441 61.010 0.797
18.4645 65.510 0.826
18.4850 75.271 0.885
18.5054 95.438 0.997
18.5259 125.875 1.145
18.5464 184.250 1.385
18.5668 297.073 1.759
18.5873 469.063 2.210
18.6078 552.031 2.398
18.6282 464.354 2.199
18.6487 384.771 2.002
18.6692 275.156 1.693
18.6896 176.198 1.355
18.7101 128.344 1.156
18.7305 106.958 1.056
18.7510 95.344 0.997
18.7715 87.917 0.957
18.7919 81.135 0.919
18.8124 77.625 0.899
18.8329 74.625 0.882
18.8533 71.135 0.861
18.8738 67.844 0.841
18.8942 66.302 0.831
18.9147 65.229 0.824
18.9352 63.135 0.811
18.9556 60.604 0.795
18.9761 61.010 0.797
18.9966 61.115 0.798
19.0170 59.490 0.787
19.0375 59.917 0.790
19.0579 60.688 0.795
19.0784 60.365 0.793
19.0989 61.823 0.802
19.1193 60.854 0.796
19.1398 61.198 0.798
19.1603 61.000 0.797
19.1807 61.427 0.800
19.2012 62.667 0.808
19.2216 62.010 0.804
19.2421 62.073 0.804
19.2626 60.573 0.794
19.2830 61.771 0.802
19.3035 61.458 0.800
19.3240 62.438 0.806
19.3444 61.448 0.800
19.3649 62.625 0.808
19.3853 62.448 0.807
19.4058 62.240 0.805
19.4263 63.010 0.810
19.4467 61.458 0.800
19.4672 63.479 0.813
19.4877 64.729 0.821
19.5081 63.292 0.812
19.5286 65.135 0.824
19.5491 64.500 0.820
19.5695 68.271 0.843
19.5900 70.281 0.856
19.6104 73.063 0.872
19.6309 72.198 0.867
19.6514 75.458 0.887
19.6718 79.552 0.910
19.6923 83.479 0.933
19.7128 90.063 0.969
19.7332 103.188 1.037
19.7537 122.698 1.131
19.7741 162.625 1.302
19.7946 232.125 1.555
19.8151 350.813 1.912
19.8355 485.021 2.248
19.8560 470.594 2.214
19.8765 318.271 1.821
19.8969 271.448 1.682
19.9174 153.729 1.265
19.9378 79.875 0.912
19.9583 58.958 0.784
19.9788 49.271 0.716
19.9992 45.083 0.685
20.0197 39.854 0.644
20.0402 38.719 0.635
20.0606 36.281 0.615
20.0811 35.125 0.605
20.1015 32.365 0.581
20.1220 31.208 0.570
20.1425 29.625 0.556
20.1629 28.115 0.541
20.1834 28.073 0.541
20.2039 27.563 0.536
20.2243 27.823 0.538
20.2448 28.573 0.546
20.2653 29.083 0.550
20.2857 29.365 0.553
20.3062 30.323 0.562
20.3266 30.854 0.567
20.3471 29.302 0.552
20.3676 29.750 0.557
20.3880 28.177 0.542
20.4085 28.104 0.541
20.4290 27.750 0.538
20.4494 27.219 0.532
20.4699 26.635 0.527
20.4903 25.875 0.519
20.5108 25.500 0.515
20.5313 24.260 0.503
20.5517 23.792 0.498
20.5722 23.229 0.492
20.5927 21.865 0.477
20.6131 22.063 0.479
20.6336 21.156 0.469
20.6540 20.000 0.456
20.6745 18.031 0.433
20.6950 17.979 0.433
20.7154 17.188 0.423
20.7359 16.667 0.417
20.7564 16.385 0.413
20.7768 15.438 0.401
20.7973 14.802 0.393
20.8177 14.271 0.386
20.8382 14.125 0.384
20.8587 14.125 0.384
20.8791 13.375 0.373
20.8996 13.323 0.373
20.9201 13.510 0.375
20.9405 13.042 0.369
20.9610 12.521 0.361
20.9814 12.104 0.355
21.0019 13.063 0.369
21.0224 12.833 0.366
21.0428 12.740 0.364
21.0633 12.917 0.367
21.0838 12.927 0.367
21.1042 12.094 0.355
21.1247 11.552 0.347
21.1452 11.656 0.348
21.1656 11.458 0.345
21.1861 11.750 0.350
21.2065 11.510 0.346
21.2270 11.156 0.341
21.2475 10.760 0.335
21.2679 11.688 0.349
21.2884 11.854 0.351
21.3089 11.427 0.345
21.3293 12.010 0.354
21.3498 10.969 0.338
21.3702 10.135 0.325
21.3907 11.135 0.341
21.4112 10.948 0.338
21.4316 11.323 0.343
21.4521 11.281 0.343
21.4726 10.969 0.338
21.4930 10.781 0.335
21.5135 10.833 0.336
21.5339 10.615 0.333
21.5544 10.865 0.336
21.5749 10.313 0.328
21.5953 10.438 0.330
21.6158 10.281 0.327
21.6363 10.760 0.335
21.6567 10.281 0.327
21.6772 10.885 0.337
21.6976 10.281 0.327
21.7181 10.406 0.329
21.7386 11.167 0.341
21.7590 10.198 0.326
21.7795 10.031 0.323
21.8000 10.500 0.331
21.8204 10.240 0.327
21.8409 10.563 0.332
21.8613 10.958 0.338
21.8818 10.542 0.331
21.9023 10.938 0.338
21.9227 11.573 0.347
21.9432 11.490 0.346
21.9637 11.833 0.351
21.9841 12.010 0.354
22.0046 11.573 0.347
22.0251 12.740 0.364
22.0455 12.865 0.366
22.0660 13.052 0.369
22.0864 13.708 0.378
22.1069 15.594 0.403
22.1274 19.802 0.454
22.1478 26.156 0.522
22.1683 38.490 0.633
22.1888 52.771 0.741
22.2092 57.708 0.775
22.2297 47.240 0.701
22.2501 40.604 0.650
22.2706 34.177 0.597
22.2911 24.573 0.506
22.3115 18.615 0.440
22.3320 17.917 0.432
22.3525 15.115 0.397
22.3729 14.510 0.389
22.3934 13.844 0.380
22.4138 13.875 0.380
22.4343 13.375 0.373
22.4548 13.063 0.369
22.4752 12.552 0.362
22.4957 11.906 0.352
22.5162 12.354 0.359
22.5366 12.198 0.356
22.5571 12.500 0.361
22.5775 13.115 0.370
22.5980 14.156 0.384
22.6185 14.698 0.391
22.6389 17.458 0.426
22.6594 17.823 0.431
22.6799 19.396 0.449
22.7003 17.854 0.431
22.7208 15.125 0.397
22.7412 14.844 0.393
22.7617 12.833 0.366
22.7822 11.208 0.342
22.8026 10.688 0.334
22.8231 10.052 0.324
22.8436 10.375 0.329
22.8640 10.219 0.326
22.8845 9.833 0.320
22.9050 9.521 0.315
22.9254 9.990 0.323
22.9459 9.688 0.318
22.9663 9.802 0.320
22.9868 9.573 0.316
23.0073 9.854 0.320
23.0277 10.021 0.323
23.0482 9.375 0.313
23.0687 10.354 0.328
23.0891 9.104 0.308
23.1096 9.375 0.313
23.1300 9.177 0.309
23.1505 9.229 0.310
23.1710 8.833 0.303
23.1914 8.177 0.292
23.2119 8.740 0.302
23.2324 9.250 0.310
23.2528 8.250 0.293
23.2733 8.375 0.295
23.2937 8.552 0.298
23.3142 8.698 0.301
23.3347 8.208 0.292
23.3551 8.094 0.290
23.3756 8.427 0.296
23.3961 8.177 0.292
23.4165 8.219 0.293
23.4370 8.125 0.291
23.4574 8.198 0.292
23.4779 7.979 0.288
23.4984 8.438 0.296
23.5188 8.198 0.292
23.5393 8.156 0.291
23.5598 8.698 0.301
23.5802 7.990 0.288
23.6007 7.927 0.287
23.6211 7.958 0.288
23.6416 7.896 0.287
23.6621 8.688 0.301
23.6825 7.698 0.283
23.7030 8.198 0.292
23.7235 8.458 0.297
23.7439 7.948 0.288
23.7644 8.104 0.291
23.7849 7.396 0.278
23.8053 7.698 0.283
23.8258 7.979 0.288
23.8462 7.667 0.283
23.8667 7.333 0.276
23.8872 7.438 0.278
23.9076 7.854 0.286
23.9281 7.479 0.279
23.9486 7.771 0.285
23.9690 7.729 0.284
23.9895 7.385 0.277
24.0099 6.885 0.268
24.0304 7.250 0.275
24.0509 7.406 0.278
24.0713 7.760 0.284
24.0918 7.625 0.282
24.1123 7.729 0.284
24.1327 7.698 0.283
24.1532 7.448 0.279
24.1736 8.365 0.295
24.1941 7.448 0.279
24.2146 8.104 0.291
24.2350 7.740 0.284
24.2555 8.208 0.292
24.2760 8.625 0.300
24.2964 9.292 0.311
24.3169 10.802 0.335
24.3373 12.365 0.359
24.3578 12.396 0.359
24.3783 10.573 0.332
24.3987 10.573 0.332
24.4192 9.385 0.313
24.4397 8.802 0.303
24.4601 7.896 0.287
24.4806 7.719 0.284
24.5011 7.896 0.287
24.5215 7.260 0.275
24.5420 7.333 0.276
24.5624 7.396 0.278
24.5829 7.146 0.273
24.6034 7.229 0.274
24.6238 7.281 0.275
24.6443 7.198 0.274
24.6648 7.135 0.273
24.6852 7.031 0.271
24.7057 7.135 0.273
24.7261 7.063 0.271
24.7466 7.219 0.274
24.7671 6.854 0.267
24.7875 7.000 0.270
24.8080 6.552 0.261
24.8285 6.802 0.266
24.8489 7.125 0.272
24.8694 7.104 0.272
24.8898 6.677 0.264
24.9103 7.240 0.275
24.9308 7.042 0.271
24.9512 6.833 0.267
24.9717 6.823 0.267
24.9922 7.125 0.272
25.0126 6.323 0.257
25.0331 7.479 0.279
25.0535 6.854 0.267
25.0740 7.146 0.273
25.0945 6.833 0.267
25.1149 7.260 0.275
25.1354 6.750 0.265
25.1559 6.885 0.268
25.1763 6.938 0.269
25.1968 6.927 0.269
25.2172 6.740 0.265
25.2377 6.542 0.261
25.2582 7.125 0.272
25.2786 7.156 0.273
25.2991 6.833 0.267
25.3196 6.625 0.263
25.3400 7.177 0.273
25.3605 6.969 0.269
25.3810 6.375 0.258
25.4014 6.583 0.262
25.4219 7.021 0.270
25.4423 6.688 0.264
25.4628 6.542 0.261
25.4833 7.146 0.273
25.5037 6.646 0.263
25.5242 7.188 0.274
25.5447 7.083 0.272
25.5651 6.885 0.268
25.5856 7.073 0.271
25.6060 7.063 0.271
25.6265 7.063 0.271
25.6470 6.990 0.270
25.6674 7.292 0.276
25.6879 7.594 0.281
25.7084 7.604 0.281
25.7288 7.396 0.278
25.7493 6.844 0.267
25.7697 7.646 0.282
25.7902 7.104 0.272
25.8107 7.573 0.281
25.8311 7.833 0.286
25.8516 7.854 0.286
25.8721 7.563 0.281
25.8925 7.385 0.277
25.9130 7.594 0.281
25.9334 7.646 0.282
25.9539 7.750 0.284
25.9744 7.531 0.280
25.9948 7.313 0.276
26.0153 7.396 0.278
26.0358 6.823 0.267
26.0562 6.719 0.265
26.0767 6.760 0.265
26.0971 6.781 0.266
26.1176 7.844 0.286
26.1381 7.354 0.277
26.1585 7.698 0.283
26.1790 7.875 0.286
26.1995 7.854 0.286
26.2199 7.708 0.283
26.2404 7.417 0.278
26.2609 7.698 0.283
26.2813 7.375 0.277
26.3018 7.719 0.284
26.3222 7.146 0.273
26.3427 7.156 0.273
26.3632 8.135 0.291
26.3836 7.635 0.282
26.4041 8.448 0.297
26.4246 7.917 0.287
26.4450 8.135 0.291
26.4655 8.042 0.289
26.4859 8.135 0.291
26.5064 7.760 0.284
26.5269 7.677 0.283
26.5473 7.656 0.282
26.5678 7.396 0.278
26.5883 7.427 0.278
26.6087 7.917 0.287
26.6292 8.167 0.292
26.6496 8.146 0.291
26.6701 7.833 0.286
26.6906 7.802 0.285
26.7110 8.292 0.294
26.7315 8.115 0.291
26.7520 7.698 0.283
26.7724 7.542 0.280
26.7929 8.813 0.303
26.8133 7.854 0.286
26.8338 7.958 0.288
26.8543 8.396 0.296
26.8747 8.052 0.290
26.8952 7.750 0.284
26.9157 8.510 0.298
26.9361 7.781 0.285
26.9566 8.281 0.294
26.9770 8.917 0.305
26.9975 8.323 0.294
27.0180 8.417 0.296
27.0384 8.219 0.293
27.0589 8.104 0.291
27.0794 7.740 0.284
27.0998 8.198 0.292
27.1203 7.958 0.288
27.1408 7.875 0.286
27.1612 7.865 0.286
27.1817 7.948 0.288
27.2021 7.594 0.281
27.2226 8.073 0.290
27.2431 8.063 0.290
27.2635 8.292 0.294
27.2840 7.677 0.283
27.3045 7.510 0.280
27.3249 7.438 0.278
27.3454 7.792 0.285
27.3658 7.260 0.275
27.3863 7.250 0.275
27.4068 7.094 0.272
27.4272 7.854 0.286
27.4477 7.458 0.279
27.4682 7.781 0.285
27.4886 7.854 0.286
27.5091 7.063 0.271
27.5295 7.594 0.281
27.5500 7.333 0.276
27.5705 7.021 0.270
27.5909 7.250 0.275
27.6114 7.667 0.283
27.6319 8.156 0.291
27.6523 7.552 0.280
27.6728 7.771 0.285
27.6932 7.260 0.275
27.7137 7.667 0.283
27.7342 7.667 0.283
27.7546 7.427 0.278
27.7751 7.156 0.273
27.7956 7.844 0.286
27.8160 7.271 0.275
27.8365 7.531 0.280
27.8569 7.781 0.285
27.8774 7.792 0.285
27.8979 7.510 0.280
27.9183 7.792 0.285
27.9388 8.375 0.295
27.9593 9.010 0.306
27.9797 9.104 0.308
28.0002 10.500 0.331
28.0207 12.188 0.356
28.0411 12.896 0.367
28.0616 11.188 0.341
28.0820 11.104 0.340
28.1025 11.302 0.343
28.1230 9.729 0.318
28.1434 9.469 0.314
28.1639 8.354 0.295
28.1844 8.104 0.291
28.2048 7.896 0.287
28.2253 7.906 0.287
28.2457 7.448 0.279
28.2662 7.531 0.280
28.2867 7.354 0.277
28.3071 7.250 0.275
28.3276 6.698 0.264
28.3481 6.823 0.267
28.3685 6.458 0.259
28.3890 7.365 0.277
28.4094 6.885 0.268
28.4299 7.333 0.276
28.4504 6.479 0.260
28.4708 7.052 0.271
28.4913 6.958 0.269
28.5118 6.583 0.262
28.5322 7.010 0.270
28.5527 6.677 0.264
28.5731 6.438 0.259
28.5936 6.552 0.261
28.6141 6.917 0.268
28.6345 7.000 0.270
28.6550 7.000 0.270
28.6755 6.573 0.262
28.6959 6.844 0.267
28.7164 6.469 0.260
28.7368 6.760 0.265
28.7573 7.135 0.273
28.7778 6.573 0.262
28.7982 6.271 0.256
28.8187 7.115 0.272
28.8392 7.104 0.272
28.8596 6.781 0.266
28.8801 6.573 0.262
28.9006 7.198 0.274
28.9210 6.125 0.253
28.9415 6.771 0.266
28.9619 6.365 0.257
28.9824 6.698 0.264
29.0029 6.927 0.269
29.0233 6.500 0.260
29.0438 6.448 0.259
29.0643 6.698 0.264
29.0847 6.490 0.260
29.1052 7.125 0.272
29.1256 7.000 0.270
29.1461 6.771 0.266
29.1666 7.063 0.271
29.1870 7.490 0.279
29.2075 7.771 0.285
29.2280 8.135 0.291
29.2484 8.667 0.300
29.2689 9.510 0.315
29.2893 11.438 0.345
29.3098 12.927 0.367
29.3303 12.833 0.366
29.3507 13.667 0.377
29.3712 12.979 0.368
29.3917 12.542 0.361
29.4121 11.531 0.347
29.4326 10.333 0.328
29.4530 9.031 0.307
29.4735 8.604 0.299
29.4940 7.146 0.273
29.5144 8.010 0.289
29.5349 6.479 0.260
29.5554 7.240 0.275
29.5758 6.990 0.270
29.5963 6.625 0.263
29.6168 5.771 0.245
29.6372 6.615 0.262
29.6577 6.271 0.256
29.6781 6.250 0.255
29.6986 6.552 0.261
29.7191 6.229 0.255
29.7395 6.042 0.251
29.7600 6.344 0.257
29.7805 5.646 0.243
29.8009 6.156 0.253
29.8214 5.563 0.241
29.8418 5.760 0.245
29.8623 6.104 0.252
29.8828 6.625 0.263
29.9032 6.271 0.256
29.9237 6.531 0.261
29.9442 6.823 0.267
29.9646 6.406 0.258
29.9851 5.865 0.247
30.0055 6.198 0.254
30.0260 6.083 0.252
30.0465 5.750 0.245
30.0669 6.271 0.256
30.0874 5.552 0.240
30.1079 5.563 0.241
30.1283 5.667 0.243
30.1488 6.208 0.254
30.1692 5.406 0.237
30.1897 5.500 0.239
30.2102 6.281 0.256
30.2306 5.740 0.245
30.2511 5.573 0.241
30.2716 5.604 0.242
30.2920 5.188 0.232
30.3125 5.438 0.238
30.3329 5.406 0.237
30.3534 5.667 0.243
30.3739 5.854 0.247
30.3943 5.885 0.248
30.4148 5.375 0.237
30.4353 5.938 0.249
30.4557 5.271 0.234
30.4762 6.167 0.253
30.4967 5.698 0.244
30.5171 5.490 0.239
30.5376 6.094 0.252
30.5580 5.323 0.235
30.5785 5.833 0.247
30.5990 5.896 0.248
30.6194 5.521 0.240
30.6399 5.708 0.244
30.6604 5.667 0.243
30.6808 5.969 0.249
30.7013 5.854 0.247
30.7217 6.271 0.256
30.7422 6.125 0.253
30.7627 6.313 0.256
30.7831 5.938 0.249
30.8036 6.406 0.258
30.8241 5.771 0.245
30.8445 6.031 0.251
30.8650 6.802 0.266
30.8854 7.260 0.275
30.9059 7.260 0.275
30.9264 7.938 0.288
30.9468 9.490 0.314
30.9673 11.917 0.352
30.9878 18.000 0.433
31.0082 28.365 0.544
31.0287 44.229 0.679
31.0491 49.365 0.717
31.0696 38.719 0.635
31.0901 33.667 0.592
31.1105 32.896 0.585
31.1310 30.354 0.562
31.1515 21.083 0.469
31.1719 15.698 0.404
31.1924 11.438 0.345
31.2128 9.146 0.309
31.2333 7.917 0.287
31.2538 7.521 0.280
31.2742 6.719 0.265
31.2947 6.708 0.264
31.3152 7.135 0.273
31.3356 6.417 0.259
31.3561 5.948 0.249
31.3766 5.771 0.245
31.3970 6.333 0.257
31.4175 6.479 0.260
31.4379 6.021 0.250
31.4584 6.302 0.256
31.4789 6.250 0.255
31.4993 6.000 0.250
31.5198 5.969 0.249
31.5403 5.802 0.246
31.5607 6.365 0.257
31.5812 5.896 0.248
31.6016 5.635 0.242
31.6221 5.448 0.238
31.6426 5.500 0.239
31.6630 5.479 0.239
31.6835 5.708 0.244
31.7040 5.563 0.241
31.7244 5.344 0.236
31.7449 5.729 0.244
31.7653 5.031 0.229
31.7858 5.458 0.238
31.8063 5.188 0.232
31.8267 5.375 0.237
31.8472 5.135 0.231
31.8677 5.313 0.235
31.8881 5.490 0.239
31.9086 5.646 0.243
31.9290 5.625 0.242
31.9495 5.656 0.243
31.9700 5.938 0.249
31.9904 5.563 0.241
32.0109 5.698 0.244
32.0314 6.281 0.256
32.0518 6.104 0.252
32.0723 6.573 0.262
32.0927 7.417 0.278
32.1132 7.896 0.287
32.1337 7.948 0.288
32.1541 8.021 0.289
32.1746 7.646 0.282
32.1951 7.458 0.279
32.2155 7.292 0.276
32.2360 6.802 0.266
32.2565 6.448 0.259
32.2769 6.469 0.260
32.2974 5.979 0.250
32.3178 6.271 0.256
32.3383 6.344 0.257
32.3588 5.990 0.250
32.3792 6.740 0.265
32.3997 6.625 0.263
32.4202 6.667 0.264
32.4406 6.958 0.269
32.4611 7.083 0.272
32.4815 7.885 0.287
32.5020 8.146 0.291
32.5225 8.625 0.300
32.5429 8.948 0.305
32.5634 9.990 0.323
32.5839 11.083 0.340
32.6043 14.542 0.389
32.6248 19.135 0.446
32.6452 22.958 0.489
32.6657 18.667 0.441
32.6862 13.563 0.376
32.7066 13.271 0.372
32.7271 14.104 0.383
32.7476 11.927 0.352
32.7680 8.729 0.302
32.7885 7.521 0.280
32.8089 7.083 0.272
32.8294 6.740 0.265
32.8499 6.479 0.260
32.8703 6.271 0.256
32.8908 6.344 0.257
32.9113 6.250 0.255
32.9317 5.854 0.247
32.9522 5.844 0.247
32.9726 5.948 0.249
32.9931 5.667 0.243
33.0136 5.771 0.245
33.0340 5.542 0.240
33.0545 5.531 0.240
33.0750 5.698 0.244
33.0954 5.458 0.238
33.1159 5.917 0.248
33.1364 5.563 0.241
33.1568 5.740 0.245
33.1773 5.938 0.249
33.1977 5.771 0.245
33.2182 5.469 0.239
33.2387 5.615 0.242
33.2591 5.365 0.236
33.2796 5.490 0.239
33.3001 5.375 0.237
33.3205 5.229 0.233
33.3410 5.771 0.245
33.3614 5.844 0.247
33.3819 6.240 0.255
33.4024 6.219 0.255
33.4228 5.781 0.245
33.4433 6.000 0.250
33.4638 6.094 0.252
33.4842 6.000 0.250
33.5047 5.896 0.248
33.5251 5.781 0.245
33.5456 5.625 0.242
33.5661 5.365 0.236
33.5865 5.281 0.235
33.6070 5.365 0.236
33.6275 5.354 0.236
33.6479 5.500 0.239
33.6684 5.344 0.236
33.6888 5.125 0.231
33.7093 5.031 0.229
33.7298 5.729 0.244
33.7502 5.469 0.239
33.7707 5.260 0.234
33.7912 5.344 0.236
33.8116 5.094 0.230
33.8321 5.156 0.232
33.8526 4.844 0.225
33.8730 5.208 0.233
33.8935 4.854 0.225
33.9139 5.167 0.232
33.9344 5.302 0.235
33.9549 5.271 0.234
33.9753 5.521 0.240
33.9958 5.406 0.237
34.0163 5.219 0.233
34.0367 6.042 0.251
34.0572 5.781 0.245
34.0776 5.208 0.233
34.0981 5.833 0.247
34.1186 6.396 0.258
34.1390 6.990 0.270
34.1595 7.625 0.282
34.1800 8.042 0.289
34.2004 8.552 0.298
34.2209 9.010 0.306
34.2413 8.365 0.295
34.2618 7.979 0.288
34.2823 7.979 0.288
34.3027 7.823 0.285
34.3232 7.365 0.277
34.3437 6.844 0.267
34.3641 7.260 0.275
34.3846 6.802 0.266
34.4050 6.885 0.268
34.4255 6.781 0.266
34.4460 7.052 0.271
34.4664 7.073 0.271
34.4869 7.531 0.280
34.5074 7.583 0.281
34.5278 7.219 0.274
34.5483 7.625 0.282
34.5687 6.677 0.264
34.5892 6.698 0.264
34.6097 6.604 0.262
34.6301 6.354 0.257
34.6506 6.302 0.256
34.6711 5.667 0.243
34.6915 6.115 0.252
34.7120 4.906 0.226
34.7325 5.625 0.242
34.7529 5.198 0.233
34.7734 5.490 0.239
34.7938 5.396 0.237
34.8143 5.354 0.236
34.8348 5.427 0.238
34.8552 5.396 0.237
34.8757 5.271 0.234
34.8962 5.469 0.239
34.9166 5.385 0.237
34.9371 5.281 0.235
34.9575 5.792 0.246
34.9780 5.240 0.234
34.9985 5.042 0.229
35.0189 5.542 0.240
35.0394 5.271 0.234
35.0599 5.510 0.240
35.0803 5.542 0.240
35.1008 5.115 0.231
35.1212 5.333 0.236
35.1417 5.229 0.233
35.1622 5.073 0.230
35.1826 5.458 0.238
35.2031 5.073 0.230
35.2236 5.479 0.239
35.2440 5.188 0.232
35.2645 5.219 0.233
35.2849 4.990 0.228
35.3054 5.250 0.234
35.3259 5.438 0.238
35.3463 5.469 0.239
35.3668 5.229 0.233
35.3873 4.896 0.226
35.4077 5.354 0.236
35.4282 5.406 0.237
35.4486 4.948 0.227
35.4691 5.063 0.230
35.4896 5.479 0.239
35.5100 5.542 0.240
35.5305 5.417 0.238
35.5510 5.240 0.234
35.5714 5.563 0.241
35.5919 5.385 0.237
35.6124 5.771 0.245
35.6328 5.271 0.234
35.6533 5.146 0.232
35.6737 5.510 0.240
35.6942 5.479 0.239
35.7147 5.750 0.245
35.7351 5.333 0.236
35.7556 5.896 0.248
35.7761 5.469 0.239
35.7965 5.771 0.245
35.8170 6.000 0.250
35.8374 6.479 0.260
35.8579 5.927 0.248
35.8784 6.010 0.250
35.8988 6.042 0.251
35.9193 6.396 0.258
35.9398 6.563 0.261
35.9602 7.063 0.271
35.9807 7.990 0.288
36.0011 8.125 0.291
36.0216 9.052 0.307
36.0421 9.323 0.312
36.0625 9.198 0.310
36.0830 8.958 0.305
36.1035 9.563 0.316
36.1239 10.031 0.323
36.1444 10.417 0.329
36.1648 10.740 0.334
36.1853 10.292 0.327
36.2058 9.302 0.311
36.2262 10.010 0.323
36.2467 10.010 0.323
36.2672 10.500 0.331
36.2876 10.635 0.333
36.3081 10.552 0.332
36.3285 11.323 0.343
36.3490 12.510 0.361
36.3695 13.240 0.371
36.3899 12.823 0.365
36.4104 13.927 0.381
36.4309 14.156 0.384
36.4513 16.104 0.410
36.4718 16.167 0.410
36.4923 15.177 0.398
36.5127 15.990 0.408
36.5332 15.969 0.408
36.5536 17.521 0.427
36.5741 20.969 0.467
36.5946 24.760 0.508
36.6150 29.229 0.552
36.6355 28.771 0.547
36.6560 22.844 0.488
36.6764 19.479 0.450
36.6969 21.375 0.472
36.7173 22.625 0.485
36.7378 19.219 0.447
36.7583 15.531 0.402
36.7787 13.552 0.376
36.7992 13.677 0.377
36.8197 12.667 0.363
36.8401 12.990 0.368
36.8606 12.135 0.356
36.8810 11.979 0.353
36.9015 12.281 0.358
36.9220 13.167 0.370
36.9424 13.323 0.373
36.9629 13.896 0.380
36.9834 14.375 0.387
37.0038 16.875 0.419
37.0243 18.604 0.440
37.0447 22.750 0.487
37.0652 30.458 0.563
37.0857 36.854 0.620
37.1061 38.271 0.631
37.1266 29.979 0.559
37.1471 23.740 0.497
37.1675 23.542 0.495
37.1880 25.969 0.520
37.2084 23.500 0.495
37.2289 17.375 0.425
37.2494 13.958 0.381
37.2698 12.333 0.358
37.2903 12.594 0.362
37.3108 11.729 0.350
37.3312 11.396 0.345
37.3517 11.552 0.347
37.3722 11.250 0.342
37.3926 11.469 0.346
37.4131 12.281 0.358
37.4335 11.677 0.349
37.4540 12.271 0.358
37.4745 13.458 0.374
37.4949 13.906 0.381
37.5154 15.396 0.400
37.5359 17.146 0.423
37.5563 18.885 0.444
37.5768 21.000 0.468
37.5972 21.104 0.469
37.6177 20.594 0.463
37.6382 20.885 0.466
37.6586 23.344 0.493
37.6791 23.438 0.494
37.6996 21.417 0.472
37.7200 18.458 0.438
37.7405 17.938 0.432
37.7609 16.792 0.418
37.7814 16.250 0.411
37.8019 14.948 0.395
37.8223 13.667 0.377
37.8428 12.781 0.365
37.8633 13.531 0.375
37.8837 12.792 0.365
37.9042 12.563 0.362
37.9246 12.781 0.365
37.9451 12.646 0.363
37.9656 14.281 0.386
37.9860 15.396 0.400
38.0065 19.250 0.448
38.0270 21.875 0.477
38.0474 19.958 0.456
38.0679 16.885 0.419
38.0884 15.344 0.400
38.1088 15.260 0.399
38.1293 16.115 0.410
38.1497 14.896 0.394
38.1702 12.063 0.354
38.1907 11.292 0.343
38.2111 10.625 0.333
38.2316 10.438 0.330
38.2521 9.135 0.308
38.2725 9.271 0.311
38.2930 9.125 0.308
38.3134 9.531 0.315
38.3339 8.802 0.303
38.3544 9.198 0.310
38.3748 8.969 0.306
38.3953 9.417 0.313
38.4158 10.146 0.325
38.4362 11.229 0.342
38.4567 13.063 0.369
38.4771 15.698 0.404
38.4976 14.406 0.387
38.5181 12.031 0.354
38.5385 11.938 0.353
38.5590 12.667 0.363
38.5795 12.583 0.362
38.5999 11.219 0.342
38.6204 10.313 0.328
38.6408 9.417 0.313
38.6613 9.271 0.311
38.6818 8.958 0.305
38.7022 9.104 0.308
38.7227 9.521 0.315
38.7432 9.719 0.318
38.7636 9.740 0.319
38.7841 9.813 0.320
38.8045 10.490 0.331
38.8250 10.948 0.338
38.8455 9.969 0.322
38.8659 9.760 0.319
38.8864 9.740 0.319
38.9069 8.688 0.301
38.9273 8.771 0.302
38.9478 8.906 0.305
38.9683 8.094 0.290
38.9887 8.042 0.289
39.0092 8.167 0.292
39.0296 8.042 0.289
39.0501 8.302 0.294
39.0706 8.240 0.293
39.0910 8.052 0.290
39.1115 8.229 0.293
39.1320 8.323 0.294
39.1524 8.458 0.297
39.1729 8.885 0.304
39.1933 8.969 0.306
39.2138 8.958 0.305
39.2343 9.083 0.308
39.2547 9.031 0.307
39.2752 9.094 0.308
39.2957 9.146 0.309
39.3161 8.688 0.301
39.3366 8.500 0.298
39.3570 8.917 0.305
39.3775 9.010 0.306
39.3980 8.542 0.298
39.4184 8.719 0.301
39.4389 9.125 0.308
39.4594 8.719 0.301
39.4798 7.802 0.285
39.5003 8.333 0.295
39.5207 7.938 0.288
39.5412 8.542 0.298
39.5617 7.698 0.283
39.5821 8.125 0.291
39.6026 8.292 0.294
39.6231 7.906 0.287
39.6435 8.750 0.302
39.6640 7.802 0.285
39.6844 8.125 0.291
39.7049 7.917 0.287
39.7254 8.823 0.303
39.7458 8.833 0.303
39.7663 10.104 0.324
39.7868 10.771 0.335
39.8072 12.010 0.354
39.8277 12.927 0.367
39.8482 11.344 0.344
39.8686 10.208 0.326
39.8891 9.500 0.315
39.9095 10.042 0.323
39.9300 11.031 0.339
39.9505 9.656 0.317
39.9709 9.229 0.310
39.9914 8.469 0.297
40.0119 8.698 0.301
40.0323 9.396 0.313
40.0528 8.865 0.304
40.0732 9.000 0.306
40.0937 9.802 0.320
40.1142 10.323 0.328
40.1346 9.510 0.315
40.1551 10.031 0.323
40.1756 10.344 0.328
40.1960 11.146 0.341
40.2165 13.167 0.370
40.2369 15.698 0.404
40.2574 18.906 0.444
40.2779 21.948 0.478
40.2983 18.281 0.436
40.3188 14.177 0.384
40.3393 12.396 0.359
40.3597 13.271 0.372
40.3802 14.625 0.390
40.4006 12.021 0.354
40.4211 10.635 0.333
40.4416 8.583 0.299
40.4620 8.156 0.291
40.4825 8.094 0.290
40.5030 7.958 0.288
40.5234 8.094 0.290
40.5439 7.083 0.272
40.5643 7.385 0.277
40.5848 7.010 0.270
40.6053 7.417 0.278
40.6257 7.281 0.275
40.6462 6.958 0.269
40.6667 6.563 0.261
40.6871 7.302 0.276
40.7076 6.771 0.266
40.7281 6.854 0.267
40.7485 7.375 0.277
40.7690 6.708 0.264
40.7894 7.240 0.275
40.8099 7.427 0.278
40.8304 6.948 0.269
40.8508 6.906 0.268
40.8713 7.365 0.277
40.8918 7.490 0.279
40.9122 7.156 0.273
40.9327 7.865 0.286
40.9531 7.365 0.277
40.9736 7.688 0.283
40.9941 8.375 0.295
41.0145 8.375 0.295
41.0350 8.844 0.304
41.0555 9.615 0.316
41.0759 10.521 0.331
41.0964 13.021 0.368
41.1168 16.198 0.411
41.1373 17.146 0.423
41.1578 15.646 0.404
41.1782 12.469 0.360
41.1987 11.500 0.346
41.2192 12.823 0.365
41.2396 13.094 0.369
41.2601 11.708 0.349
41.2805 10.573 0.332
41.3010 8.406 0.296
41.3215 7.719 0.284
41.3419 8.094 0.290
41.3624 7.938 0.288
41.3829 7.656 0.282
41.4033 7.521 0.280
41.4238 7.115 0.272
41.4442 7.010 0.270
41.4647 7.344 0.277
41.4852 6.823 0.267
41.5056 7.010 0.270
41.5261 6.813 0.266
41.5466 6.750 0.265
41.5670 6.427 0.259
41.5875 6.750 0.265
41.6080 6.010 0.250
41.6284 6.802 0.266
41.6489 6.500 0.260
41.6693 6.948 0.269
41.6898 6.583 0.262
41.7103 6.698 0.264
41.7307 7.000 0.270
41.7512 6.573 0.262
41.7717 6.604 0.262
41.7921 6.375 0.258
41.8126 6.802 0.266
41.8330 6.406 0.258
41.8535 6.563 0.261
41.8740 6.302 0.256
41.8944 6.448 0.259
41.9149 6.729 0.265
41.9354 6.771 0.266
41.9558 6.823 0.267
41.9763 6.396 0.258
41.9967 6.521 0.261
42.0172 6.271 0.256
42.0377 6.510 0.260
42.0581 6.896 0.268
42.0786 6.802 0.266
42.0991 6.333 0.257
42.1195 6.323 0.257
42.1400 6.344 0.257
42.1604 6.302 0.256
42.1809 7.094 0.272
42.2014 6.458 0.259
42.2218 7.417 0.278
42.2423 7.427 0.278
42.2628 8.146 0.291
42.2832 8.500 0.298
42.3037 9.156 0.309
42.3242 8.938 0.305
42.3446 9.521 0.315
42.3651 9.469 0.314
42.3855 8.552 0.298
42.4060 8.250 0.293
42.4265 8.833 0.303
42.4469 8.719 0.301
42.4674 7.667 0.283
42.4879 7.292 0.276
42.5083 7.563 0.281
42.5288 6.990 0.270
42.5492 6.729 0.265
42.5697 7.000 0.270
42.5902 6.896 0.268
42.6106 6.510 0.260
42.6311 6.250 0.255
42.6516 6.615 0.262
42.6720 6.760 0.265
42.6925 6.760 0.265
42.7129 6.510 0.260
42.7334 6.865 0.267
42.7539 6.844 0.267
42.7743 7.448 0.279
42.7948 6.698 0.264
42.8153 6.938 0.269
42.8357 6.625 0.263
42.8562 6.458 0.259
42.8766 6.708 0.264
42.8971 7.125 0.272
42.9176 6.854 0.267
42.9380 5.990 0.250
42.9585 6.458 0.259
42.9790 6.604 0.262
42.9994 6.469 0.260
43.0199 6.542 0.261
43.0403 6.750 0.265
43.0608 6.542 0.261
43.0813 7.000 0.270
43.1017 7.063 0.271
43.1222 6.833 0.267
43.1427 8.344 0.295
43.1631 7.948 0.288
43.1836 8.208 0.292
43.2041 9.667 0.317
43.2245 10.240 0.327
43.2450 10.823 0.336
43.2654 10.073 0.324
43.2859 9.667 0.317
43.3064 9.802 0.320
43.3268 10.365 0.329
43.3473 11.323 0.343
43.3678 9.833 0.320
43.3882 10.677 0.333
43.4087 10.583 0.332
43.4291 10.771 0.335
43.4496 9.646 0.317
43.4701 10.510 0.331
43.4905 10.427 0.330
43.5110 10.302 0.328
43.5315 10.344 0.328
43.5519 12.594 0.362
43.5724 14.042 0.382
43.5928 15.948 0.408
43.6133 20.625 0.464
43.6338 24.052 0.501
43.6542 25.500 0.515
43.6747 19.656 0.452
43.6952 17.021 0.421
43.7156 15.635 0.404
43.7361 16.250 0.411
43.7565 16.531 0.415
43.7770 15.323 0.400
43.7975 12.708 0.364
43.8179 10.438 0.330
43.8384 9.292 0.311
43.8589 8.458 0.297
43.8793 8.302 0.294
43.8998 7.990 0.288
43.9202 8.094 0.290
43.9407 8.281 0.294
43.9612 7.854 0.286
43.9816 7.896 0.287
44.0021 7.729 0.284
44.0226 7.250 0.275
44.0430 7.729 0.284
44.0635 7.302 0.276
44.0840 7.573 0.281
44.1044 7.219 0.274
44.1249 7.688 0.283
44.1453 7.771 0.285
44.1658 7.792 0.285
44.1863 7.177 0.273
44.2067 7.698 0.283
44.2272 7.135 0.273
44.2477 7.417 0.278
44.2681 7.188 0.274
44.2886 7.427 0.278
44.3090 7.365 0.277
44.3295 7.427 0.278
44.3500 6.823 0.267
44.3704 7.021 0.270
44.3909 6.760 0.265
44.4114 7.229 0.274
44.4318 7.167 0.273
44.4523 6.677 0.264
44.4727 6.958 0.269
44.4932 7.156 0.273
44.5137 7.115 0.272
44.5341 7.115 0.272
44.5546 6.833 0.267
44.5751 6.542 0.261
44.5955 6.656 0.263
44.6160 6.552 0.261
44.6364 6.781 0.266
44.6569 6.604 0.262
44.6774 6.583 0.262
44.6978 6.490 0.260
44.7183 6.917 0.268
44.7388 6.385 0.258
44.7592 6.740 0.265
44.7797 6.844 0.267
44.8001 6.552 0.261
44.8206 6.354 0.257
44.8411 6.708 0.264
44.8615 6.792 0.266
44.8820 6.198 0.254
44.9025 6.260 0.255
44.9229 6.240 0.255
44.9434 6.063 0.251
44.9639 6.177 0.254
44.9843 6.531 0.261
45.0048 6.750 0.265
45.0252 6.771 0.266
45.0457 6.698 0.264
45.0662 6.927 0.269
45.0866 7.292 0.276
45.1071 6.958 0.269
45.1276 7.438 0.278
45.1480 7.156 0.273
45.1685 7.490 0.279
45.1889 7.948 0.288
45.2094 8.979 0.306
45.2299 10.094 0.324
45.2503 11.771 0.350
45.2708 12.010 0.354
45.2913 9.677 0.317
45.3117 8.969 0.306
45.3322 9.125 0.308
45.3526 8.781 0.302
45.3731 9.802 0.320
45.3936 9.302 0.311
45.4140 7.948 0.288
45.4345 7.594 0.281
45.4550 7.115 0.272
45.4754 6.740 0.265
45.4959 7.208 0.274
45.5163 7.552 0.280
45.5368 6.542 0.261
45.5573 7.021 0.270
45.5777 6.646 0.263
45.5982 6.583 0.262
45.6187 6.479 0.260
45.6391 6.792 0.266
45.6596 6.292 0.256
45.6800 6.677 0.264
45.7005 6.646 0.263
45.7210 6.531 0.261
45.7414 6.781 0.266
45.7619 6.677 0.264
45.7824 6.729 0.265
45.8028 6.458 0.259
45.8233 6.688 0.264
45.8438 6.208 0.254
45.8642 6.406 0.258
45.8847 6.771 0.266
45.9051 6.323 0.257
45.9256 6.000 0.250
45.9461 6.458 0.259
45.9665 6.198 0.254
45.9870 6.302 0.256
46.0075 5.927 0.248
46.0279 5.885 0.248
46.0484 5.823 0.246
46.0688 6.115 0.252
46.0893 5.813 0.246
46.1098 6.417 0.259
46.1302 6.313 0.256
46.1507 6.344 0.257
46.1712 5.990 0.250
46.1916 6.396 0.258
46.2121 6.177 0.254
46.2325 6.208 0.254
46.2530 5.938 0.249
46.2735 6.302 0.256
46.2939 6.010 0.250
46.3144 6.313 0.256
46.3349 6.438 0.259
46.3553 6.958 0.269
46.3758 7.271 0.275
46.3962 7.406 0.278
46.4167 7.677 0.283
46.4372 8.427 0.296
46.4576 8.385 0.296
46.4781 9.083 0.308
46.4986 9.750 0.319
46.5190 8.802 0.303
46.5395 8.719 0.301
46.5600 9.646 0.317
46.5804 8.333 0.295
46.6009 8.854 0.304
46.6213 8.240 0.293
46.6418 7.510 0.280
46.6623 7.948 0.288
46.6827 7.229 0.274
46.7032 7.500 0.280
46.7237 6.333 0.257
46.7441 6.583 0.262
46.7646 6.542 0.261
46.7850 6.625 0.263
46.8055 6.469 0.260
46.8260 6.594 0.262
46.8464 6.302 0.256
46.8669 6.229 0.255
46.8874 6.177 0.254
46.9078 6.156 0.253
46.9283 6.052 0.251
46.9487 6.052 0.251
46.9692 6.073 0.252
46.9897 6.063 0.251
47.0101 6.333 0.257
47.0306 6.396 0.258
47.0511 6.354 0.257
47.0715 6.563 0.261
47.0920 6.823 0.267
47.1124 7.052 0.271
47.1329 7.302 0.276
47.1534 7.188 0.274
47.1738 6.563 0.261
47.1943 7.042 0.271
47.2148 7.688 0.283
47.2352 7.323 0.276
47.2557 7.229 0.274
47.2761 7.510 0.280
47.2966 7.135 0.273
47.3171 7.375 0.277
47.3375 7.188 0.274
47.3580 7.802 0.285
47.3785 7.375 0.277
47.3989 7.542 0.280
47.4194 8.396 0.296
47.4399 8.021 0.289
47.4603 8.031 0.289
47.4808 8.750 0.302
47.5012 8.542 0.298
47.5217 10.031 0.323
47.5422 11.729 0.350
47.5626 13.844 0.380
47.5831 16.479 0.414
47.6036 19.729 0.453
47.6240 17.167 0.423
47.6445 14.042 0.382
47.6649 12.208 0.357
47.6854 11.792 0.350
47.7059 12.417 0.360
47.7263 12.823 0.365
47.7468 12.021 0.354
47.7673 10.000 0.323
47.7877 9.052 0.307
47.8082 7.854 0.286
47.8286 7.917 0.287
47.8491 7.021 0.270
47.8696 6.052 0.251
47.8900 6.031 0.251
47.9105 6.083 0.252
47.9310 5.948 0.249
47.9514 5.594 0.241
47.9719 5.865 0.247
47.9923 5.552 0.240
48.0128 5.542 0.240
48.0333 5.406 0.237
48.0537 5.979 0.250
48.0742 5.740 0.245
48.0947 5.146 0.232
48.1151 4.927 0.227
48.1356 5.531 0.240
48.1560 5.438 0.238
48.1765 5.615 0.242
48.1970 5.615 0.242
48.2174 5.115 0.231
48.2379 5.375 0.237
48.2584 5.865 0.247
48.2788 6.406 0.258
48.2993 5.896 0.248
48.3198 7.104 0.272
48.3402 7.375 0.277
48.3607 7.167 0.273
48.3811 6.833 0.267
48.4016 6.417 0.259
48.4221 6.823 0.267
48.4425 7.125 0.272
48.4630 6.385 0.258
48.4835 6.396 0.258
48.5039 6.542 0.261
48.5244 6.271 0.256
48.5448 6.031 0.251
48.5653 6.563 0.261
48.5858 5.760 0.245
48.6062 5.646 0.243
48.6267 6.104 0.252
48.6472 6.167 0.253
48.6676 6.260 0.255
48.6881 6.125 0.253
48.7085 6.729 0.265
48.7290 6.323 0.257
48.7495 6.490 0.260
48.7699 5.583 0.241
48.7904 5.792 0.246
48.8109 5.406 0.237
48.8313 5.688 0.243
48.8518 5.875 0.247
48.8722 5.927 0.248
48.8927 5.188 0.232
48.9132 5.188 0.232
48.9336 5.146 0.232
48.9541 4.917 0.226
48.9746 5.552 0.240
48.9950 5.438 0.238
49.0155 5.344 0.236
49.0359 5.188 0.232
49.0564 5.135 0.231
49.0769 5.583 0.241
49.0973 5.063 0.230
49.1178 5.146 0.232
49.1383 5.365 0.236
49.1587 5.854 0.247
49.1792 5.302 0.235
49.1997 5.469 0.239
49.2201 5.010 0.228
49.2406 5.688 0.243
49.2610 5.406 0.237
49.2815 5.802 0.246
49.3020 6.063 0.251
49.3224 6.292 0.256
49.3429 6.313 0.256
49.3634 6.385 0.258
49.3838 6.385 0.258
49.4043 6.448 0.259
49.4247 6.833 0.267
49.4452 7.115 0.272
49.4657 7.969 0.288
49.4861 8.167 0.292
49.5066 8.521 0.298
49.5271 8.677 0.301
49.5475 9.052 0.307
49.5680 9.365 0.312
49.5884 9.073 0.307
49.6089 9.354 0.312
49.6294 8.698 0.301
49.6498 8.448 0.297
49.6703 8.802 0.303
49.6908 9.375 0.313
49.7112 9.115 0.308
49.7317 9.396 0.313
49.7521 9.208 0.310
49.7726 10.208 0.326
49.7931 11.094 0.340
49.8135 13.000 0.368
49.8340 16.521 0.415
49.8545 18.438 0.438
49.8749 17.146 0.423
49.8954 13.990 0.382
49.9158 11.896 0.352
49.9363 11.656 0.348
49.9568 12.354 0.359
49.9772 13.083 0.369
49.9977 12.313 0.358
50.0182 11.490 0.346
50.0386 9.615 0.316
50.0591 8.948 0.305
50.0796 7.802 0.285
50.1000 7.708 0.283
50.1205 7.146 0.273
50.1409 7.542 0.280
50.1614 7.646 0.282
50.1819 7.938 0.288
50.2023 8.635 0.300
50.2228 9.021 0.307
50.2433 8.594 0.299
50.2637 7.688 0.283
50.2842 7.594 0.281
50.3046 7.417 0.278
50.3251 8.073 0.290
50.3456 7.906 0.287
50.3660 8.000 0.289
50.3865 7.313 0.276
50.4070 6.198 0.254
50.4274 6.771 0.266
50.4479 6.438 0.259
50.4683 6.469 0.260
50.4888 6.708 0.264
50.5093 6.583 0.262
50.5297 6.948 0.269
50.5502 6.469 0.260
50.5707 6.438 0.259
50.5911 6.438 0.259
50.6116 6.583 0.262
50.6320 6.260 0.255
50.6525 6.396 0.258
50.6730 6.583 0.262
50.6934 6.365 0.257
50.7139 6.135 0.253
50.7344 6.167 0.253
50.7548 6.458 0.259
50.7753 6.302 0.256
50.7958 6.219 0.255
50.8162 6.427 0.259
50.8367 6.104 0.252
50.8571 6.354 0.257
50.8776 6.573 0.262
50.8981 7.240 0.275
50.9185 7.656 0.282
50.9390 8.521 0.298
50.9595 9.677 0.317
50.9799 9.656 0.317
51.0004 8.438 0.296
51.0208 7.865 0.286
51.0413 7.635 0.282
51.0618 7.365 0.277
51.0822 7.865 0.286
51.1027 8.198 0.292
51.1232 7.354 0.277
51.1436 7.083 0.272
51.1641 6.792 0.266
51.1845 6.802 0.266
51.2050 6.240 0.255
51.2255 6.698 0.264
51.2459 6.417 0.259
51.2664 6.365 0.257
51.2869 6.521 0.261
51.3073 6.948 0.269
51.3278 6.688 0.264
51.3482 6.573 0.262
51.3687 6.438 0.259
51.3892 6.427 0.259
51.4096 5.958 0.249
51.4301 5.938 0.249
51.4506 5.531 0.240
51.4710 6.135 0.253
51.4915 5.583 0.241
51.5119 5.396 0.237
51.5324 5.760 0.245
51.5529 5.063 0.230
51.5733 5.885 0.248
51.5938 5.865 0.247
51.6143 6.354 0.257
51.6347 6.531 0.261
51.6552 6.854 0.267
51.6757 8.073 0.290
51.6961 6.948 0.269
51.7166 6.417 0.259
51.7370 6.104 0.252
51.7575 6.448 0.259
51.7780 5.833 0.247
51.7984 6.177 0.254
51.8189 6.833 0.267
51.8394 6.333 0.257
51.8598 5.594 0.241
51.8803 5.333 0.236
51.9007 5.635 0.242
51.9212 5.323 0.235
51.9417 5.094 0.230
51.9621 5.177 0.232
51.9826 5.385 0.237
52.0031 5.208 0.233
52.0235 4.813 0.224
52.0440 5.354 0.236
52.0644 4.875 0.225
52.0849 5.510 0.240
52.1054 4.813 0.224
52.1258 5.031 0.229
52.1463 5.385 0.237
52.1668 5.271 0.234
52.1872 4.938 0.227
52.2077 5.656 0.243
52.2281 5.688 0.243
52.2486 4.927 0.227
52.2691 5.188 0.232
52.2895 5.417 0.238
52.3100 5.042 0.229
52.3305 5.406 0.237
52.3509 5.385 0.237
52.3714 5.688 0.243
52.3918 5.760 0.245
52.4123 6.125 0.253
52.4328 5.969 0.249
52.4532 5.438 0.238
52.4737 5.490 0.239
52.4942 5.771 0.245
52.5146 5.313 0.235
52.5351 5.031 0.229
52.5556 5.469 0.239
52.5760 4.823 0.224
52.5965 4.802 0.224
52.6169 4.698 0.221
52.6374 4.260 0.211
52.6579 4.448 0.215
52.6783 4.802 0.224
52.6988 4.656 0.220
52.7193 5.250 0.234
52.7397 4.823 0.224
52.7602 4.698 0.221
52.7806 4.844 0.225
52.8011 4.958 0.227
52.8216 4.500 0.217
52.8420 4.823 0.224
52.8625 4.469 0.216
52.8830 4.615 0.219
52.9034 4.854 0.225
52.9239 4.552 0.218
52.9443 4.427 0.215
52.9648 4.615 0.219
52.9853 4.177 0.209
53.0057 4.479 0.216
53.0262 4.729 0.222
53.0467 4.792 0.223
53.0671 4.469 0.216
53.0876 4.729 0.222
53.1080 4.698 0.221
53.1285 4.615 0.219
53.1490 4.635 0.220
53.1694 4.521 0.217
53.1899 4.990 0.228
53.2104 4.531 0.217
53.2308 5.021 0.229
53.2513 4.792 0.223
53.2717 4.677 0.221
53.2922 4.490 0.216
53.3127 4.531 0.217
53.3331 4.323 0.212
53.3536 4.073 0.206
53.3741 4.333 0.212
53.3945 4.146 0.208
53.4150 4.552 0.218
53.4355 4.698 0.221
53.4559 4.198 0.209
53.4764 4.385 0.214
53.4968 4.750 0.222
53.5173 4.219 0.210
53.5378 4.583 0.219
53.5582 4.531 0.217
53.5787 4.635 0.220
53.5992 4.490 0.216
53.6196 4.396 0.214
53.6401 4.438 0.215
53.6605 4.438 0.215
53.6810 4.375 0.213
53.7015 4.333 0.212
53.7219 4.490 0.216
53.7424 4.198 0.209
53.7629 4.563 0.218
53.7833 4.156 0.208
53.8038 4.208 0.209
53.8242 4.813 0.224
53.8447 4.115 0.207
53.8652 5.073 0.230
53.8856 4.802 0.224
53.9061 4.042 0.205
53.9266 4.344 0.213
53.9470 4.281 0.211
53.9675 4.365 0.213
53.9879 4.708 0.221
54.0084 4.573 0.218
54.0289 4.542 0.218
54.0493 4.781 0.223
54.0698 4.458 0.216
54.0903 5.010 0.228
54.1107 4.729 0.222
54.1312 5.531 0.240
54.1516 5.010 0.228
54.1721 5.396 0.237
54.1926 4.740 0.222
54.2130 5.042 0.229
54.2335 5.073 0.230
54.2540 5.063 0.230
54.2744 5.385 0.237
54.2949 5.094 0.230
54.3154 5.292 0.235
54.3358 5.333 0.236
54.3563 5.177 0.232
54.3767 4.958 0.227
54.3972 4.677 0.221
54.4177 4.719 0.222
54.4381 5.344 0.236
54.4586 5.073 0.230
54.4791 4.552 0.218
54.4995 4.448 0.215
54.5200 4.792 0.223
54.5404 4.969 0.228
54.5609 4.615 0.219
54.5814 4.646 0.220
54.6018 4.740 0.222
54.6223 4.542 0.218
54.6428 4.802 0.224
54.6632 4.573 0.218
54.6837 4.521 0.217
54.7041 4.781 0.223
54.7246 4.677 0.221
54.7451 4.458 0.216
54.7655 4.583 0.219
54.7860 4.646 0.220
54.8065 4.563 0.218
54.8269 4.427 0.215
54.8474 5.063 0.230
54.8678 4.969 0.228
54.8883 4.729 0.222
54.9088 4.885 0.226
54.9292 4.948 0.227
54.9497 4.594 0.219
54.9702 4.667 0.220
54.9906 4.323 0.212
55.0111 4.635 0.220
55.0316 4.917 0.226
55.0520 4.948 0.227
55.0725 5.802 0.246
55.0929 5.740 0.245
55.1134 7.625 0.282
55.1339 8.719 0.301
55.1543 11.490 0.346
55.1748 14.917 0.394
55.1953 16.833 0.419
55.2157 14.438 0.388
55.2362 11.833 0.351
55.2566 10.563 0.332
55.2771 10.438 0.330
55.2976 10.927 0.337
55.3180 10.938 0.338
55.3385 11.854 0.351
55.3590 10.865 0.336
55.3794 8.792 0.303
55.3999 7.677 0.283
55.4203 6.552 0.261
55.4408 6.625 0.263
55.4613 5.604 0.242
55.4817 5.156 0.232
55.5022 5.292 0.235
55.5227 4.510 0.217
55.5431 4.729 0.222
55.5636 4.625 0.219
55.5840 4.531 0.217
55.6045 4.333 0.212
55.6250 4.375 0.213
55.6454 4.531 0.217
55.6659 4.406 0.214
55.6864 4.344 0.213
55.7068 4.229 0.210
55.7273 4.313 0.212
55.7477 4.188 0.209
55.7682 4.656 0.220
55.7887 4.896 0.226
55.8091 4.760 0.223
55.8296 4.906 0.226
55.8501 5.719 0.244
55.8705 5.073 0.230
55.8910 5.427 0.238
55.9115 5.646 0.243
55.9319 5.073 0.230
55.9524 5.146 0.232
55.9728 5.240 0.234
55.9933 5.104 0.231
56.0138 6.083 0.252
56.0342 5.698 0.244
56.0547 6.500 0.260
56.0752 5.750 0.245
56.0956 6.385 0.258
56.1161 6.729 0.265
56.1365 7.646 0.282
56.1570 8.844 0.304
56.1775 10.604 0.332
56.1979 12.448 0.360
56.2184 12.979 0.368
56.2389 11.438 0.345
56.2593 9.583 0.316
56.2798 7.813 0.285
56.3002 7.063 0.271
56.3207 7.625 0.282
56.3412 7.917 0.287
56.3616 8.490 0.297
56.3821 8.271 0.294
56.4026 6.948 0.269
56.4230 6.000 0.250
56.4435 5.302 0.235
56.4639 5.156 0.232
56.4844 4.385 0.214
56.5049 4.167 0.208
56.5253 4.125 0.207
56.5458 4.000 0.204
56.5663 4.094 0.207
56.5867 3.917 0.202
56.6072 3.750 0.198
56.6276 4.313 0.212
56.6481 3.750 0.198
56.6686 3.813 0.199
56.6890 3.760 0.198
56.7095 3.667 0.195
56.7300 4.063 0.206
56.7504 3.885 0.201
56.7709 3.844 0.200
56.7914 4.417 0.214
56.8118 4.000 0.204
56.8323 3.958 0.203
56.8527 4.146 0.208
56.8732 4.042 0.205
56.8937 4.323 0.212
56.9141 3.719 0.197
56.9346 4.260 0.211
56.9551 3.917 0.202
56.9755 4.104 0.207
56.9960 4.125 0.207
57.0164 4.458 0.216
57.0369 4.146 0.208
57.0574 3.896 0.201
57.0778 3.802 0.199
57.0983 4.208 0.209
57.1188 4.177 0.209
57.1392 4.365 0.213
57.1597 4.146 0.208
57.1801 4.333 0.212
57.2006 3.823 0.200
57.2211 3.635 0.195
57.2415 4.198 0.209
57.2620 3.833 0.200
57.2825 3.979 0.204
57.3029 4.031 0.205
57.3234 3.802 0.199
57.3438 3.719 0.197
57.3643 3.698 0.196
57.3848 3.667 0.195
57.4052 3.917 0.202
57.4257 4.292 0.211
57.4462 4.323 0.212
57.4666 4.375 0.213
57.4871 4.458 0.216
57.5075 4.135 0.208
57.5280 4.063 0.206
57.5485 3.802 0.199
57.5689 4.344 0.213
57.5894 4.781 0.223
57.6099 4.219 0.210
57.6303 4.135 0.208
57.6508 4.531 0.217
57.6713 4.490 0.216
57.6917 4.594 0.219
57.7122 4.906 0.226
57.7326 5.135 0.231
57.7531 5.104 0.231
57.7736 4.740 0.222
57.7940 5.031 0.229
57.8145 6.021 0.250
57.8350 6.292 0.256
57.8554 7.813 0.285
57.8759 9.104 0.308
57.8963 10.521 0.331
57.9168 10.708 0.334
57.9373 9.219 0.310
57.9577 7.177 0.273
57.9782 6.750 0.265
57.9987 6.979 0.270
58.0191 6.646 0.263
58.0396 6.500 0.260
58.0600 8.281 0.294
58.0805 7.406 0.278
58.1010 6.750 0.265
58.1214 5.823 0.246
58.1419 5.615 0.242
58.1624 5.531 0.240
58.1828 4.406 0.214
58.2033 4.281 0.211
58.2237 4.490 0.216
58.2442 4.385 0.214
58.2647 3.771 0.198
58.2851 3.708 0.197
58.3056 4.115 0.207
58.3261 4.104 0.207
58.3465 4.188 0.209
58.3670 4.208 0.209
58.3874 4.031 0.205
58.4079 3.854 0.200
58.4284 3.969 0.203
58.4488 4.063 0.206
58.4693 3.854 0.200
58.4898 3.781 0.198
58.5102 4.177 0.209
58.5307 4.073 0.206
58.5512 4.063 0.206
58.5716 4.198 0.209
58.5921 4.094 0.207
58.6125 4.000 0.204
58.6330 4.146 0.208
58.6535 4.396 0.214
58.6739 4.156 0.208
58.6944 4.146 0.208
58.7149 4.427 0.215
58.7353 4.656 0.220
58.7558 4.302 0.212
58.7762 4.188 0.209
58.7967 4.635 0.220
58.8172 4.302 0.212
58.8376 4.615 0.219
58.8581 4.823 0.224
58.8786 4.750 0.222
58.8990 4.323 0.212
58.9195 4.417 0.214
58.9399 4.510 0.217
58.9604 4.646 0.220
58.9809 4.333 0.212
59.0013 4.500 0.217
59.0218 4.542 0.218
59.0423 4.240 0.210
59.0627 4.521 0.217
59.0832 4.406 0.214
59.1036 4.792 0.223
59.1241 4.542 0.218
59.1446 5.344 0.236
59.1650 5.229 0.233
59.1855 6.010 0.250
59.2060 6.844 0.267
59.2264 6.802 0.266
59.2469 6.438 0.259
59.2674 6.104 0.252
59.2878 5.323 0.235
59.3083 4.708 0.221
59.3287 4.625 0.219
59.3492 4.969 0.228
59.3697 5.292 0.235
59.3901 5.625 0.242
59.4106 5.073 0.230
59.4311 4.729 0.222
59.4515 4.375 0.213
59.4720 4.177 0.209
59.4924 4.021 0.205
59.5129 4.010 0.204
59.5334 4.427 0.215
59.5538 4.156 0.208
59.5743 4.156 0.208
59.5948 3.938 0.203
59.6152 4.469 0.216
59.6357 4.438 0.215
59.6561 4.375 0.213
59.6766 4.198 0.209
59.6971 4.417 0.214
59.7175 4.302 0.212
59.7380 4.646 0.220
59.7585 4.344 0.213
59.7789 4.542 0.218
59.7994 4.781 0.223
59.8198 4.896 0.226
59.8403 5.635 0.242
59.8608 6.813 0.266
59.8812 7.000 0.270
59.9017 7.031 0.271
59.9222 6.083 0.252
59.9426 5.198 0.233
59.9631 4.906 0.226
59.9835 5.219 0.233
60.0040 4.625 0.219
60.0245 5.385 0.237
60.0449 5.385 0.237
60.0654 5.583 0.241
60.0859 4.635 0.220
60.1063 4.406 0.214
60.1268 4.177 0.209
60.1473 3.781 0.198
60.1677 3.927 0.202
60.1882 3.646 0.195
60.2086 3.771 0.198
60.2291 3.865 0.201
60.2496 3.469 0.190
60.2700 3.688 0.196
60.2905 3.760 0.198
60.3110 3.448 0.190
60.3314 3.646 0.195
60.3519 3.583 0.193
60.3723 3.313 0.186
60.3928 2.865 0.173
60.4133 3.167 0.182
60.4337 3.448 0.190
60.4542 3.125 0.180
60.4747 3.354 0.187
60.4951 3.708 0.197
60.5156 3.250 0.184
60.5360 3.469 0.190
60.5565 3.198 0.183
60.5770 3.719 0.197
60.5974 3.594 0.193
60.6179 3.948 0.203
60.6384 3.802 0.199
60.6588 3.750 0.198
60.6793 3.427 0.189
60.6997 3.448 0.190
60.7202 3.792 0.199
60.7407 3.625 0.194
60.7611 3.615 0.194
60.7816 3.500 0.191
60.8021 3.573 0.193
60.8225 4.000 0.204
60.8430 3.979 0.204
60.8634 4.260 0.211
60.8839 3.792 0.199
60.9044 3.458 0.190
60.9248 3.563 0.193
60.9453 3.583 0.193
60.9658 4.042 0.205
60.9862 3.875 0.201
61.0067 3.417 0.189
61.0272 3.760 0.198
61.0476 4.167 0.208
61.0681 4.063 0.206
61.0885 4.115 0.207
61.1090 4.073 0.206
61.1295 3.698 0.196
61.1499 4.281 0.211
61.1704 3.688 0.196
61.1909 3.719 0.197
61.2113 3.448 0.190
61.2318 3.938 0.203
61.2522 3.563 0.193
61.2727 3.646 0.195
61.2932 3.448 0.190
61.3136 3.333 0.186
61.3341 3.604 0.194
61.3546 3.281 0.185
61.3750 3.552 0.192
61.3955 3.292 0.185
61.4159 3.417 0.189
61.4364 3.469 0.190
61.4569 3.292 0.185
61.4773 3.177 0.182
61.4978 3.448 0.190
61.5183 3.375 0.188
61.5387 3.354 0.187
61.5592 3.354 0.187
61.5796 3.521 0.192
61.6001 3.604 0.194
61.6206 3.490 0.191
61.6410 2.958 0.176
61.6615 3.281 0.185
61.6820 3.135 0.181
61.7024 3.552 0.192
61.7229 3.385 0.188
61.7433 3.281 0.185
61.7638 3.448 0.190
61.7843 3.521 0.192
61.8047 3.135 0.181
61.8252 3.406 0.188
61.8457 3.635 0.195
61.8661 3.292 0.185
61.8866 3.417 0.189
61.9071 3.271 0.185
61.9275 3.375 0.188
61.9480 3.469 0.190
61.9684 3.094 0.180
61.9889 3.188 0.182
62.0094 3.750 0.198
62.0298 3.677 0.196
62.0503 3.729 0.197
62.0708 3.688 0.196
62.0912 4.000 0.204
62.1117 4.458 0.216
62.1321 4.479 0.216
62.1526 4.979 0.228
62.1731 4.948 0.227
62.1935 4.573 0.218
62.2140 3.656 0.195
62.2345 3.948 0.203
62.2549 3.938 0.203
62.2754 4.271 0.211
62.2958 4.083 0.206
62.3163 4.479 0.216
62.3368 4.104 0.207
62.3572 3.802 0.199
62.3777 3.688 0.196
62.3982 3.438 0.189
62.4186 3.365 0.187
62.4391 3.417 0.189
62.4595 3.063 0.179
62.4800 3.188 0.182
62.5005 3.125 0.180
62.5209 3.396 0.188
62.5414 3.396 0.188
62.5619 3.344 0.187
62.5823 3.042 0.178
62.6028 3.229 0.183
62.6232 3.198 0.183
62.6437 3.063 0.179
62.6642 3.208 0.183
62.6846 3.292 0.185
62.7051 3.354 0.187
62.7256 2.865 0.173
62.7460 3.271 0.185
62.7665 3.385 0.188
62.7870 3.427 0.189
62.8074 3.458 0.190
62.8279 3.719 0.197
62.8483 3.354 0.187
62.8688 3.167 0.182
62.8893 3.063 0.179
62.9097 3.198 0.183
62.9302 3.500 0.191
62.9507 3.073 0.179
62.9711 3.250 0.184
62.9916 3.313 0.186
63.0120 2.917 0.174
63.0325 3.448 0.190
63.0530 3.354 0.187
63.0734 3.448 0.190
63.0939 3.344 0.187
63.1144 3.406 0.188
63.1348 3.083 0.179
63.1553 3.177 0.182
63.1757 3.083 0.179
63.1962 3.250 0.184
63.2167 3.323 0.186
63.2371 3.250 0.184
63.2576 3.344 0.187
63.2781 3.375 0.188
63.2985 3.021 0.177
63.3190 3.677 0.196
63.3394 3.438 0.189
63.3599 3.448 0.190
63.3804 3.781 0.198
63.4008 3.281 0.185
63.4213 3.521 0.192
63.4418 3.667 0.195
63.4622 3.458 0.190
63.4827 3.615 0.194
63.5032 3.479 0.190
63.5236 3.760 0.198
63.5441 3.875 0.201
63.5645 3.656 0.195
63.5850 4.042 0.205
63.6055 3.854 0.200
63.6259 4.052 0.205
63.6464 4.135 0.208
63.6669 4.542 0.218
63.6873 4.458 0.216
63.7078 4.563 0.218
63.7282 4.708 0.221
63.7487 4.854 0.225
63.7692 4.479 0.216
63.7896 4.625 0.219
63.8101 4.740 0.222
63.8306 4.698 0.221
63.8510 4.740 0.222
63.8715 4.688 0.221
63.8919 4.188 0.209
63.9124 4.875 0.225
63.9329 4.469 0.216
63.9533 4.906 0.226
63.9738 4.417 0.214
63.9943 4.906 0.226
64.0147 4.885 0.226
64.0352 5.344 0.236
64.0556 5.260 0.234
64.0761 4.729 0.222
64.0966 4.000 0.204
64.1170 4.115 0.207
64.1375 4.354 0.213
64.1580 4.104 0.207
64.1784 4.313 0.212
64.1989 4.229 0.210
64.2193 4.260 0.211
64.2398 4.448 0.215
64.2603 3.927 0.202
64.2807 3.583 0.193
64.3012 3.917 0.202
64.3217 3.427 0.189
64.3421 3.740 0.197
64.3626 4.250 0.210
64.3831 4.083 0.206
64.4035 3.927 0.202
64.4240 4.042 0.205
64.4444 3.896 0.201
64.4649 3.531 0.192
64.4854 3.969 0.203
64.5058 3.896 0.201
64.5263 4.635 0.220
64.5468 4.396 0.214
64.5672 4.708 0.221
64.5877 5.177 0.232
64.6081 5.635 0.242
64.6286 6.250 0.255
64.6491 6.750 0.265
64.6695 7.313 0.276
64.6900 7.490 0.279
64.7105 6.115 0.252
64.7309 5.771 0.245
64.7514 5.896 0.248
64.7718 6.083 0.252
64.7923 6.104 0.252
64.8128 5.875 0.247
64.8332 5.708 0.244
64.8537 5.729 0.244
64.8742 5.406 0.237
64.8946 5.073 0.230
64.9151 4.375 0.213
64.9355 4.573 0.218
64.9560 4.302 0.212
64.9765 4.292 0.211
64.9969 3.844 0.200
65.0174 3.802 0.199
65.0379 3.906 0.202
65.0583 3.833 0.200
65.0788 3.823 0.200
65.0992 3.740 0.197
65.1197 3.781 0.198
65.1402 3.240 0.184
65.1606 3.406 0.188
65.1811 3.438 0.189
65.2016 3.417 0.189
65.2220 3.469 0.190
65.2425 3.417 0.189
65.2630 3.375 0.188
65.2834 3.417 0.189
65.3039 3.427 0.189
65.3243 3.281 0.185
65.3448 3.250 0.184
65.3653 3.615 0.194
65.3857 3.156 0.181
65.4062 3.792 0.199
65.4267 3.438 0.189
65.4471 3.823 0.200
65.4676 3.396 0.188
65.4880 3.427 0.189
65.5085 3.958 0.203
65.5290 4.396 0.214
65.5494 4.865 0.225
65.5699 4.938 0.227
65.5904 5.156 0.232
65.6108 5.229 0.233
65.6313 5.552 0.240
65.6517 4.563 0.218
65.6722 4.635 0.220
65.6927 4.458 0.216
65.7131 4.000 0.204
65.7336 4.604 0.219
65.7541 4.542 0.218
65.7745 4.771 0.223
65.7950 4.771 0.223
65.8154 4.135 0.208
65.8359 4.094 0.207
65.8564 4.458 0.216
65.8768 4.125 0.207
65.8973 3.823 0.200
65.9178 4.000 0.204
65.9382 3.990 0.204
65.9587 3.979 0.204
65.9791 4.156 0.208
65.9996 4.271 0.211
66.0201 3.844 0.200
66.0405 4.250 0.210
66.0610 3.750 0.198
66.0815 3.875 0.201
66.1019 3.604 0.194
66.1224 3.875 0.201
66.1429 4.344 0.213
66.1633 4.375 0.213
66.1838 4.271 0.211
66.2042 4.063 0.206
66.2247 4.500 0.217
66.2452 4.604 0.219
66.2656 4.667 0.220
66.2861 4.719 0.222
66.3066 4.854 0.225
66.3270 4.385 0.214
66.3475 4.833 0.224
66.3679 4.573 0.218
66.3884 4.250 0.210
66.4089 3.906 0.202
66.4293 4.708 0.221
66.4498 4.198 0.209
66.4703 4.167 0.208
66.4907 4.427 0.215
66.5112 3.917 0.202
66.5316 4.156 0.208
66.5521 4.417 0.214
66.5726 4.031 0.205
66.5930 4.031 0.205
66.6135 3.927 0.202
66.6340 3.698 0.196
66.6544 3.792 0.199
66.6749 3.573 0.193
66.6953 3.854 0.200
66.7158 3.469 0.190
66.7363 3.792 0.199
66.7567 4.104 0.207
66.7772 3.958 0.203
66.7977 3.802 0.199
66.8181 3.833 0.200
66.8386 4.010 0.204
66.8590 4.031 0.205
66.8795 3.917 0.202
66.9000 3.948 0.203
66.9204 4.104 0.207
66.9409 3.854 0.200
66.9614 4.167 0.208
66.9818 4.073 0.206
67.0023 4.146 0.208
67.0228 4.635 0.220
67.0432 5.167 0.232
67.0637 5.948 0.249
67.0841 5.740 0.245
67.1046 7.156 0.273
67.1251 8.406 0.296
67.1455 8.479 0.297
67.1660 8.250 0.293
67.1865 7.979 0.288
67.2069 6.500 0.260
67.2274 6.219 0.255
67.2478 5.740 0.245
67.2683 5.500 0.239
67.2888 5.677 0.243
67.3092 6.240 0.255
67.3297 5.771 0.245
67.3502 6.135 0.253
67.3706 5.938 0.249
67.3911 5.125 0.231
67.4115 4.115 0.207
67.4320 4.188 0.209
67.4525 4.323 0.212
67.4729 3.260 0.184
67.4934 3.302 0.185
67.5139 3.969 0.203
67.5343 3.479 0.190
67.5548 3.198 0.183
67.5752 3.656 0.195
67.5957 3.521 0.192
67.6162 3.417 0.189
67.6366 3.490 0.191
67.6571 3.427 0.189
67.6776 3.792 0.199
67.6980 3.500 0.191
67.7185 3.677 0.196
67.7389 3.583 0.193
67.7594 3.813 0.199
67.7799 3.531 0.192
67.8003 3.583 0.193
67.8208 3.208 0.183
67.8413 3.802 0.199
67.8617 3.323 0.186
67.8822 3.531 0.192
67.9027 3.615 0.194
67.9231 3.906 0.202
67.9436 3.760 0.198
67.9640 3.385 0.188
67.9845 3.490 0.191
68.0050 3.625 0.194
68.0254 3.958 0.203
68.0459 4.448 0.215
68.0664 3.594 0.193
68.0868 3.656 0.195
68.1073 3.844 0.200
68.1277 3.490 0.191
68.1482 3.854 0.200
68.1687 3.823 0.200
68.1891 3.198 0.183
68.2096 4.188 0.209
68.2301 4.000 0.204
68.2505 3.979 0.204
68.2710 4.031 0.205
68.2914 4.208 0.209
68.3119 4.323 0.212
68.3324 4.844 0.225
68.3528 5.052 0.229
68.3733 5.302 0.235
68.3938 5.104 0.231
68.4142 4.281 0.211
68.4347 3.875 0.201
68.4551 4.146 0.208
68.4756 3.896 0.201
68.4961 4.156 0.208
68.5165 4.115 0.207
68.5370 4.010 0.204
68.5575 4.219 0.210
68.5779 4.458 0.216
68.5984 4.031 0.205
68.6189 3.958 0.203
68.6393 3.500 0.191
68.6598 3.813 0.199
68.6802 3.479 0.190
68.7007 3.563 0.193
68.7212 3.740 0.197
68.7416 3.792 0.199
68.7621 3.448 0.190
68.7826 3.719 0.197
68.8030 4.083 0.206
68.8235 3.708 0.197
68.8439 3.521 0.192
68.8644 3.854 0.200
68.8849 3.990 0.204
68.9053 4.313 0.212
68.9258 4.042 0.205
68.9463 4.396 0.214
68.9667 4.896 0.226
68.9872 5.021 0.229
69.0076 4.729 0.222
69.0281 4.479 0.216
69.0486 4.552 0.218
69.0690 3.615 0.194
69.0895 3.990 0.204
69.1100 3.844 0.200
69.1304 4.104 0.207
69.1509 3.885 0.201
69.1713 3.865 0.201
69.1918 3.750 0.198
69.2123 4.000 0.204
69.2327 4.229 0.210
69.2532 3.938 0.203
69.2737 4.281 0.211
69.2941 4.292 0.211
69.3146 3.875 0.201
69.3350 3.594 0.193
69.3555 3.115 0.180
69.3760 3.531 0.192
69.3964 3.677 0.196
69.4169 3.344 0.187
69.4374 3.458 0.190
69.4578 3.667 0.195
69.4783 3.635 0.195
69.4988 3.438 0.189
69.5192 3.375 0.188
69.5397 3.469 0.190
69.5601 3.115 0.180
69.5806 3.302 0.185
69.6011 3.052 0.178
69.6215 3.000 0.177
69.6420 3.135 0.181
69.6625 3.125 0.180
69.6829 3.146 0.181
69.7034 2.969 0.176
69.7238 2.885 0.173
69.7443 2.833 0.172
69.7648 2.938 0.175
69.7852 3.010 0.177
69.8057 3.021 0.177
69.8262 2.896 0.174
69.8466 2.896 0.174
69.8671 3.156 0.181
69.8875 2.948 0.175
69.9080 3.313 0.186
69.9285 3.302 0.185
69.9489 3.125 0.180
69.9694 3.198 0.183
69.9899 3.125 0.180
70.0103 2.906 0.174
70.0308 3.625 0.194
70.0512 3.156 0.181
70.0717 3.521 0.192
70.0922 3.344 0.187
70.1126 3.344 0.187
70.1331 3.292 0.185
70.1536 3.396 0.188
70.1740 3.250 0.184
70.1945 3.479 0.190
70.2149 3.104 0.180
70.2354 3.333 0.186
70.2559 2.802 0.171
70.2763 3.073 0.179
70.2968 3.021 0.177
70.3173 3.156 0.181
70.3377 3.250 0.184
70.3582 3.167 0.182
70.3787 3.146 0.181
70.3991 3.240 0.184
70.4196 3.208 0.183
70.4400 3.365 0.187
70.4605 2.656 0.166
70.4810 3.281 0.185
70.5014 3.323 0.186
70.5219 2.823 0.171
70.5424 3.281 0.185
70.5628 3.167 0.182
70.5833 2.823 0.171
70.6037 2.802 0.171
70.6242 3.167 0.182
70.6447 3.010 0.177
70.6651 3.135 0.181
70.6856 2.802 0.171
70.7061 3.010 0.177
70.7265 3.385 0.188
70.7470 2.813 0.171
70.7674 2.594 0.164
70.7879 3.010 0.177
70.8084 3.167 0.182
70.8288 2.844 0.172
70.8493 2.771 0.170
70.8698 3.083 0.179
70.8902 3.010 0.177
70.9107 2.906 0.174
70.9311 2.906 0.174
70.9516 2.865 0.173
70.9721 2.813 0.171
70.9925 3.000 0.177
71.0130 2.833 0.172
71.0335 3.458 0.190
71.0539 3.167 0.182
71.0744 3.240 0.184
71.0948 3.219 0.183
71.1153 2.906 0.174
71.1358 3.281 0.185
71.1562 2.875 0.173
71.1767 2.708 0.168
71.1972 2.781 0.170
71.2176 3.115 0.180
71.2381 2.635 0.166
71.2586 3.198 0.183
71.2790 3.167 0.182
71.2995 2.844 0.172
71.3199 2.677 0.167
71.3404 2.792 0.171
71.3609 2.708 0.168
71.3813 2.490 0.161
71.4018 2.927 0.175
71.4223 2.927 0.175
71.4427 2.792 0.171
71.4632 2.646 0.166
71.4836 2.896 0.174
71.5041 2.438 0.159
71.5246 2.958 0.176
71.5450 2.865 0.173
71.5655 2.531 0.162
71.5860 3.021 0.177
71.6064 3.292 0.185
71.6269 2.635 0.166
71.6473 2.865 0.173
71.6678 2.885 0.173
71.6883 2.813 0.171
71.7087 3.063 0.179
71.7292 3.104 0.180
71.7497 3.125 0.180
71.7701 2.781 0.170
71.7906 2.854 0.172
71.8110 2.844 0.172
71.8315 3.052 0.178
71.8520 2.396 0.158
71.8724 2.740 0.169
71.8929 2.646 0.166
71.9134 2.833 0.172
71.9338 2.917 0.174
71.9543 2.771 0.170
71.9747 2.917 0.174
71.9952 2.917 0.174
72.0157 3.031 0.178
72.0361 2.667 0.167
72.0566 2.708 0.168
72.0771 2.677 0.167
72.0975 2.344 0.156
72.1180 2.927 0.175
72.1385 2.604 0.165
72.1589 2.708 0.168
72.1794 2.333 0.156
72.1998 2.563 0.163
72.2203 2.448 0.160
72.2408 2.896 0.174
72.2612 2.729 0.169
72.2817 2.823 0.171
72.3022 2.833 0.172
72.3226 2.885 0.173
72.3431 2.573 0.164
72.3635 2.740 0.169
72.3840 2.396 0.158
72.4045 2.865 0.173
72.4249 2.771 0.170
72.4454 2.646 0.166
72.4659 2.604 0.165
72.4863 2.781 0.170
72.5068 2.583 0.164
72.5272 2.823 0.171
72.5477 2.750 0.169
72.5682 2.375 0.157
72.5886 2.833 0.172
72.6091 2.448 0.160
72.6296 2.594 0.164
72.6500 2.667 0.167
72.6705 2.594 0.164
72.6909 2.271 0.154
72.7114 2.938 0.175
72.7319 2.583 0.164
72.7523 2.813 0.171
72.7728 2.781 0.170
72.7933 2.813 0.171
72.8137 3.323 0.186
72.8342 2.833 0.172
72.8547 3.240 0.184
72.8751 3.292 0.185
72.8956 2.615 0.165
72.9160 2.802 0.171
72.9365 2.875 0.173
72.9570 2.677 0.167
72.9774 2.542 0.163
72.9979 2.854 0.172
73.0184 2.802 0.171
73.0388 2.615 0.165
73.0593 2.917 0.174
73.0797 2.750 0.169
73.1002 2.625 0.165
73.1207 2.594 0.164
73.1411 2.500 0.161
73.1616 2.333 0.156
73.1821 2.677 0.167
73.2025 2.188 0.151
73.2230 2.229 0.152
73.2434 2.625 0.165
73.2639 2.188 0.151
73.2844 2.250 0.153
73.3048 2.323 0.156
73.3253 2.125 0.149
73.3458 2.208 0.152
73.3662 2.573 0.164
73.3867 2.344 0.156
73.4071 2.125 0.149
73.4276 2.313 0.155
73.4481 2.396 0.158
73.4685 2.208 0.152
73.4890 2.188 0.151
73.5095 2.104 0.148
73.5299 2.260 0.153
73.5504 2.438 0.159
73.5708 2.219 0.152
73.5913 2.510 0.162
73.6118 2.302 0.155
73.6322 2.302 0.155
73.6527 2.323 0.156
73.6732 2.375 0.157
73.6936 2.146 0.150
73.7141 2.229 0.152
73.7346 2.281 0.154
73.7550 2.302 0.155
73.7755 2.188 0.151
73.7959 2.073 0.147
73.8164 2.313 0.155
73.8369 2.250 0.153
73.8573 2.250 0.153
73.8778 2.323 0.156
73.8983 2.271 0.154
73.9187 2.469 0.160
73.9392 2.563 0.163
73.9596 2.563 0.163
73.9801 2.521 0.162
74.0006 2.313 0.155
74.0210 2.729 0.169
74.0415 2.802 0.171
74.0620 2.906 0.174
74.0824 2.792 0.171
74.1029 2.823 0.171
74.1233 2.313 0.155
74.1438 2.531 0.162
74.1643 2.396 0.158
74.1847 2.865 0.173
74.2052 2.573 0.164
74.2257 2.479 0.161
74.2461 2.604 0.165
74.2666 2.656 0.166
74.2870 2.594 0.164
74.3075 2.667 0.167
74.3280 2.500 0.161
74.3484 2.500 0.161
74.3689 2.385 0.158
74.3894 2.656 0.166
74.4098 2.531 0.162
74.4303 2.469 0.160
74.4507 2.427 0.159
74.4712 2.458 0.160
74.4917 2.417 0.159
74.5121 2.344 0.156
74.5326 2.802 0.171
74.5531 2.104 0.148
74.5735 2.177 0.151
74.5940 2.427 0.159
74.6145 2.219 0.152
74.6349 2.323 0.156
74.6554 2.458 0.160
74.6758 2.469 0.160
74.6963 2.375 0.157
74.7168 2.333 0.156
74.7372 2.229 0.152
74.7577 2.406 0.158
74.7782 2.135 0.149
74.7986 2.521 0.162
74.8191 2.198 0.151
74.8395 2.219 0.152
74.8600 2.385 0.158
74.8805 2.104 0.148
74.9009 2.198 0.151
74.9214 2.365 0.157
74.9419 2.135 0.149
74.9623 2.365 0.157
74.9828 2.135 0.149
75.0032 2.354 0.157
75.0237 2.073 0.147
75.0442 2.208 0.152
75.0646 2.115 0.148
75.0851 2.177 0.151
75.1056 2.479 0.161
75.1260 2.344 0.156
75.1465 2.125 0.149
75.1669 2.438 0.159
75.1874 2.177 0.151
75.2079 2.385 0.158
75.2283 2.375 0.157
75.2488 2.313 0.155
75.2693 2.594 0.164
75.2897 2.615 0.165
75.3102 2.198 0.151
75.3306 2.427 0.159
75.3511 2.313 0.155
75.3716 2.271 0.154
75.3920 2.333 0.156
75.4125 2.396 0.158
75.4330 2.417 0.159
75.4534 2.240 0.153
75.4739 2.375 0.157
75.4944 2.510 0.162
75.5148 2.823 0.171
75.5353 2.458 0.160
75.5557 2.802 0.171
75.5762 2.729 0.169
75.5967 3.031 0.178
75.6171 2.771 0.170
75.6376 3.313 0.186
75.6581 3.063 0.179
75.6785 3.052 0.178
75.6990 3.281 0.185
75.7194 3.240 0.184
75.7399 3.542 0.192
75.7604 3.938 0.203
75.7808 4.250 0.210
75.8013 4.823 0.224
75.8218 3.885 0.201
75.8422 3.729 0.197
75.8627 3.750 0.198
75.8831 3.208 0.183
75.9036 2.896 0.174
75.9241 3.177 0.182
75.9445 3.125 0.180
75.9650 2.802 0.171
75.9855 3.250 0.184
76.0059 3.646 0.195
76.0264 3.333 0.186
76.0468 3.427 0.189
76.0673 3.323 0.186
76.0878 2.771 0.170
76.1082 2.875 0.173
76.1287 2.542 0.163
76.1492 2.729 0.169
76.1696 2.542 0.163
76.1901 2.417 0.159
76.2105 2.344 0.156
76.2310 2.490 0.161
76.2515 2.260 0.153
76.2719 2.375 0.157
76.2924 2.615 0.165
76.3129 2.260 0.153
76.3333 2.604 0.165
76.3538 2.594 0.164
76.3743 2.479 0.161
76.3947 2.594 0.164
76.4152 2.458 0.160
76.4356 2.531 0.162
76.4561 2.823 0.171
76.4766 2.323 0.156
76.4970 2.594 0.164
76.5175 2.635 0.166
76.5380 2.406 0.158
76.5584 2.438 0.159
76.5789 2.510 0.162
76.5993 2.146 0.150
76.6198 2.448 0.160
76.6403 2.479 0.161
76.6607 2.635 0.166
76.6812 2.260 0.153
76.7017 2.615 0.165
76.7221 2.302 0.155
76.7426 2.427 0.159
76.7630 2.563 0.163
76.7835 2.354 0.157
76.8040 2.583 0.164
76.8244 2.615 0.165
76.8449 2.354 0.157
76.8654 2.542 0.163
76.8858 2.510 0.162
76.9063 2.417 0.159
76.9267 2.417 0.159
76.9472 2.469 0.160
76.9677 2.417 0.159
76.9881 2.396 0.158
77.0086 2.469 0.160
77.0291 2.333 0.156
77.0495 2.427 0.159
77.0700 2.365 0.157
77.0905 2.573 0.164
77.1109 2.615 0.165
77.1314 2.635 0.166
77.1518 2.323 0.156
77.1723 2.385 0.158
77.1928 2.604 0.165
77.2132 2.406 0.158
77.2337 2.938 0.175
77.2542 2.667 0.167
77.2746 2.917 0.174
77.2951 2.792 0.171
77.3155 2.781 0.170
77.3360 2.979 0.176
77.3565 2.740 0.169
77.3769 3.042 0.178
77.3974 3.125 0.180
77.4179 3.156 0.181
77.4383 3.167 0.182
77.4588 3.177 0.182
77.4792 3.365 0.187
77.4997 3.458 0.190
77.5202 3.646 0.195
77.5406 3.792 0.199
77.5611 3.563 0.193
77.5816 3.510 0.191
77.6020 3.219 0.183
77.6225 3.323 0.186
77.6429 3.083 0.179
77.6634 3.146 0.181
77.6839 3.198 0.183
77.7043 2.708 0.168
77.7248 3.073 0.179
77.7453 2.792 0.171
77.7657 2.854 0.172
77.7862 3.052 0.178
77.8066 3.479 0.190
77.8271 3.427 0.189
77.8476 3.021 0.177
77.8680 2.740 0.169
77.8885 2.792 0.171
77.9090 2.760 0.170
77.9294 2.604 0.165
77.9499 2.802 0.171
77.9704 2.604 0.165
77.9908 2.979 0.176
78.0113 2.906 0.174
78.0317 2.781 0.170
78.0522 2.719 0.168
78.0727 2.490 0.161
78.0931 2.865 0.173
78.1136 2.719 0.168
78.1341 2.563 0.163
78.1545 2.719 0.168
78.1750 2.604 0.165
78.1954 2.563 0.163
78.2159 2.323 0.156
78.2364 2.344 0.156
78.2568 2.635 0.166
78.2773 2.375 0.157
78.2978 2.823 0.171
78.3182 2.667 0.167
78.3387 2.740 0.169
78.3591 3.021 0.177
78.3796 2.656 0.166
78.4001 2.667 0.167
78.4205 3.042 0.178
78.4410 2.854 0.172
78.4615 2.844 0.172
78.4819 2.740 0.169
78.5024 2.854 0.172
78.5228 2.844 0.172
78.5433 2.885 0.173
78.5638 2.854 0.172
78.5842 2.875 0.173
78.6047 2.656 0.166
78.6252 2.844 0.172
78.6456 2.781 0.170
78.6661 2.771 0.170
78.6865 2.740 0.169
78.7070 3.125 0.180
78.7275 2.656 0.166
78.7479 2.927 0.175
78.7684 2.854 0.172
78.7889 2.802 0.171
78.8093 2.427 0.159
78.8298 2.771 0.170
78.8503 2.750 0.169
78.8707 2.750 0.169
78.8912 2.854 0.172
78.9116 2.573 0.164
78.9321 2.875 0.173
78.9526 2.958 0.176
78.9730 2.510 0.162
78.9935 2.885 0.173
79.0140 2.615 0.165
79.0344 2.854 0.172
79.0549 2.781 0.170
79.0753 2.813 0.171
79.0958 2.760 0.170
79.1163 2.469 0.160
79.1367 2.708 0.168
79.1572 2.365 0.157
79.1777 3.104 0.180
79.1981 2.781 0.170
79.2186 2.698 0.168
79.2390 2.615 0.165
79.2595 2.906 0.174
79.2800 2.740 0.169
79.3004 2.625 0.165
79.3209 2.844 0.172
79.3414 2.656 0.166
79.3618 2.490 0.161
79.3823 2.708 0.168
79.4027 2.635 0.166
79.4232 2.698 0.168
79.4437 2.698 0.168
79.4641 2.865 0.173
79.4846 2.865 0.173
79.5051 3.177 0.182
79.5255 3.125 0.180
79.5460 3.010 0.177
79.5664 2.813 0.171
79.5869 2.969 0.176
79.6074 2.875 0.173
79.6278 2.729 0.169
79.6483 3.104 0.180
79.6688 2.740 0.169
79.6892 2.781 0.170
79.7097 2.708 0.168
79.7302 2.938 0.175
79.7506 2.490 0.161
79.7711 2.833 0.172
79.7915 3.031 0.178
79.8120 2.906 0.174
79.8325 2.979 0.176
79.8529 2.625 0.165
79.8734 2.469 0.160
79.8939 2.792 0.171
79.9143 2.948 0.175
79.9348 2.740 0.169
79.9552 2.760 0.170
79.9757 2.625 0.165
79.9962 2.740 0.169
