'Id: "" Comment: "" Operator: "Lab Manager" Anode: "Cu" Scantype: "Locked Coupled" TimePerStep: "96" X: "0" Y: "0" Z: "0" 
5.0000 21.198 0.470
5.0205 21.167 0.470
5.0409 21.250 0.470
5.0614 20.875 0.466
5.0819 21.354 0.472
5.1023 20.979 0.467
5.1228 20.563 0.463
5.1432 20.208 0.459
5.1637 21.010 0.468
5.1842 20.750 0.465
5.2046 20.552 0.463
5.2251 20.010 0.457
5.2456 20.271 0.460
5.2660 20.063 0.457
5.2865 19.760 0.454
5.3069 19.719 0.453
5.3274 19.573 0.452
5.3479 20.104 0.458
5.3683 19.521 0.451
5.3888 19.958 0.456
5.4093 20.542 0.463
5.4297 19.844 0.455
5.4502 19.917 0.455
5.4706 19.698 0.453
5.4911 19.104 0.446
5.5116 19.469 0.450
5.5320 19.979 0.456
5.5525 19.240 0.448
5.5730 19.583 0.452
5.5934 19.906 0.455
5.6139 20.479 0.462
5.6343 19.896 0.455
5.6548 19.292 0.448
5.6753 19.427 0.450
5.6957 19.406 0.450
5.7162 19.135 0.446
5.7367 18.698 0.441
5.7571 19.844 0.455
5.7776 19.125 0.446
5.7980 19.427 0.450
5.8185 18.875 0.443
5.8390 18.688 0.441
5.8594 19.479 0.450
5.8799 18.333 0.437
5.9004 18.521 0.439
5.9208 18.885 0.444
5.9413 17.990 0.433
5.9618 18.833 0.443
5.9822 19.146 0.447
6.0027 17.865 0.431
6.0231 18.969 0.445
6.0436 18.375 0.438
6.0641 17.969 0.433
6.0845 18.938 0.444
6.1050 18.500 0.439
6.1255 19.219 0.447
6.1459 18.698 0.441
6.1664 18.125 0.435
6.1868 19.177 0.447
6.2073 18.573 0.440
6.2278 18.698 0.441
6.2482 18.740 0.442
6.2687 18.594 0.440
6.2892 18.385 0.438
6.3096 17.927 0.432
6.3301 17.927 0.432
6.3505 18.198 0.435
6.3710 18.156 0.435
6.3915 18.083 0.434
6.4119 18.510 0.439
6.4324 18.208 0.436
6.4529 19.052 0.445
6.4733 17.979 0.433
6.4938 17.719 0.430
6.5142 18.479 0.439
6.5347 18.219 0.436
6.5552 18.729 0.442
6.5756 17.802 0.431
6.5961 18.354 0.437
6.6166 17.594 0.428
6.6370 17.833 0.431
6.6575 18.500 0.439
6.6779 17.615 0.428
6.6984 17.958 0.433
6.7189 17.917 0.432
6.7393 18.927 0.444
6.7598 18.531 0.439
6.7803 18.115 0.434
6.8007 17.313 0.425
6.8212 18.229 0.436
6.8417 18.260 0.436
6.8621 17.260 0.424
6.8826 18.583 0.440
6.9030 18.521 0.439
6.9235 18.667 0.441
6.9440 18.177 0.435
6.9644 18.146 0.435
6.9849 17.365 0.425
7.0054 18.604 0.440
7.0258 17.146 0.423
7.0463 17.760 0.430
7.0667 17.188 0.423
7.0872 18.073 0.434
7.1077 17.760 0.430
7.1281 18.094 0.434
7.1486 18.000 0.433
7.1691 18.333 0.437
7.1895 17.396 0.426
7.2100 18.260 0.436
7.2304 17.438 0.426
7.2509 18.365 0.437
7.2714 18.229 0.436
7.2918 17.990 0.433
7.3123 17.927 0.432
7.3328 17.917 0.432
7.3532 17.979 0.433
7.3737 17.646 0.429
7.3941 18.635 0.441
7.4146 17.969 0.433
7.4351 17.792 0.430
7.4555 17.146 0.423
7.4760 17.813 0.431
7.4965 18.552 0.440
7.5169 18.646 0.441
7.5374 17.573 0.428
7.5579 18.031 0.433
7.5783 18.052 0.434
7.5988 18.063 0.434
7.6192 17.552 0.428
7.6397 17.823 0.431
7.6602 17.875 0.432
7.6806 18.417 0.438
7.7011 17.719 0.430
7.7216 18.229 0.436
7.7420 17.760 0.430
7.7625 18.479 0.439
7.7829 18.083 0.434
7.8034 18.615 0.440
7.8239 18.292 0.437
7.8443 19.302 0.448
7.8648 18.052 0.434
7.8853 17.927 0.432
7.9057 18.458 0.438
7.9262 19.365 0.449
7.9466 17.990 0.433
7.9671 18.448 0.438
7.9876 18.979 0.445
8.0080 18.365 0.437
8.0285 17.240 0.424
8.0490 18.677 0.441
8.0694 17.823 0.431
8.0899 18.000 0.433
8.1103 18.646 0.441
8.1308 18.625 0.440
8.1513 18.260 0.436
8.1717 18.740 0.442
8.1922 17.740 0.430
8.2127 18.500 0.439
8.2331 18.167 0.435
8.2536 18.500 0.439
8.2740 18.427 0.438
8.2945 18.354 0.437
8.3150 18.677 0.441
8.3354 18.885 0.444
8.3559 18.260 0.436
8.3764 18.990 0.445
8.3968 18.448 0.438
8.4173 18.823 0.443
8.4378 18.823 0.443
8.4582 18.615 0.440
8.4787 17.646 0.429
8.4991 18.615 0.440
8.5196 18.615 0.440
8.5401 18.094 0.434
8.5605 17.708 0.429
8.5810 17.354 0.425
8.6015 18.260 0.436
8.6219 17.917 0.432
8.6424 18.073 0.434
8.6628 18.625 0.440
8.6833 18.625 0.440
8.7038 18.177 0.435
8.7242 18.396 0.438
8.7447 18.385 0.438
8.7652 18.896 0.444
8.7856 18.531 0.439
8.8061 19.063 0.446
8.8265 18.719 0.442
8.8470 18.969 0.445
8.8675 20.000 0.456
8.8879 19.688 0.453
8.9084 20.396 0.461
8.9289 20.333 0.460
8.9493 20.500 0.462
8.9698 19.229 0.448
8.9902 18.990 0.445
9.0107 19.313 0.449
9.0312 19.365 0.449
9.0516 19.385 0.449
9.0721 19.458 0.450
9.0926 19.719 0.453
9.1130 20.354 0.460
9.1335 20.188 0.459
9.1539 18.750 0.442
9.1744 19.573 0.452
9.1949 19.177 0.447
9.2153 19.604 0.452
9.2358 19.292 0.448
9.2563 19.552 0.451
9.2767 20.104 0.458
9.2972 20.021 0.457
9.3177 20.646 0.464
9.3381 19.813 0.454
9.3586 20.250 0.459
9.3790 20.615 0.463
9.3995 20.240 0.459
9.4200 21.240 0.470
9.4404 22.417 0.483
9.4609 21.813 0.477
9.4814 22.656 0.486
9.5018 25.677 0.517
9.5223 27.573 0.536
9.5427 30.521 0.564
9.5632 35.281 0.606
9.5837 39.938 0.645
9.6041 42.563 0.666
9.6246 46.583 0.697
9.6451 49.135 0.715
9.6655 53.063 0.743
9.6860 58.719 0.782
9.7064 65.688 0.827
9.7269 76.854 0.895
9.7474 93.510 0.987
9.7678 119.771 1.117
9.7883 166.417 1.317
9.8088 247.938 1.607
9.8292 383.302 1.998
9.8497 603.313 2.507
9.8701 963.844 3.169
9.8906 1246.813 3.604
9.9111 1001.000 3.229
9.9315 571.010 2.439
9.9520 292.552 1.746
9.9725 174.313 1.347
9.9929 126.427 1.148
10.0134 104.135 1.042
10.0338 88.792 0.962
10.0543 80.167 0.914
10.0748 73.448 0.875
10.0952 68.542 0.845
10.1157 62.146 0.805
10.1362 56.219 0.765
10.1566 50.260 0.724
10.1771 47.198 0.701
10.1976 42.083 0.662
10.2180 42.583 0.666
10.2385 38.490 0.633
10.2589 38.958 0.637
10.2794 37.938 0.629
10.2999 36.677 0.618
10.3203 36.208 0.614
10.3408 34.792 0.602
10.3613 35.583 0.609
10.3817 35.219 0.606
10.4022 33.865 0.594
10.4226 33.854 0.594
10.4431 33.667 0.592
10.4636 33.979 0.595
10.4840 35.896 0.611
10.5045 34.135 0.596
10.5250 34.542 0.600
10.5454 35.865 0.611
10.5659 35.531 0.608
10.5863 35.188 0.605
10.6068 36.156 0.614
10.6273 38.292 0.632
10.6477 38.708 0.635
10.6682 39.375 0.640
10.6887 42.573 0.666
10.7091 43.698 0.675
10.7296 43.500 0.673
10.7500 44.188 0.678
10.7705 41.094 0.654
10.7910 40.844 0.652
10.8114 37.156 0.622
10.8319 34.781 0.602
10.8524 30.271 0.562
10.8728 29.563 0.555
10.8933 25.510 0.515
10.9137 24.771 0.508
10.9342 23.052 0.490
10.9547 22.573 0.485
10.9751 21.990 0.479
10.9956 20.844 0.466
11.0161 20.240 0.459
11.0365 19.781 0.454
11.0570 19.417 0.450
11.0775 19.552 0.451
11.0979 19.344 0.449
11.1184 18.854 0.443
11.1388 17.865 0.431
11.1593 18.625 0.440
11.1798 18.219 0.436
11.2002 18.542 0.439
11.2207 18.031 0.433
11.2412 17.521 0.427
11.2616 16.667 0.417
11.2821 17.500 0.427
11.3025 17.302 0.425
11.3230 17.469 0.427
11.3435 16.927 0.420
11.3639 16.333 0.412
11.3844 16.979 0.421
11.4049 17.125 0.422
11.4253 17.125 0.422
11.4458 16.948 0.420
11.4662 16.052 0.409
11.4867 16.094 0.409
11.5072 16.375 0.413
11.5276 16.500 0.415
11.5481 16.219 0.411
11.5686 16.281 0.412
11.5890 16.229 0.411
11.6095 15.594 0.403
11.6299 16.135 0.410
11.6504 16.354 0.413
11.6709 15.604 0.403
11.6913 16.375 0.413
11.7118 16.396 0.413
11.7323 15.708 0.405
11.7527 15.438 0.401
11.7732 15.448 0.401
11.7937 15.365 0.400
11.8141 14.500 0.389
11.8346 14.802 0.393
11.8550 15.063 0.396
11.8755 14.813 0.393
11.8960 15.229 0.398
11.9164 14.948 0.395
11.9369 14.240 0.385
11.9574 14.542 0.389
11.9778 14.521 0.389
11.9983 14.323 0.386
12.0187 14.250 0.385
12.0392 14.427 0.388
12.0597 14.010 0.382
12.0801 13.354 0.373
12.1006 14.146 0.384
12.1211 13.583 0.376
12.1415 13.677 0.377
12.1620 14.156 0.384
12.1824 13.281 0.372
12.2029 13.698 0.378
12.2234 13.698 0.378
12.2438 13.646 0.377
12.2643 13.573 0.376
12.2848 13.031 0.368
12.3052 13.823 0.379
12.3257 14.229 0.385
12.3461 13.531 0.375
12.3666 13.625 0.377
12.3871 13.458 0.374
12.4075 13.385 0.373
12.4280 13.948 0.381
12.4485 12.979 0.368
12.4689 13.313 0.372
12.4894 13.646 0.377
12.5098 13.531 0.375
12.5303 12.594 0.362
12.5508 13.094 0.369
12.5712 12.417 0.360
12.5917 13.188 0.371
12.6122 13.219 0.371
12.6326 12.979 0.368
12.6531 12.594 0.362
12.6736 12.833 0.366
12.6940 12.729 0.364
12.7145 13.083 0.369
12.7349 12.094 0.355
12.7554 12.750 0.364
12.7759 12.427 0.360
12.7963 12.313 0.358
12.8168 12.479 0.361
12.8373 11.740 0.350
12.8577 12.083 0.355
12.8782 12.490 0.361
12.8986 12.313 0.358
12.9191 11.792 0.350
12.9396 12.844 0.366
12.9600 11.990 0.353
12.9805 12.458 0.360
13.0010 12.313 0.358
13.0214 11.594 0.348
13.0419 11.438 0.345
13.0623 11.646 0.348
13.0828 11.948 0.353
13.1033 11.417 0.345
13.1237 11.552 0.347
13.1442 11.427 0.345
13.1647 11.531 0.347
13.1851 10.833 0.336
13.2056 11.813 0.351
13.2260 11.250 0.342
13.2465 11.563 0.347
13.2670 11.573 0.347
13.2874 11.000 0.339
13.3079 11.000 0.339
13.3284 11.813 0.351
13.3488 11.240 0.342
13.3693 10.927 0.337
13.3897 11.385 0.344
13.4102 11.729 0.350
13.4307 10.708 0.334
13.4511 10.969 0.338
13.4716 11.042 0.339
13.4921 10.083 0.324
13.5125 11.063 0.339
13.5330 11.125 0.340
13.5535 10.979 0.338
13.5739 10.635 0.333
13.5944 10.552 0.332
13.6148 10.521 0.331
13.6353 10.354 0.328
13.6558 11.063 0.339
13.6762 10.896 0.337
13.6967 10.646 0.333
13.7172 10.000 0.323
13.7376 10.323 0.328
13.7581 10.448 0.330
13.7785 10.583 0.332
13.7990 10.052 0.324
13.8195 10.302 0.328
13.8399 10.250 0.327
13.8604 10.115 0.325
13.8809 10.365 0.329
13.9013 10.125 0.325
13.9218 9.979 0.322
13.9422 10.490 0.331
13.9627 9.688 0.318
13.9832 10.583 0.332
14.0036 10.313 0.328
14.0241 10.479 0.330
14.0446 10.625 0.333
14.0650 10.146 0.325
14.0855 10.354 0.328
14.1059 9.740 0.319
14.1264 10.000 0.323
14.1469 9.656 0.317
14.1673 9.813 0.320
14.1878 9.698 0.318
14.2083 10.375 0.329
14.2287 9.510 0.315
14.2492 9.385 0.313
14.2696 8.896 0.304
14.2901 10.271 0.327
14.3106 9.667 0.317
14.3310 9.292 0.311
14.3515 9.771 0.319
14.3720 9.771 0.319
14.3924 9.813 0.320
14.4129 9.875 0.321
14.4334 9.760 0.319
14.4538 9.792 0.319
14.4743 9.469 0.314
14.4947 9.208 0.310
14.5152 9.573 0.316
14.5357 9.188 0.309
14.5561 8.813 0.303
14.5766 9.698 0.318
14.5971 9.396 0.313
14.6175 9.938 0.322
14.6380 9.417 0.313
14.6584 9.729 0.318
14.6789 9.396 0.313
14.6994 9.729 0.318
14.7198 9.490 0.314
14.7403 8.948 0.305
14.7608 10.021 0.323
14.7812 9.552 0.315
14.8017 9.698 0.318
14.8221 9.021 0.307
14.8426 8.990 0.306
14.8631 8.719 0.301
14.8835 9.073 0.307
14.9040 9.698 0.318
14.9245 9.167 0.309
14.9449 8.844 0.304
14.9654 9.135 0.308
14.9858 9.229 0.310
15.0063 8.677 0.301
15.0268 8.990 0.306
15.0472 9.479 0.314
15.0677 8.760 0.302
15.0882 8.760 0.302
15.1086 8.896 0.304
15.1291 9.354 0.312
15.1495 9.135 0.308
15.1700 9.375 0.313
15.1905 9.146 0.309
15.2109 8.844 0.304
15.2314 9.500 0.315
15.2519 8.396 0.296
15.2723 8.604 0.299
15.2928 8.948 0.305
15.3133 9.208 0.310
15.3337 8.531 0.298
15.3542 9.281 0.311
15.3746 9.052 0.307
15.3951 9.073 0.307
15.4156 8.958 0.305
15.4360 8.563 0.299
15.4565 9.063 0.307
15.4770 8.656 0.300
15.4974 8.719 0.301
15.5179 8.417 0.296
15.5383 8.719 0.301
15.5588 8.781 0.302
15.5793 10.094 0.324
15.5997 8.583 0.299
15.6202 8.385 0.296
15.6407 9.146 0.309
15.6611 8.781 0.302
15.6816 8.771 0.302
15.7020 8.740 0.302
15.7225 8.646 0.300
15.7430 9.094 0.308
15.7634 8.750 0.302
15.7839 8.948 0.305
15.8044 8.646 0.300
15.8248 9.146 0.309
15.8453 8.833 0.303
15.8657 8.688 0.301
15.8862 8.729 0.302
15.9067 8.698 0.301
15.9271 8.250 0.293
15.9476 8.292 0.294
15.9681 8.958 0.305
15.9885 8.677 0.301
16.0090 8.854 0.304
16.0295 8.396 0.296
16.0499 8.448 0.297
16.0704 8.385 0.296
16.0908 8.219 0.293
16.1113 8.740 0.302
16.1318 8.865 0.304
16.1522 8.208 0.292
16.1727 8.740 0.302
16.1932 8.260 0.293
16.2136 7.896 0.287
16.2341 8.427 0.296
16.2545 8.385 0.296
16.2750 8.344 0.295
16.2955 8.615 0.300
16.3159 8.063 0.290
16.3364 8.115 0.291
16.3569 8.125 0.291
16.3773 8.229 0.293
16.3978 8.646 0.300
16.4182 7.906 0.287
16.4387 8.188 0.292
16.4592 8.313 0.294
16.4796 8.198 0.292
16.5001 7.938 0.288
16.5206 8.167 0.292
16.5410 7.677 0.283
16.5615 8.458 0.297
16.5819 8.156 0.291
16.6024 8.302 0.294
16.6229 8.188 0.292
16.6433 8.615 0.300
16.6638 8.365 0.295
16.6843 7.802 0.285
16.7047 7.688 0.283
16.7252 8.167 0.292
16.7456 8.458 0.297
16.7661 8.500 0.298
16.7866 8.719 0.301
16.8070 8.104 0.291
16.8275 7.917 0.287
16.8480 7.906 0.287
16.8684 8.469 0.297
16.8889 8.083 0.290
16.9094 8.083 0.290
16.9298 8.396 0.296
16.9503 8.240 0.293
16.9707 8.833 0.303
16.9912 8.396 0.296
17.0117 8.313 0.294
17.0321 8.063 0.290
17.0526 8.052 0.290
17.0731 7.958 0.288
17.0935 7.927 0.287
17.1140 8.594 0.299
17.1344 8.250 0.293
17.1549 7.979 0.288
17.1754 8.240 0.293
17.1958 7.865 0.286
17.2163 8.094 0.290
17.2368 8.042 0.289
17.2572 8.000 0.289
17.2777 8.479 0.297
17.2981 8.594 0.299
17.3186 8.885 0.304
17.3391 9.323 0.312
17.3595 10.104 0.324
17.3800 9.250 0.310
17.4005 9.792 0.319
17.4209 9.292 0.311
17.4414 9.563 0.316
17.4618 9.740 0.319
17.4823 9.813 0.320
17.5028 10.844 0.336
17.5232 10.646 0.333
17.5437 10.188 0.326
17.5642 9.906 0.321
17.5846 8.719 0.301
17.6051 8.656 0.300
17.6255 8.719 0.301
17.6460 8.677 0.301
17.6665 9.115 0.308
17.6869 9.531 0.315
17.7074 9.208 0.310
17.7279 9.510 0.315
17.7483 9.719 0.318
17.7688 10.292 0.327
17.7893 10.208 0.326
17.8097 10.792 0.335
17.8302 10.948 0.338
17.8506 11.073 0.340
17.8711 11.208 0.342
17.8916 10.927 0.337
17.9120 11.219 0.342
17.9325 12.010 0.354
17.9530 12.052 0.354
17.9734 12.833 0.366
17.9939 13.167 0.370
18.0143 14.667 0.391
18.0348 16.667 0.417
18.0553 18.281 0.436
18.0757 19.240 0.448
18.0962 19.833 0.455
18.1167 19.167 0.447
18.1371 17.531 0.427
18.1576 19.063 0.446
18.1780 19.927 0.456
18.1985 24.125 0.501
18.2190 29.500 0.554
18.2394 37.656 0.626
18.2599 47.479 0.703
18.2804 56.396 0.766
18.3008 62.448 0.807
18.3213 56.646 0.768
18.3417 50.302 0.724
18.3622 39.844 0.644
18.3827 32.323 0.580
18.4031 28.396 0.544
18.4236 27.917 0.539
18.4441 26.469 0.525
18.4645 25.302 0.513
18.4850 24.229 0.502
18.5054 24.073 0.501
18.5259 23.260 0.492
18.5464 22.667 0.486
18.5668 22.156 0.480
18.5873 21.021 0.468
18.6078 21.063 0.468
18.6282 20.531 0.462
18.6487 19.927 0.456
18.6692 19.906 0.455
18.6896 19.698 0.453
18.7101 18.333 0.437
18.7305 19.771 0.454
18.7510 19.219 0.447
18.7715 19.260 0.448
18.7919 19.302 0.448
18.8124 18.385 0.438
18.8329 16.208 0.411
18.8533 16.635 0.416
18.8738 14.792 0.393
18.8942 13.740 0.378
18.9147 12.698 0.364
18.9352 12.229 0.357
18.9556 12.115 0.355
18.9761 11.438 0.345
18.9966 11.490 0.346
19.0170 10.823 0.336
19.0375 10.698 0.334
19.0579 9.594 0.316
19.0784 9.760 0.319
19.0989 10.229 0.326
19.1193 10.240 0.327
19.1398 10.427 0.330
19.1603 10.500 0.331
19.1807 10.854 0.336
19.2012 11.104 0.340
19.2216 10.677 0.333
19.2421 11.052 0.339
19.2626 10.167 0.325
19.2830 10.281 0.327
19.3035 10.469 0.330
19.3240 10.406 0.329
19.3444 10.729 0.334
19.3649 11.531 0.347
19.3853 10.958 0.338
19.4058 11.177 0.341
19.4263 11.063 0.339
19.4467 12.438 0.360
19.4672 12.427 0.360
19.4877 12.760 0.365
19.5081 13.552 0.376
19.5286 13.240 0.371
19.5491 14.115 0.383
19.5695 14.760 0.392
19.5900 16.271 0.412
19.6104 16.979 0.421
19.6309 19.000 0.445
19.6514 19.573 0.452
19.6718 21.917 0.478
19.6923 23.542 0.495
19.7128 27.365 0.534
19.7332 33.479 0.591
19.7537 44.167 0.678
19.7741 66.646 0.833
19.7946 107.354 1.057
19.8151 193.552 1.420
19.8355 307.094 1.789
19.8560 292.458 1.745
19.8765 225.448 1.532
19.8969 195.927 1.429
19.9174 123.073 1.132
19.9378 72.542 0.869
19.9583 52.958 0.743
19.9788 42.458 0.665
19.9992 36.521 0.617
20.0197 32.552 0.582
20.0402 31.052 0.569
20.0606 27.906 0.539
20.0811 26.677 0.527
20.1015 24.156 0.502
20.1220 23.229 0.492
20.1425 23.385 0.494
20.1629 22.823 0.488
20.1834 23.021 0.490
20.2039 24.458 0.505
20.2243 28.458 0.544
20.2448 31.844 0.576
20.2653 34.990 0.604
20.2857 36.542 0.617
20.3062 35.490 0.608
20.3266 33.292 0.589
20.3471 28.781 0.548
20.3676 27.031 0.531
20.3880 24.865 0.509
20.4085 23.240 0.492
20.4290 22.563 0.485
20.4494 22.417 0.483
20.4699 22.906 0.488
20.4903 24.302 0.503
20.5108 24.604 0.506
20.5313 23.979 0.500
20.5517 23.000 0.489
20.5722 20.792 0.465
20.5927 19.417 0.450
20.6131 17.427 0.426
20.6336 16.760 0.418
20.6540 14.917 0.394
20.6745 14.271 0.386
20.6950 13.635 0.377
20.7154 13.563 0.376
20.7359 12.479 0.361
20.7564 12.677 0.363
20.7768 12.313 0.358
20.7973 12.219 0.357
20.8177 12.646 0.363
20.8382 12.375 0.359
20.8587 11.844 0.351
20.8791 12.292 0.358
20.8996 11.865 0.352
20.9201 12.031 0.354
20.9405 11.458 0.345
20.9610 11.385 0.344
20.9814 11.927 0.352
21.0019 11.740 0.350
21.0224 11.177 0.341
21.0428 12.406 0.359
21.0633 11.927 0.352
21.0838 11.635 0.348
21.1042 11.979 0.353
21.1247 12.125 0.355
21.1452 11.760 0.350
21.1656 11.521 0.346
21.1861 11.979 0.353
21.2065 11.479 0.346
21.2270 12.104 0.355
21.2475 12.219 0.357
21.2679 11.854 0.351
21.2884 12.083 0.355
21.3089 12.313 0.358
21.3293 12.177 0.356
21.3498 11.969 0.353
21.3702 12.615 0.362
21.3907 12.521 0.361
21.4112 12.094 0.355
21.4316 12.646 0.363
21.4521 13.000 0.368
21.4726 12.948 0.367
21.4930 13.125 0.370
21.5135 13.104 0.369
21.5339 13.844 0.380
21.5544 13.260 0.372
21.5749 14.052 0.383
21.5953 14.677 0.391
21.6158 13.781 0.379
21.6363 14.260 0.385
21.6567 14.531 0.389
21.6772 14.896 0.394
21.6976 14.115 0.383
21.7181 14.406 0.387
21.7386 14.333 0.386
21.7590 14.031 0.382
21.7795 14.438 0.388
21.8000 13.115 0.370
21.8204 13.500 0.375
21.8409 12.875 0.366
21.8613 12.427 0.360
21.8818 11.615 0.348
21.9023 12.031 0.354
21.9227 12.979 0.368
21.9432 12.990 0.368
21.9637 12.958 0.367
21.9841 12.563 0.362
22.0046 13.458 0.374
22.0251 14.844 0.393
22.0455 16.063 0.409
22.0660 16.656 0.417
22.0864 20.719 0.465
22.1069 25.552 0.516
22.1274 34.135 0.596
22.1478 45.521 0.689
22.1683 61.052 0.797
22.1888 65.417 0.825
22.2092 55.979 0.764
22.2297 47.677 0.705
22.2501 38.635 0.634
22.2706 28.646 0.546
22.2911 20.948 0.467
22.3115 17.260 0.424
22.3320 15.271 0.399
22.3525 14.052 0.383
22.3729 12.781 0.365
22.3934 12.417 0.360
22.4138 11.865 0.352
22.4343 10.875 0.337
22.4548 11.083 0.340
22.4752 10.292 0.327
22.4957 10.000 0.323
22.5162 9.365 0.312
22.5366 9.583 0.316
22.5571 9.740 0.319
22.5775 9.375 0.313
22.5980 9.385 0.313
22.6185 8.490 0.297
22.6389 9.031 0.307
22.6594 9.021 0.307
22.6799 8.406 0.296
22.7003 8.823 0.303
22.7208 9.000 0.306
22.7412 8.125 0.291
22.7617 8.771 0.302
22.7822 8.708 0.301
22.8026 8.948 0.305
22.8231 8.688 0.301
22.8436 8.885 0.304
22.8640 8.031 0.289
22.8845 8.521 0.298
22.9050 8.292 0.294
22.9254 8.417 0.296
22.9459 8.271 0.294
22.9663 8.094 0.290
22.9868 8.458 0.297
23.0073 8.521 0.298
23.0277 8.958 0.305
23.0482 8.771 0.302
23.0687 8.271 0.294
23.0891 8.052 0.290
23.1096 8.333 0.295
23.1300 7.708 0.283
23.1505 7.781 0.285
23.1710 7.427 0.278
23.1914 7.698 0.283
23.2119 7.656 0.282
23.2324 7.781 0.285
23.2528 7.625 0.282
23.2733 7.906 0.287
23.2937 7.573 0.281
23.3142 7.479 0.279
23.3347 7.188 0.274
23.3551 7.135 0.273
23.3756 7.354 0.277
23.3961 7.271 0.275
23.4165 7.667 0.283
23.4370 7.188 0.274
23.4574 7.438 0.278
23.4779 7.125 0.272
23.4984 7.615 0.282
23.5188 7.115 0.272
23.5393 7.531 0.280
23.5598 7.854 0.286
23.5802 7.719 0.284
23.6007 7.792 0.285
23.6211 7.438 0.278
23.6416 7.792 0.285
23.6621 7.875 0.286
23.6825 7.604 0.281
23.7030 7.510 0.280
23.7235 7.156 0.273
23.7439 7.688 0.283
23.7644 7.698 0.283
23.7849 7.302 0.276
23.8053 7.583 0.281
23.8258 7.938 0.288
23.8462 7.781 0.285
23.8667 7.313 0.276
23.8872 6.750 0.265
23.9076 7.281 0.275
23.9281 6.823 0.267
23.9486 7.635 0.282
23.9690 6.583 0.262
23.9895 7.260 0.275
24.0099 6.906 0.268
24.0304 7.146 0.273
24.0509 7.375 0.277
24.0713 7.552 0.280
24.0918 6.833 0.267
24.1123 7.490 0.279
24.1327 7.323 0.276
24.1532 7.250 0.275
24.1736 7.448 0.279
24.1941 7.990 0.288
24.2146 7.802 0.285
24.2350 8.365 0.295
24.2555 9.229 0.310
24.2760 10.229 0.326
24.2964 11.375 0.344
24.3169 12.750 0.364
24.3373 12.563 0.362
24.3578 12.219 0.357
24.3783 11.646 0.348
24.3987 9.917 0.321
24.4192 8.990 0.306
24.4397 8.573 0.299
24.4601 7.833 0.286
24.4806 7.510 0.280
24.5011 7.760 0.284
24.5215 7.500 0.280
24.5420 7.583 0.281
24.5624 7.083 0.272
24.5829 7.021 0.270
24.6034 7.333 0.276
24.6238 7.521 0.280
24.6443 6.833 0.267
24.6648 6.802 0.266
24.6852 7.385 0.277
24.7057 7.083 0.272
24.7261 7.000 0.270
24.7466 6.896 0.268
24.7671 7.323 0.276
24.7875 7.063 0.271
24.8080 6.990 0.270
24.8285 7.146 0.273
24.8489 7.219 0.274
24.8694 7.198 0.274
24.8898 7.167 0.273
24.9103 7.250 0.275
24.9308 6.979 0.270
24.9512 6.760 0.265
24.9717 6.958 0.269
24.9922 7.313 0.276
25.0126 6.813 0.266
25.0331 6.896 0.268
25.0535 6.625 0.263
25.0740 6.760 0.265
25.0945 6.573 0.262
25.1149 6.792 0.266
25.1354 6.229 0.255
25.1559 6.698 0.264
25.1763 6.958 0.269
25.1968 7.010 0.270
25.2172 6.969 0.269
25.2377 6.802 0.266
25.2582 6.500 0.260
25.2786 7.094 0.272
25.2991 6.917 0.268
25.3196 6.427 0.259
25.3400 6.896 0.268
25.3605 7.083 0.272
25.3810 6.344 0.257
25.4014 6.813 0.266
25.4219 6.333 0.257
25.4423 6.531 0.261
25.4628 6.510 0.260
25.4833 6.938 0.269
25.5037 7.167 0.273
25.5242 6.844 0.267
25.5447 6.448 0.259
25.5651 6.552 0.261
25.5856 6.469 0.260
25.6060 6.542 0.261
25.6265 6.844 0.267
25.6470 6.521 0.261
25.6674 6.948 0.269
25.6879 6.833 0.267
25.7084 6.792 0.266
25.7288 6.771 0.266
25.7493 6.854 0.267
25.7697 6.615 0.262
25.7902 6.583 0.262
25.8107 6.448 0.259
25.8311 6.708 0.264
25.8516 6.302 0.256
25.8721 6.177 0.254
25.8925 6.656 0.263
25.9130 6.406 0.258
25.9334 6.594 0.262
25.9539 6.208 0.254
25.9744 6.729 0.265
25.9948 6.500 0.260
26.0153 6.760 0.265
26.0358 6.625 0.263
26.0562 6.677 0.264
26.0767 6.813 0.266
26.0971 6.698 0.264
26.1176 7.010 0.270
26.1381 6.490 0.260
26.1585 6.281 0.256
26.1790 6.948 0.269
26.1995 7.146 0.273
26.2199 7.219 0.274
26.2404 7.010 0.270
26.2609 7.323 0.276
26.2813 6.854 0.267
26.3018 7.000 0.270
26.3222 6.927 0.269
26.3427 7.188 0.274
26.3632 6.917 0.268
26.3836 7.094 0.272
26.4041 7.396 0.278
26.4246 7.500 0.280
26.4450 7.302 0.276
26.4655 7.375 0.277
26.4859 7.813 0.285
26.5064 8.083 0.290
26.5269 7.365 0.277
26.5473 7.719 0.284
26.5678 8.510 0.298
26.5883 7.885 0.287
26.6087 7.938 0.288
26.6292 7.271 0.275
26.6496 7.688 0.283
26.6701 7.969 0.288
26.6906 7.729 0.284
26.7110 8.063 0.290
26.7315 7.458 0.279
26.7520 7.750 0.284
26.7724 8.510 0.298
26.7929 8.771 0.302
26.8133 9.490 0.314
26.8338 8.854 0.304
26.8543 9.823 0.320
26.8747 9.885 0.321
26.8952 9.885 0.321
26.9157 9.615 0.316
26.9361 9.031 0.307
26.9566 9.083 0.308
26.9770 8.323 0.294
26.9975 8.073 0.290
27.0180 7.958 0.288
27.0384 7.833 0.286
27.0589 6.938 0.269
27.0794 7.396 0.278
27.0998 7.333 0.276
27.1203 7.417 0.278
27.1408 6.198 0.254
27.1612 6.792 0.266
27.1817 6.698 0.264
27.2021 6.948 0.269
27.2226 6.958 0.269
27.2431 6.844 0.267
27.2635 6.833 0.267
27.2840 7.083 0.272
27.3045 6.750 0.265
27.3249 6.740 0.265
27.3454 6.635 0.263
27.3658 6.688 0.264
27.3863 6.969 0.269
27.4068 6.760 0.265
27.4272 6.823 0.267
27.4477 6.792 0.266
27.4682 6.271 0.256
27.4886 6.406 0.258
27.5091 6.792 0.266
27.5295 6.844 0.267
27.5500 7.021 0.270
27.5705 6.969 0.269
27.5909 6.719 0.265
27.6114 6.698 0.264
27.6319 7.188 0.274
27.6523 7.083 0.272
27.6728 7.354 0.277
27.6932 7.292 0.276
27.7137 7.167 0.273
27.7342 7.906 0.287
27.7546 8.073 0.290
27.7751 7.271 0.275
27.7956 7.656 0.282
27.8160 7.792 0.285
27.8365 8.021 0.289
27.8569 8.427 0.296
27.8774 7.896 0.287
27.8979 8.906 0.305
27.9183 8.781 0.302
27.9388 8.510 0.298
27.9593 8.958 0.305
27.9797 9.094 0.308
28.0002 8.521 0.298
28.0207 8.552 0.298
28.0411 8.302 0.294
28.0616 7.938 0.288
28.0820 8.167 0.292
28.1025 8.052 0.290
28.1230 7.844 0.286
28.1434 7.271 0.275
28.1639 7.573 0.281
28.1844 7.271 0.275
28.2048 7.083 0.272
28.2253 7.135 0.273
28.2457 6.573 0.262
28.2662 6.969 0.269
28.2867 6.688 0.264
28.3071 6.365 0.257
28.3276 6.156 0.253
28.3481 6.823 0.267
28.3685 6.865 0.267
28.3890 6.438 0.259
28.4094 6.792 0.266
28.4299 6.208 0.254
28.4504 6.281 0.256
28.4708 6.781 0.266
28.4913 6.427 0.259
28.5118 6.531 0.261
28.5322 6.438 0.259
28.5527 6.656 0.263
28.5731 6.729 0.265
28.5936 6.719 0.265
28.6141 6.958 0.269
28.6345 7.250 0.275
28.6550 7.010 0.270
28.6755 7.063 0.271
28.6959 7.385 0.277
28.7164 7.240 0.275
28.7368 7.969 0.288
28.7573 7.948 0.288
28.7778 7.979 0.288
28.7982 8.375 0.295
28.8187 7.563 0.281
28.8392 7.292 0.276
28.8596 6.938 0.269
28.8801 6.865 0.267
28.9006 6.750 0.265
28.9210 6.646 0.263
28.9415 6.281 0.256
28.9619 6.688 0.264
28.9824 6.760 0.265
29.0029 6.177 0.254
29.0233 6.583 0.262
29.0438 6.385 0.258
29.0643 6.510 0.260
29.0847 6.708 0.264
29.1052 6.229 0.255
29.1256 6.500 0.260
29.1461 6.938 0.269
29.1666 6.156 0.253
29.1870 6.594 0.262
29.2075 7.031 0.271
29.2280 7.760 0.284
29.2484 8.719 0.301
29.2689 10.802 0.335
29.2893 12.260 0.357
29.3098 12.260 0.357
29.3303 12.667 0.363
29.3507 12.021 0.354
29.3712 10.458 0.330
29.3917 9.948 0.322
29.4121 9.031 0.307
29.4326 8.406 0.296
29.4530 7.052 0.271
29.4735 6.771 0.266
29.4940 6.563 0.261
29.5144 6.063 0.251
29.5349 6.000 0.250
29.5554 6.198 0.254
29.5758 6.104 0.252
29.5963 5.927 0.248
29.6168 5.719 0.244
29.6372 5.771 0.245
29.6577 6.219 0.255
29.6781 6.510 0.260
29.6986 6.188 0.254
29.7191 5.990 0.250
29.7395 6.083 0.252
29.7600 5.958 0.249
29.7805 6.031 0.251
29.8009 6.156 0.253
29.8214 6.104 0.252
29.8418 5.708 0.244
29.8623 5.719 0.244
29.8828 5.750 0.245
29.9032 5.948 0.249
29.9237 6.375 0.258
29.9442 6.531 0.261
29.9646 6.229 0.255
29.9851 6.333 0.257
30.0055 6.229 0.255
30.0260 6.417 0.259
30.0465 5.646 0.243
30.0669 6.271 0.256
30.0874 6.000 0.250
30.1079 5.938 0.249
30.1283 5.927 0.248
30.1488 5.781 0.245
30.1692 6.260 0.255
30.1897 5.698 0.244
30.2102 5.771 0.245
30.2306 5.875 0.247
30.2511 5.740 0.245
30.2716 6.188 0.254
30.2920 5.854 0.247
30.3125 5.802 0.246
30.3329 5.531 0.240
30.3534 5.542 0.240
30.3739 5.448 0.238
30.3943 5.583 0.241
30.4148 5.833 0.247
30.4353 5.823 0.246
30.4557 5.667 0.243
30.4762 6.104 0.252
30.4967 6.417 0.259
30.5171 5.667 0.243
30.5376 5.844 0.247
30.5580 6.135 0.253
30.5785 6.156 0.253
30.5990 5.896 0.248
30.6194 5.969 0.249
30.6399 6.271 0.256
30.6604 6.458 0.259
30.6808 6.219 0.255
30.7013 5.875 0.247
30.7217 6.344 0.257
30.7422 6.792 0.266
30.7627 6.563 0.261
30.7831 7.365 0.277
30.8036 7.083 0.272
30.8241 6.927 0.269
30.8445 7.563 0.281
30.8650 9.000 0.306
30.8854 8.865 0.304
30.9059 10.490 0.331
30.9264 13.844 0.380
30.9468 19.031 0.445
30.9673 28.135 0.541
30.9878 42.229 0.663
31.0082 53.729 0.748
31.0287 51.115 0.730
31.0491 39.667 0.643
31.0696 33.938 0.595
31.0901 35.958 0.612
31.1105 29.615 0.555
31.1310 20.021 0.457
31.1515 15.323 0.400
31.1719 13.021 0.368
31.1924 11.500 0.346
31.2128 10.708 0.334
31.2333 9.177 0.309
31.2538 9.104 0.308
31.2742 8.938 0.305
31.2947 8.177 0.292
31.3152 7.417 0.278
31.3356 7.240 0.275
31.3561 6.906 0.268
31.3766 6.969 0.269
31.3970 6.271 0.256
31.4175 6.708 0.264
31.4379 6.531 0.261
31.4584 6.344 0.257
31.4789 6.292 0.256
31.4993 6.729 0.265
31.5198 6.698 0.264
31.5403 6.260 0.255
31.5607 6.656 0.263
31.5812 6.083 0.252
31.6016 6.396 0.258
31.6221 6.604 0.262
31.6426 6.542 0.261
31.6630 6.385 0.258
31.6835 6.354 0.257
31.7040 6.510 0.260
31.7244 6.510 0.260
31.7449 6.271 0.256
31.7653 6.344 0.257
31.7858 7.135 0.273
31.8063 6.688 0.264
31.8267 7.417 0.278
31.8472 6.813 0.266
31.8677 6.688 0.264
31.8881 6.740 0.265
31.9086 7.521 0.280
31.9290 7.115 0.272
31.9495 7.760 0.284
31.9700 8.156 0.291
31.9904 8.313 0.294
32.0109 7.927 0.287
32.0314 8.729 0.302
32.0518 9.375 0.313
32.0723 9.542 0.315
32.0927 10.865 0.336
32.1132 10.844 0.336
32.1337 10.938 0.338
32.1541 10.604 0.332
32.1746 9.813 0.320
32.1951 10.292 0.327
32.2155 9.542 0.315
32.2360 9.229 0.310
32.2565 9.073 0.307
32.2769 9.229 0.310
32.2974 8.802 0.303
32.3178 8.719 0.301
32.3383 8.427 0.296
32.3588 8.104 0.291
32.3792 8.042 0.289
32.3997 7.740 0.284
32.4202 8.021 0.289
32.4406 7.719 0.284
32.4611 7.625 0.282
32.4815 8.000 0.289
32.5020 8.698 0.301
32.5225 9.656 0.317
32.5429 11.156 0.341
32.5634 12.781 0.365
32.5839 17.240 0.424
32.6043 21.021 0.468
32.6248 24.219 0.502
32.6452 21.333 0.471
32.6657 17.958 0.433
32.6862 17.031 0.421
32.7066 16.885 0.419
32.7271 14.906 0.394
32.7476 12.292 0.358
32.7680 9.802 0.320
32.7885 8.854 0.304
32.8089 8.594 0.299
32.8294 8.021 0.289
32.8499 7.677 0.283
32.8703 7.719 0.284
32.8908 7.219 0.274
32.9113 7.250 0.275
32.9317 7.354 0.277
32.9522 7.031 0.271
32.9726 6.781 0.266
32.9931 7.115 0.272
33.0136 6.479 0.260
33.0340 6.573 0.262
33.0545 6.823 0.267
33.0750 6.490 0.260
33.0954 7.146 0.273
33.1159 7.083 0.272
33.1364 6.427 0.259
33.1568 6.271 0.256
33.1773 6.188 0.254
33.1977 6.625 0.263
33.2182 6.583 0.262
33.2387 6.646 0.263
33.2591 6.354 0.257
33.2796 5.740 0.245
33.3001 6.042 0.251
33.3205 5.833 0.247
33.3410 6.167 0.253
33.3614 6.302 0.256
33.3819 6.344 0.257
33.4024 6.135 0.253
33.4228 5.865 0.247
33.4433 5.927 0.248
33.4638 5.917 0.248
33.4842 6.083 0.252
33.5047 6.083 0.252
33.5251 5.958 0.249
33.5456 6.146 0.253
33.5661 5.646 0.243
33.5865 5.063 0.230
33.6070 5.510 0.240
33.6275 5.260 0.234
33.6479 5.646 0.243
33.6684 5.938 0.249
33.6888 5.698 0.244
33.7093 5.667 0.243
33.7298 6.531 0.261
33.7502 6.073 0.252
33.7707 5.896 0.248
33.7912 5.833 0.247
33.8116 5.823 0.246
33.8321 6.448 0.259
33.8526 6.042 0.251
33.8730 6.042 0.251
33.8935 6.323 0.257
33.9139 5.771 0.245
33.9344 5.479 0.239
33.9549 5.740 0.245
33.9753 6.104 0.252
33.9958 6.010 0.250
34.0163 5.375 0.237
34.0367 5.646 0.243
34.0572 5.552 0.240
34.0776 6.323 0.257
34.0981 5.854 0.247
34.1186 5.906 0.248
34.1390 5.833 0.247
34.1595 5.927 0.248
34.1800 5.260 0.234
34.2004 5.292 0.235
34.2209 5.708 0.244
34.2413 5.563 0.241
34.2618 5.708 0.244
34.2823 5.802 0.246
34.3027 5.771 0.245
34.3232 5.125 0.231
34.3437 5.760 0.245
34.3641 5.677 0.243
34.3846 5.760 0.245
34.4050 5.417 0.238
34.4255 5.240 0.234
34.4460 5.813 0.246
34.4664 5.969 0.249
34.4869 5.125 0.231
34.5074 5.260 0.234
34.5278 5.510 0.240
34.5483 5.531 0.240
34.5687 5.229 0.233
34.5892 5.469 0.239
34.6097 5.406 0.237
34.6301 4.938 0.227
34.6506 5.458 0.238
34.6711 5.917 0.248
34.6915 5.490 0.239
34.7120 5.563 0.241
34.7325 5.021 0.229
34.7529 5.438 0.238
34.7734 5.313 0.235
34.7938 5.188 0.232
34.8143 5.010 0.228
34.8348 5.458 0.238
34.8552 5.271 0.234
34.8757 5.385 0.237
34.8962 5.510 0.240
34.9166 5.208 0.233
34.9371 5.115 0.231
34.9575 5.302 0.235
34.9780 5.219 0.233
34.9985 5.365 0.236
35.0189 4.917 0.226
35.0394 5.208 0.233
35.0599 5.490 0.239
35.0803 5.521 0.240
35.1008 5.333 0.236
35.1212 5.563 0.241
35.1417 5.823 0.246
35.1622 5.208 0.233
35.1826 5.323 0.235
35.2031 5.344 0.236
35.2236 5.375 0.237
35.2440 5.156 0.232
35.2645 5.198 0.233
35.2849 5.427 0.238
35.3054 5.469 0.239
35.3259 5.177 0.232
35.3463 5.302 0.235
35.3668 6.135 0.253
35.3873 5.823 0.246
35.4077 5.344 0.236
35.4282 5.906 0.248
35.4486 5.792 0.246
35.4691 5.667 0.243
35.4896 5.573 0.241
35.5100 5.573 0.241
35.5305 5.604 0.242
35.5510 5.510 0.240
35.5714 5.604 0.242
35.5919 5.667 0.243
35.6124 5.219 0.233
35.6328 5.406 0.237
35.6533 5.646 0.243
35.6737 5.885 0.248
35.6942 5.531 0.240
35.7147 6.000 0.250
35.7351 6.219 0.255
35.7556 5.792 0.246
35.7761 6.604 0.262
35.7965 6.469 0.260
35.8170 5.885 0.248
35.8374 6.688 0.264
35.8579 6.427 0.259
35.8784 6.573 0.262
35.8988 6.927 0.269
35.9193 7.771 0.285
35.9398 8.031 0.289
35.9602 8.865 0.304
35.9807 9.479 0.314
36.0011 9.333 0.312
36.0216 10.292 0.327
36.0421 9.625 0.317
36.0625 9.906 0.321
36.0830 9.885 0.321
36.1035 11.000 0.339
36.1239 10.635 0.333
36.1444 9.688 0.318
36.1648 9.646 0.317
36.1853 9.427 0.313
36.2058 9.729 0.318
36.2262 9.885 0.321
36.2467 9.917 0.321
36.2672 9.740 0.319
36.2876 9.344 0.312
36.3081 9.615 0.316
36.3285 10.167 0.325
36.3490 11.083 0.340
36.3695 10.906 0.337
36.3899 11.792 0.350
36.4104 11.813 0.351
36.4309 11.771 0.350
36.4513 12.802 0.365
36.4718 14.063 0.383
36.4923 14.719 0.392
36.5127 16.073 0.409
36.5332 18.438 0.438
36.5536 23.448 0.494
36.5741 29.917 0.558
36.5946 34.615 0.600
36.6150 34.396 0.599
36.6355 27.115 0.531
36.6560 24.906 0.509
36.6764 24.823 0.508
36.6969 25.865 0.519
36.7173 21.573 0.474
36.7378 17.854 0.431
36.7583 14.375 0.387
36.7787 13.302 0.372
36.7992 12.500 0.361
36.8197 12.688 0.364
36.8401 12.344 0.359
36.8606 12.063 0.354
36.8810 13.448 0.374
36.9015 13.448 0.374
36.9220 13.656 0.377
36.9424 15.219 0.398
36.9629 16.156 0.410
36.9834 17.719 0.430
37.0038 22.271 0.482
37.0243 25.271 0.513
37.0447 32.948 0.586
37.0652 39.688 0.643
37.0857 43.208 0.671
37.1061 38.490 0.633
37.1266 33.302 0.589
37.1471 30.479 0.563
37.1675 29.469 0.554
37.1880 28.479 0.545
37.2084 22.833 0.488
37.2289 18.656 0.441
37.2494 15.969 0.408
37.2698 13.656 0.377
37.2903 12.302 0.358
37.3108 12.219 0.357
37.3312 11.417 0.345
37.3517 10.698 0.334
37.3722 10.333 0.328
37.3926 10.781 0.335
37.4131 10.510 0.331
37.4335 10.073 0.324
37.4540 10.281 0.327
37.4745 10.521 0.331
37.4949 10.073 0.324
37.5154 10.063 0.324
37.5359 10.063 0.324
37.5563 11.375 0.344
37.5768 12.083 0.355
37.5972 11.688 0.349
37.6177 12.146 0.356
37.6382 12.948 0.367
37.6586 13.479 0.375
37.6791 13.260 0.372
37.6996 12.760 0.365
37.7200 12.115 0.355
37.7405 12.156 0.356
37.7609 11.260 0.342
37.7814 11.938 0.353
37.8019 10.958 0.338
37.8223 10.656 0.333
37.8428 10.010 0.323
37.8633 10.531 0.331
37.8837 10.427 0.330
37.9042 10.375 0.329
37.9246 10.917 0.337
37.9451 12.396 0.359
37.9656 12.635 0.363
37.9860 14.865 0.393
38.0065 17.094 0.422
38.0270 18.833 0.443
38.0474 19.260 0.448
38.0679 17.083 0.422
38.0884 15.052 0.396
38.1088 14.938 0.394
38.1293 15.448 0.401
38.1497 13.635 0.377
38.1702 12.490 0.361
38.1907 11.188 0.341
38.2111 10.667 0.333
38.2316 10.042 0.323
38.2521 9.833 0.320
38.2725 10.104 0.324
38.2930 9.490 0.314
38.3134 9.573 0.316
38.3339 10.365 0.329
38.3544 9.677 0.317
38.3748 10.938 0.338
38.3953 11.781 0.350
38.4158 13.719 0.378
38.4362 15.781 0.405
38.4567 17.156 0.423
38.4771 17.021 0.421
38.4976 13.125 0.370
38.5181 13.073 0.369
38.5385 12.542 0.361
38.5590 12.302 0.358
38.5795 12.281 0.358
38.5999 10.219 0.326
38.6204 8.698 0.301
38.6408 8.302 0.294
38.6613 8.000 0.289
38.6818 7.542 0.280
38.7022 7.542 0.280
38.7227 7.427 0.278
38.7432 6.792 0.266
38.7636 6.958 0.269
38.7841 6.656 0.263
38.8045 6.115 0.252
38.8250 6.458 0.259
38.8455 6.740 0.265
38.8659 6.771 0.266
38.8864 6.510 0.260
38.9069 6.760 0.265
38.9273 7.125 0.272
38.9478 6.813 0.266
38.9683 6.865 0.267
38.9887 6.552 0.261
39.0092 6.844 0.267
39.0296 6.500 0.260
39.0501 6.771 0.266
39.0706 6.615 0.262
39.0910 6.500 0.260
39.1115 7.000 0.270
39.1320 7.396 0.278
39.1524 7.000 0.270
39.1729 7.292 0.276
39.1933 7.125 0.272
39.2138 7.313 0.276
39.2343 7.167 0.273
39.2547 7.813 0.285
39.2752 7.854 0.286
39.2957 8.094 0.290
39.3161 8.031 0.289
39.3366 8.229 0.293
39.3570 9.563 0.316
39.3775 9.042 0.307
39.3980 9.813 0.320
39.4184 9.000 0.306
39.4389 8.438 0.296
39.4594 8.448 0.297
39.4798 8.448 0.297
39.5003 8.750 0.302
39.5207 9.271 0.311
39.5412 8.583 0.299
39.5617 8.406 0.296
39.5821 8.344 0.295
39.6026 8.469 0.297
39.6231 9.115 0.308
39.6435 9.271 0.311
39.6640 9.385 0.313
39.6844 9.729 0.318
39.7049 9.771 0.319
39.7254 10.458 0.330
39.7458 11.490 0.346
39.7663 12.448 0.360
39.7868 13.927 0.381
39.8072 14.115 0.383
39.8277 13.771 0.379
39.8482 12.708 0.364
39.8686 11.563 0.347
39.8891 12.208 0.357
39.9095 11.979 0.353
39.9300 11.583 0.347
39.9505 10.260 0.327
39.9709 9.479 0.314
39.9914 9.375 0.313
40.0119 9.188 0.309
40.0323 9.531 0.315
40.0528 9.677 0.317
40.0732 9.396 0.313
40.0937 9.802 0.320
40.1142 9.875 0.321
40.1346 9.406 0.313
40.1551 10.052 0.324
40.1756 9.719 0.318
40.1960 10.479 0.330
40.2165 10.500 0.331
40.2369 11.604 0.348
40.2574 12.656 0.363
40.2779 15.219 0.398
40.2983 18.250 0.436
40.3188 16.594 0.416
40.3393 14.042 0.382
40.3597 13.583 0.376
40.3802 13.563 0.376
40.4006 14.365 0.387
40.4211 13.323 0.373
40.4416 12.115 0.355
40.4620 10.854 0.336
40.4825 10.583 0.332
40.5030 10.646 0.333
40.5234 10.406 0.329
40.5439 10.396 0.329
40.5643 10.875 0.337
40.5848 9.854 0.320
40.6053 10.396 0.329
40.6257 10.104 0.324
40.6462 9.042 0.307
40.6667 9.146 0.309
40.6871 8.823 0.303
40.7076 8.792 0.303
40.7281 9.000 0.306
40.7485 8.760 0.302
40.7690 8.625 0.300
40.7894 8.313 0.294
40.8099 7.813 0.285
40.8304 7.438 0.278
40.8508 7.240 0.275
40.8713 7.240 0.275
40.8918 7.885 0.287
40.9122 7.542 0.280
40.9327 7.927 0.287
40.9531 8.490 0.297
40.9736 8.167 0.292
40.9941 8.177 0.292
41.0145 8.531 0.298
41.0350 9.042 0.307
41.0555 9.615 0.316
41.0759 11.688 0.349
41.0964 13.573 0.376
41.1168 15.865 0.407
41.1373 19.010 0.445
41.1578 18.896 0.444
41.1782 16.271 0.412
41.1987 14.083 0.383
41.2192 13.958 0.381
41.2396 14.729 0.392
41.2601 12.917 0.367
41.2805 11.635 0.348
41.3010 10.010 0.323
41.3215 8.833 0.303
41.3419 8.271 0.294
41.3624 7.646 0.282
41.3829 7.427 0.278
41.4033 7.365 0.277
41.4238 7.635 0.282
41.4442 6.875 0.268
41.4647 7.135 0.273
41.4852 6.760 0.265
41.5056 7.271 0.275
41.5261 6.792 0.266
41.5466 6.635 0.263
41.5670 7.240 0.275
41.5875 7.240 0.275
41.6080 7.698 0.283
41.6284 7.635 0.282
41.6489 7.333 0.276
41.6693 7.646 0.282
41.6898 7.208 0.274
41.7103 7.510 0.280
41.7307 7.740 0.284
41.7512 8.031 0.289
41.7717 7.417 0.278
41.7921 7.125 0.272
41.8126 7.208 0.274
41.8330 6.865 0.267
41.8535 6.896 0.268
41.8740 6.969 0.269
41.8944 6.479 0.260
41.9149 6.448 0.259
41.9354 6.125 0.253
41.9558 6.344 0.257
41.9763 6.271 0.256
41.9967 6.708 0.264
42.0172 6.073 0.252
42.0377 6.365 0.257
42.0581 5.573 0.241
42.0786 5.740 0.245
42.0991 5.833 0.247
42.1195 5.896 0.248
42.1400 5.677 0.243
42.1604 5.906 0.248
42.1809 6.031 0.251
42.2014 5.948 0.249
42.2218 5.854 0.247
42.2423 6.490 0.260
42.2628 5.365 0.236
42.2832 5.646 0.243
42.3037 5.510 0.240
42.3242 5.646 0.243
42.3446 5.406 0.237
42.3651 5.479 0.239
42.3855 5.531 0.240
42.4060 5.979 0.250
42.4265 5.573 0.241
42.4469 5.490 0.239
42.4674 5.500 0.239
42.4879 5.750 0.245
42.5083 5.417 0.238
42.5288 5.885 0.248
42.5492 6.208 0.254
42.5697 5.479 0.239
42.5902 5.823 0.246
42.6106 6.000 0.250
42.6311 5.979 0.250
42.6516 5.865 0.247
42.6720 6.156 0.253
42.6925 6.292 0.256
42.7129 6.177 0.254
42.7334 6.677 0.264
42.7539 5.698 0.244
42.7743 6.563 0.261
42.7948 6.302 0.256
42.8153 6.396 0.258
42.8357 6.052 0.251
42.8562 5.417 0.238
42.8766 6.281 0.256
42.8971 5.781 0.245
42.9176 6.208 0.254
42.9380 6.292 0.256
42.9585 5.625 0.242
42.9790 6.052 0.251
42.9994 6.625 0.263
43.0199 6.615 0.262
43.0403 6.740 0.265
43.0608 6.594 0.262
43.0813 6.385 0.258
43.1017 7.573 0.281
43.1222 8.073 0.290
43.1427 8.104 0.291
43.1631 8.729 0.302
43.1836 9.604 0.316
43.2041 10.167 0.325
43.2245 10.052 0.324
43.2450 10.375 0.329
43.2654 9.594 0.316
43.2859 8.906 0.305
43.3064 9.510 0.315
43.3268 9.521 0.315
43.3473 9.604 0.316
43.3678 9.292 0.311
43.3882 8.896 0.304
43.4087 9.490 0.314
43.4291 9.375 0.313
43.4496 9.438 0.314
43.4701 9.833 0.320
43.4905 10.125 0.325
43.5110 11.146 0.341
43.5315 12.198 0.356
43.5519 13.375 0.373
43.5724 15.854 0.406
43.5928 19.281 0.448
43.6133 21.844 0.477
43.6338 25.792 0.518
43.6542 25.552 0.516
43.6747 22.750 0.487
43.6952 20.948 0.467
43.7156 18.583 0.440
43.7361 18.708 0.441
43.7565 18.156 0.435
43.7770 16.833 0.419
43.7975 14.771 0.392
43.8179 12.531 0.361
43.8384 10.771 0.335
43.8589 9.823 0.320
43.8793 9.198 0.310
43.8998 8.198 0.292
43.9202 8.396 0.296
43.9407 7.896 0.287
43.9612 7.896 0.287
43.9816 7.906 0.287
44.0021 8.323 0.294
44.0226 7.510 0.280
44.0430 8.021 0.289
44.0635 8.438 0.296
44.0840 8.563 0.299
44.1044 8.469 0.297
44.1249 8.844 0.304
44.1453 8.240 0.293
44.1658 8.729 0.302
44.1863 9.052 0.307
44.2067 9.052 0.307
44.2272 8.240 0.293
44.2477 8.542 0.298
44.2681 8.167 0.292
44.2886 7.677 0.283
44.3090 7.885 0.287
44.3295 7.677 0.283
44.3500 7.531 0.280
44.3704 7.063 0.271
44.3909 6.854 0.267
44.4114 7.000 0.270
44.4318 6.979 0.270
44.4523 7.021 0.270
44.4727 6.344 0.257
44.4932 7.083 0.272
44.5137 6.688 0.264
44.5341 6.510 0.260
44.5546 7.021 0.270
44.5751 6.438 0.259
44.5955 6.188 0.254
44.6160 7.177 0.273
44.6364 6.510 0.260
44.6569 6.271 0.256
44.6774 6.615 0.262
44.6978 6.958 0.269
44.7183 6.000 0.250
44.7388 6.854 0.267
44.7592 6.542 0.261
44.7797 6.750 0.265
44.8001 6.667 0.264
44.8206 6.458 0.259
44.8411 6.458 0.259
44.8615 6.781 0.266
44.8820 6.583 0.262
44.9025 6.906 0.268
44.9229 6.906 0.268
44.9434 6.729 0.265
44.9639 7.594 0.281
44.9843 7.604 0.281
45.0048 7.625 0.282
45.0252 7.646 0.282
45.0457 7.979 0.288
45.0662 7.729 0.284
45.0866 8.010 0.289
45.1071 8.021 0.289
45.1276 7.708 0.283
45.1480 8.229 0.293
45.1685 8.615 0.300
45.1889 8.896 0.304
45.2094 10.063 0.324
45.2299 11.875 0.352
45.2503 12.292 0.358
45.2708 11.542 0.347
45.2913 11.229 0.342
45.3117 10.385 0.329
45.3322 10.948 0.338
45.3526 11.010 0.339
45.3731 10.667 0.333
45.3936 10.042 0.323
45.4140 9.167 0.309
45.4345 8.656 0.300
45.4550 7.938 0.288
45.4754 8.750 0.302
45.4959 7.635 0.282
45.5163 7.458 0.279
45.5368 7.229 0.274
45.5573 7.208 0.274
45.5777 7.333 0.276
45.5982 6.646 0.263
45.6187 6.188 0.254
45.6391 5.969 0.249
45.6596 5.958 0.249
45.6800 6.115 0.252
45.7005 6.042 0.251
45.7210 5.771 0.245
45.7414 5.802 0.246
45.7619 5.833 0.247
45.7824 5.583 0.241
45.8028 5.979 0.250
45.8233 5.708 0.244
45.8438 5.448 0.238
45.8642 5.823 0.246
45.8847 5.542 0.240
45.9051 5.385 0.237
45.9256 5.354 0.236
45.9461 5.240 0.234
45.9665 5.729 0.244
45.9870 5.948 0.249
46.0075 5.073 0.230
46.0279 5.448 0.238
46.0484 5.406 0.237
46.0688 5.865 0.247
46.0893 5.167 0.232
46.1098 5.125 0.231
46.1302 5.292 0.235
46.1507 4.844 0.225
46.1712 5.156 0.232
46.1916 5.302 0.235
46.2121 5.958 0.249
46.2325 5.167 0.232
46.2530 5.167 0.232
46.2735 5.125 0.231
46.2939 5.292 0.235
46.3144 5.427 0.238
46.3349 5.531 0.240
46.3553 5.083 0.230
46.3758 4.927 0.227
46.3962 5.083 0.230
46.4167 4.896 0.226
46.4372 4.677 0.221
46.4576 4.740 0.222
46.4781 4.677 0.221
46.4986 5.073 0.230
46.5190 4.573 0.218
46.5395 4.927 0.227
46.5600 4.760 0.223
46.5804 4.802 0.224
46.6009 4.906 0.226
46.6213 5.135 0.231
46.6418 5.167 0.232
46.6623 5.333 0.236
46.6827 5.073 0.230
46.7032 4.552 0.218
46.7237 5.094 0.230
46.7441 4.490 0.216
46.7646 4.938 0.227
46.7850 4.844 0.225
46.8055 5.010 0.228
46.8260 4.750 0.222
46.8464 4.854 0.225
46.8669 5.073 0.230
46.8874 5.135 0.231
46.9078 5.135 0.231
46.9283 5.115 0.231
46.9487 5.115 0.231
46.9692 5.208 0.233
46.9897 5.063 0.230
47.0101 5.510 0.240
47.0306 5.344 0.236
47.0511 5.583 0.241
47.0715 5.510 0.240
47.0920 6.167 0.253
47.1124 5.698 0.244
47.1329 5.844 0.247
47.1534 6.198 0.254
47.1738 5.750 0.245
47.1943 6.010 0.250
47.2148 6.375 0.258
47.2352 6.563 0.261
47.2557 6.458 0.259
47.2761 7.073 0.271
47.2966 6.823 0.267
47.3171 6.896 0.268
47.3375 7.292 0.276
47.3580 7.344 0.277
47.3785 6.792 0.266
47.3989 7.188 0.274
47.4194 7.500 0.280
47.4399 7.240 0.275
47.4603 7.917 0.287
47.4808 7.313 0.276
47.5012 7.354 0.277
47.5217 7.979 0.288
47.5422 8.375 0.295
47.5626 9.344 0.312
47.5831 9.875 0.321
47.6036 11.583 0.347
47.6240 12.208 0.357
47.6445 12.490 0.361
47.6649 10.760 0.335
47.6854 9.365 0.312
47.7059 8.656 0.300
47.7263 9.021 0.307
47.7468 8.917 0.305
47.7673 8.740 0.302
47.7877 7.552 0.280
47.8082 7.031 0.271
47.8286 7.156 0.273
47.8491 5.958 0.249
47.8696 5.365 0.236
47.8900 5.677 0.243
47.9105 5.635 0.242
47.9310 5.625 0.242
47.9514 5.354 0.236
47.9719 5.375 0.237
47.9923 5.135 0.231
48.0128 5.531 0.240
48.0333 4.906 0.226
48.0537 5.104 0.231
48.0742 5.208 0.233
48.0947 5.490 0.239
48.1151 5.135 0.231
48.1356 5.021 0.229
48.1560 5.156 0.232
48.1765 5.156 0.232
48.1970 5.688 0.243
48.2174 5.229 0.233
48.2379 5.865 0.247
48.2584 6.385 0.258
48.2788 6.281 0.256
48.2993 7.250 0.275
48.3198 7.385 0.277
48.3402 7.896 0.287
48.3607 7.271 0.275
48.3811 6.385 0.258
48.4016 6.708 0.264
48.4221 6.729 0.265
48.4425 6.823 0.267
48.4630 6.969 0.269
48.4835 6.656 0.263
48.5039 6.167 0.253
48.5244 6.156 0.253
48.5448 5.823 0.246
48.5653 5.708 0.244
48.5858 5.490 0.239
48.6062 5.927 0.248
48.6267 5.958 0.249
48.6472 6.333 0.257
48.6676 6.250 0.255
48.6881 6.542 0.261
48.7085 7.510 0.280
48.7290 7.083 0.272
48.7495 6.740 0.265
48.7699 5.865 0.247
48.7904 5.698 0.244
48.8109 5.885 0.248
48.8313 5.979 0.250
48.8518 6.292 0.256
48.8722 5.177 0.232
48.8927 5.573 0.241
48.9132 5.333 0.236
48.9336 4.771 0.223
48.9541 4.729 0.222
48.9746 4.615 0.219
48.9950 4.948 0.227
49.0155 4.573 0.218
49.0359 4.885 0.226
49.0564 4.500 0.217
49.0769 4.281 0.211
49.0973 4.604 0.219
49.1178 4.969 0.228
49.1383 4.729 0.222
49.1587 4.490 0.216
49.1792 4.333 0.212
49.1997 4.854 0.225
49.2201 4.708 0.221
49.2406 4.719 0.222
49.2610 4.385 0.214
49.2815 4.521 0.217
49.3020 5.021 0.229
49.3224 4.865 0.225
49.3429 4.281 0.211
49.3634 4.958 0.227
49.3838 4.729 0.222
49.4043 4.771 0.223
49.4247 4.917 0.226
49.4452 4.688 0.221
49.4657 4.781 0.223
49.4861 5.073 0.230
49.5066 4.958 0.227
49.5271 5.583 0.241
49.5475 5.375 0.237
49.5680 5.833 0.247
49.5884 5.969 0.249
49.6089 5.781 0.245
49.6294 5.865 0.247
49.6498 6.125 0.253
49.6703 6.646 0.263
49.6908 6.750 0.265
49.7112 7.115 0.272
49.7317 7.667 0.283
49.7521 8.563 0.299
49.7726 9.667 0.317
49.7931 11.896 0.352
49.8135 13.833 0.380
49.8340 16.167 0.410
49.8545 18.250 0.436
49.8749 17.792 0.430
49.8954 15.458 0.401
49.9158 13.865 0.380
49.9363 13.031 0.368
49.9568 12.677 0.363
49.9772 12.792 0.365
49.9977 12.531 0.361
50.0182 11.573 0.347
50.0386 10.615 0.333
50.0591 8.594 0.299
50.0796 8.271 0.294
50.1000 7.625 0.282
50.1205 7.948 0.288
50.1409 8.396 0.296
50.1614 8.802 0.303
50.1819 9.531 0.315
50.2023 9.427 0.313
50.2228 9.115 0.308
50.2433 7.906 0.287
50.2637 7.281 0.275
50.2842 7.240 0.275
50.3046 7.323 0.276
50.3251 7.719 0.284
50.3456 7.604 0.281
50.3660 7.021 0.270
50.3865 7.313 0.276
50.4070 6.219 0.255
50.4274 6.052 0.251
50.4479 6.802 0.266
50.4683 6.740 0.265
50.4888 6.427 0.259
50.5093 7.010 0.270
50.5297 6.719 0.265
50.5502 6.313 0.256
50.5707 6.927 0.269
50.5911 6.031 0.251
50.6116 6.510 0.260
50.6320 6.802 0.266
50.6525 6.448 0.259
50.6730 6.177 0.254
50.6934 6.438 0.259
50.7139 5.917 0.248
50.7344 6.250 0.255
50.7548 5.875 0.247
50.7753 6.365 0.257
50.7958 5.885 0.248
50.8162 5.604 0.242
50.8367 5.854 0.247
50.8571 5.854 0.247
50.8776 5.823 0.246
50.8981 5.542 0.240
50.9185 5.948 0.249
50.9390 5.698 0.244
50.9595 6.271 0.256
50.9799 6.990 0.270
51.0004 8.104 0.291
51.0208 8.635 0.300
51.0413 6.667 0.264
51.0618 6.750 0.265
51.0822 6.552 0.261
51.1027 6.729 0.265
51.1232 6.656 0.263
51.1436 7.156 0.273
51.1641 5.979 0.250
51.1845 6.677 0.264
51.2050 6.208 0.254
51.2255 5.510 0.240
51.2459 6.510 0.260
51.2664 6.125 0.253
51.2869 6.531 0.261
51.3073 6.094 0.252
51.3278 6.156 0.253
51.3482 5.719 0.244
51.3687 5.938 0.249
51.3892 5.927 0.248
51.4096 5.240 0.234
51.4301 5.771 0.245
51.4506 5.698 0.244
51.4710 5.500 0.239
51.4915 5.292 0.235
51.5119 4.885 0.226
51.5324 5.115 0.231
51.5529 5.271 0.234
51.5733 5.229 0.233
51.5938 5.177 0.232
51.6143 5.833 0.247
51.6347 6.594 0.262
51.6552 6.323 0.257
51.6757 6.760 0.265
51.6961 7.688 0.283
51.7166 7.281 0.275
51.7370 6.573 0.262
51.7575 6.615 0.262
51.7780 6.313 0.256
51.7984 5.677 0.243
51.8189 6.000 0.250
51.8394 6.406 0.258
51.8598 5.958 0.249
51.8803 5.656 0.243
51.9007 5.313 0.235
51.9212 5.531 0.240
51.9417 5.396 0.237
51.9621 5.198 0.233
51.9826 5.167 0.232
52.0031 5.292 0.235
52.0235 5.417 0.238
52.0440 5.396 0.237
52.0644 5.125 0.231
52.0849 5.896 0.248
52.1054 5.771 0.245
52.1258 5.677 0.243
52.1463 6.052 0.251
52.1668 5.969 0.249
52.1872 5.927 0.248
52.2077 5.719 0.244
52.2281 6.010 0.250
52.2486 6.010 0.250
52.2691 5.979 0.250
52.2895 5.646 0.243
52.3100 5.948 0.249
52.3305 5.594 0.241
52.3509 5.813 0.246
52.3714 6.083 0.252
52.3918 5.073 0.230
52.4123 5.583 0.241
52.4328 5.771 0.245
52.4532 5.156 0.232
52.4737 5.427 0.238
52.4942 5.042 0.229
52.5146 5.250 0.234
52.5351 4.875 0.225
52.5556 4.708 0.221
52.5760 5.094 0.230
52.5965 4.865 0.225
52.6169 4.458 0.216
52.6374 4.802 0.224
52.6579 4.677 0.221
52.6783 4.302 0.212
52.6988 4.604 0.219
52.7193 4.563 0.218
52.7397 4.740 0.222
52.7602 4.979 0.228
52.7806 4.490 0.216
52.8011 4.375 0.213
52.8216 4.500 0.217
52.8420 4.656 0.220
52.8625 4.677 0.221
52.8830 4.615 0.219
52.9034 4.802 0.224
52.9239 4.875 0.225
52.9443 4.563 0.218
52.9648 5.063 0.230
52.9853 4.958 0.227
53.0057 5.646 0.243
53.0262 4.917 0.226
53.0467 5.219 0.233
53.0671 5.708 0.244
53.0876 5.729 0.244
53.1080 5.281 0.235
53.1285 5.583 0.241
53.1490 5.427 0.238
53.1694 5.198 0.233
53.1899 5.323 0.235
53.2104 5.771 0.245
53.2308 5.344 0.236
53.2513 5.104 0.231
53.2717 5.594 0.241
53.2922 5.542 0.240
53.3127 5.323 0.235
53.3331 5.156 0.232
53.3536 5.323 0.235
53.3741 5.010 0.228
53.3945 4.958 0.227
53.4150 4.417 0.214
53.4355 4.563 0.218
53.4559 4.427 0.215
53.4764 4.646 0.220
53.4968 4.375 0.213
53.5173 4.406 0.214
53.5378 4.125 0.207
53.5582 4.344 0.213
53.5787 4.521 0.217
53.5992 4.375 0.213
53.6196 4.229 0.210
53.6401 4.281 0.211
53.6605 3.813 0.199
53.6810 4.448 0.215
53.7015 4.010 0.204
53.7219 4.427 0.215
53.7424 3.938 0.203
53.7629 4.302 0.212
53.7833 4.115 0.207
53.8038 4.229 0.210
53.8242 3.969 0.203
53.8447 4.635 0.220
53.8652 4.104 0.207
53.8856 4.552 0.218
53.9061 4.490 0.216
53.9266 4.010 0.204
53.9470 4.240 0.210
53.9675 4.260 0.211
53.9879 4.542 0.218
54.0084 4.208 0.209
54.0289 4.969 0.228
54.0493 5.010 0.228
54.0698 4.698 0.221
54.0903 5.135 0.231
54.1107 5.052 0.229
54.1312 5.219 0.233
54.1516 5.448 0.238
54.1721 5.219 0.233
54.1926 5.250 0.234
54.2130 5.469 0.239
54.2335 5.083 0.230
54.2540 5.073 0.230
54.2744 5.240 0.234
54.2949 5.583 0.241
54.3154 5.354 0.236
54.3358 5.990 0.250
54.3563 5.833 0.247
54.3767 5.604 0.242
54.3972 5.813 0.246
54.4177 5.958 0.249
54.4381 5.688 0.243
54.4586 5.531 0.240
54.4791 5.292 0.235
54.4995 5.656 0.243
54.5200 5.479 0.239
54.5404 5.563 0.241
54.5609 5.052 0.229
54.5814 5.719 0.244
54.6018 5.365 0.236
54.6223 4.740 0.222
54.6428 4.615 0.219
54.6632 4.688 0.221
54.6837 4.281 0.211
54.7041 4.344 0.213
54.7246 4.135 0.208
54.7451 4.865 0.225
54.7655 4.302 0.212
54.7860 4.490 0.216
54.8065 4.854 0.225
54.8269 4.781 0.223
54.8474 4.813 0.224
54.8678 4.469 0.216
54.8883 4.667 0.220
54.9088 4.500 0.217
54.9292 4.542 0.218
54.9497 4.719 0.222
54.9702 5.115 0.231
54.9906 5.177 0.232
55.0111 5.615 0.242
55.0316 6.198 0.254
55.0520 6.521 0.261
55.0725 7.542 0.280
55.0929 8.854 0.304
55.1134 10.635 0.333
55.1339 13.500 0.375
55.1543 15.854 0.406
55.1748 18.135 0.435
55.1953 16.490 0.414
55.2157 13.063 0.369
55.2362 11.552 0.347
55.2566 11.198 0.342
55.2771 11.115 0.340
55.2976 12.625 0.363
55.3180 13.177 0.370
55.3385 12.292 0.358
55.3590 10.260 0.327
55.3794 8.990 0.306
55.3999 8.771 0.302
55.4203 7.781 0.285
55.4408 6.833 0.267
55.4613 6.417 0.259
55.4817 6.063 0.251
55.5022 6.104 0.252
55.5227 6.042 0.251
55.5431 5.344 0.236
55.5636 5.333 0.236
55.5840 5.677 0.243
55.6045 5.635 0.242
55.6250 5.104 0.231
55.6454 5.615 0.242
55.6659 4.990 0.228
55.6864 5.469 0.239
55.7068 5.115 0.231
55.7273 5.198 0.233
55.7477 5.500 0.239
55.7682 5.583 0.241
55.7887 5.531 0.240
55.8091 5.917 0.248
55.8296 6.073 0.252
55.8501 6.333 0.257
55.8705 6.323 0.257
55.8910 6.573 0.262
55.9115 6.615 0.262
55.9319 6.083 0.252
55.9524 5.917 0.248
55.9728 5.760 0.245
55.9933 6.094 0.252
56.0138 6.104 0.252
56.0342 6.469 0.260
56.0547 6.802 0.266
56.0752 6.073 0.252
56.0956 7.104 0.272
56.1161 7.469 0.279
56.1365 8.313 0.294
56.1570 9.438 0.314
56.1775 10.771 0.335
56.1979 11.302 0.343
56.2184 11.365 0.344
56.2389 9.781 0.319
56.2593 7.990 0.288
56.2798 7.406 0.278
56.3002 7.563 0.281
56.3207 7.760 0.284
56.3412 8.021 0.289
56.3616 7.615 0.282
56.3821 6.927 0.269
56.4026 6.219 0.255
56.4230 5.510 0.240
56.4435 4.948 0.227
56.4639 4.344 0.213
56.4844 4.177 0.209
56.5049 4.729 0.222
56.5253 3.917 0.202
56.5458 3.896 0.201
56.5663 3.938 0.203
56.5867 3.823 0.200
56.6072 4.021 0.205
56.6276 4.458 0.216
56.6481 3.990 0.204
56.6686 3.521 0.192
56.6890 3.875 0.201
56.7095 3.729 0.197
56.7300 3.906 0.202
56.7504 3.615 0.194
56.7709 3.740 0.197
56.7914 3.604 0.194
56.8118 3.594 0.193
56.8323 3.635 0.195
56.8527 3.677 0.196
56.8732 3.479 0.190
56.8937 3.354 0.187
56.9141 3.719 0.197
56.9346 3.625 0.194
56.9551 3.583 0.193
56.9755 3.677 0.196
56.9960 3.646 0.195
57.0164 3.875 0.201
57.0369 3.365 0.187
57.0574 3.938 0.203
57.0778 4.177 0.209
57.0983 3.708 0.197
57.1188 3.667 0.195
57.1392 4.208 0.209
57.1597 4.188 0.209
57.1801 4.156 0.208
57.2006 4.094 0.207
57.2211 3.667 0.195
57.2415 3.927 0.202
57.2620 4.115 0.207
57.2825 4.250 0.210
57.3029 3.906 0.202
57.3234 3.979 0.204
57.3438 4.260 0.211
57.3643 4.646 0.220
57.3848 4.333 0.212
57.4052 4.865 0.225
57.4257 4.833 0.224
57.4462 4.115 0.207
57.4666 4.521 0.217
57.4871 4.333 0.212
57.5075 4.604 0.219
57.5280 4.354 0.213
57.5485 4.125 0.207
57.5689 4.438 0.215
57.5894 4.219 0.210
57.6099 4.625 0.219
57.6303 4.583 0.219
57.6508 4.583 0.219
57.6713 4.823 0.224
57.6917 4.417 0.214
57.7122 4.906 0.226
57.7326 5.167 0.232
57.7531 4.833 0.224
57.7736 5.000 0.228
57.7940 5.375 0.237
57.8145 5.625 0.242
57.8350 6.031 0.251
57.8554 6.250 0.255
57.8759 8.479 0.297
57.8963 7.792 0.285
57.9168 9.219 0.310
57.9373 9.396 0.313
57.9577 8.781 0.302
57.9782 8.844 0.304
57.9987 7.865 0.286
58.0191 7.125 0.272
58.0396 7.115 0.272
58.0600 7.167 0.273
58.0805 7.802 0.285
58.1010 7.115 0.272
58.1214 7.333 0.276
58.1419 6.375 0.258
58.1624 5.938 0.249
58.1828 5.344 0.236
58.2033 4.875 0.225
58.2237 4.823 0.224
58.2442 4.469 0.216
58.2647 4.833 0.224
58.2851 4.385 0.214
58.3056 4.531 0.217
58.3261 3.740 0.197
58.3465 3.844 0.200
58.3670 4.167 0.208
58.3874 4.219 0.210
58.4079 4.250 0.210
58.4284 4.146 0.208
58.4488 4.281 0.211
58.4693 4.104 0.207
58.4898 4.073 0.206
58.5102 4.156 0.208
58.5307 4.208 0.209
58.5512 4.458 0.216
58.5716 4.240 0.210
58.5921 4.417 0.214
58.6125 4.375 0.213
58.6330 4.385 0.214
58.6535 4.188 0.209
58.6739 4.500 0.217
58.6944 4.240 0.210
58.7149 3.865 0.201
58.7353 4.177 0.209
58.7558 4.250 0.210
58.7762 4.250 0.210
58.7967 4.208 0.209
58.8172 4.042 0.205
58.8376 3.750 0.198
58.8581 4.063 0.206
58.8786 3.906 0.202
58.8990 4.021 0.205
58.9195 4.198 0.209
58.9399 3.885 0.201
58.9604 4.073 0.206
58.9809 4.510 0.217
59.0013 4.510 0.217
59.0218 4.052 0.205
59.0423 4.396 0.214
59.0627 4.281 0.211
59.0832 4.542 0.218
59.1036 4.906 0.226
59.1241 5.698 0.244
59.1446 5.396 0.237
59.1650 6.656 0.263
59.1855 6.979 0.270
59.2060 7.302 0.276
59.2264 7.458 0.279
59.2469 7.094 0.272
59.2674 6.625 0.263
59.2878 5.969 0.249
59.3083 5.542 0.240
59.3287 5.792 0.246
59.3492 5.521 0.240
59.3697 6.198 0.254
59.3901 6.302 0.256
59.4106 5.094 0.230
59.4311 5.260 0.234
59.4515 4.656 0.220
59.4720 4.698 0.221
59.4924 3.771 0.198
59.5129 4.156 0.208
59.5334 3.917 0.202
59.5538 4.188 0.209
59.5743 3.802 0.199
59.5948 4.125 0.207
59.6152 4.188 0.209
59.6357 4.167 0.208
59.6561 4.031 0.205
59.6766 4.156 0.208
59.6971 4.333 0.212
59.7175 4.573 0.218
59.7380 4.354 0.213
59.7585 4.729 0.222
59.7789 5.021 0.229
59.7994 5.448 0.238
59.8198 5.146 0.232
59.8403 6.198 0.254
59.8608 6.594 0.262
59.8812 7.125 0.272
59.9017 6.927 0.269
59.9222 6.135 0.253
59.9426 6.385 0.258
59.9631 5.740 0.245
59.9835 5.208 0.233
60.0040 5.292 0.235
60.0245 5.635 0.242
60.0449 5.531 0.240
60.0654 5.469 0.239
60.0859 5.427 0.238
60.1063 4.625 0.219
60.1268 3.823 0.200
60.1473 3.667 0.195
60.1677 3.823 0.200
60.1882 4.052 0.205
60.2086 3.938 0.203
60.2291 3.813 0.199
60.2496 3.844 0.200
60.2700 3.719 0.197
60.2905 3.635 0.195
60.3110 3.698 0.196
60.3314 3.229 0.183
60.3519 3.396 0.188
60.3723 3.260 0.184
60.3928 3.469 0.190
60.4133 3.729 0.197
60.4337 3.333 0.186
60.4542 3.406 0.188
60.4747 3.479 0.190
60.4951 3.344 0.187
60.5156 3.354 0.187
60.5360 3.323 0.186
60.5565 3.583 0.193
60.5770 3.438 0.189
60.5974 3.719 0.197
60.6179 3.833 0.200
60.6384 3.510 0.191
60.6588 3.583 0.193
60.6793 3.740 0.197
60.6997 3.594 0.193
60.7202 3.344 0.187
60.7407 3.385 0.188
60.7611 3.396 0.188
60.7816 3.635 0.195
60.8021 3.333 0.186
60.8225 3.573 0.193
60.8430 3.344 0.187
60.8634 3.813 0.199
60.8839 3.698 0.196
60.9044 3.896 0.201
60.9248 3.802 0.199
60.9453 3.802 0.199
60.9658 2.938 0.175
60.9862 3.781 0.198
61.0067 3.625 0.194
61.0272 3.698 0.196
61.0476 3.594 0.193
61.0681 3.385 0.188
61.0885 3.656 0.195
61.1090 3.500 0.191
61.1295 3.323 0.186
61.1499 3.552 0.192
61.1704 3.417 0.189
61.1909 3.375 0.188
61.2113 3.771 0.198
61.2318 3.458 0.190
61.2522 2.875 0.173
61.2727 3.396 0.188
61.2932 3.365 0.187
61.3136 3.031 0.178
61.3341 3.438 0.189
61.3546 3.469 0.190
61.3750 3.448 0.190
61.3955 3.396 0.188
61.4159 3.490 0.191
61.4364 3.052 0.178
61.4569 3.552 0.192
61.4773 3.240 0.184
61.4978 3.521 0.192
61.5183 3.531 0.192
61.5387 3.635 0.195
61.5592 3.552 0.192
61.5796 3.240 0.184
61.6001 3.417 0.189
61.6206 3.469 0.190
61.6410 3.594 0.193
61.6615 3.406 0.188
61.6820 3.375 0.188
61.7024 3.375 0.188
61.7229 3.531 0.192
61.7433 3.406 0.188
61.7638 3.302 0.185
61.7843 2.802 0.171
61.8047 3.333 0.186
61.8252 3.385 0.188
61.8457 3.292 0.185
61.8661 3.188 0.182
61.8866 3.417 0.189
61.9071 3.490 0.191
61.9275 3.073 0.179
61.9480 3.302 0.185
61.9684 3.708 0.197
61.9889 3.344 0.187
62.0094 3.740 0.197
62.0298 3.927 0.202
62.0503 3.656 0.195
62.0708 4.094 0.207
62.0912 4.146 0.208
62.1117 4.677 0.221
62.1321 4.656 0.220
62.1526 5.156 0.232
62.1731 4.688 0.221
62.1935 4.229 0.210
62.2140 4.229 0.210
62.2345 4.302 0.212
62.2549 4.188 0.209
62.2754 4.042 0.205
62.2958 4.177 0.209
62.3163 3.958 0.203
62.3368 4.021 0.205
62.3572 3.823 0.200
62.3777 4.031 0.205
62.3982 3.531 0.192
62.4186 3.479 0.190
62.4391 3.240 0.184
62.4595 3.219 0.183
62.4800 3.146 0.181
62.5005 3.354 0.187
62.5209 3.250 0.184
62.5414 3.521 0.192
62.5619 3.406 0.188
62.5823 3.188 0.182
62.6028 3.760 0.198
62.6232 3.188 0.182
62.6437 3.104 0.180
62.6642 3.094 0.180
62.6846 3.208 0.183
62.7051 3.000 0.177
62.7256 3.000 0.177
62.7460 3.021 0.177
62.7665 3.323 0.186
62.7870 3.448 0.190
62.8074 3.083 0.179
62.8279 3.125 0.180
62.8483 3.198 0.183
62.8688 3.167 0.182
62.8893 2.688 0.167
62.9097 3.125 0.180
62.9302 3.198 0.183
62.9507 3.281 0.185
62.9711 3.323 0.186
62.9916 3.146 0.181
63.0120 3.094 0.180
63.0325 3.010 0.177
63.0530 2.990 0.176
63.0734 3.177 0.182
63.0939 3.104 0.180
63.1144 3.052 0.178
63.1348 3.438 0.189
63.1553 3.052 0.178
63.1757 3.073 0.179
63.1962 3.000 0.177
63.2167 3.156 0.181
63.2371 2.990 0.176
63.2576 3.094 0.180
63.2781 3.240 0.184
63.2985 3.427 0.189
63.3190 3.031 0.178
63.3394 3.156 0.181
63.3599 2.771 0.170
63.3804 2.990 0.176
63.4008 3.354 0.187
63.4213 3.354 0.187
63.4418 3.000 0.177
63.4622 3.531 0.192
63.4827 3.563 0.193
63.5032 3.510 0.191
63.5236 3.510 0.191
63.5441 3.417 0.189
63.5645 3.281 0.185
63.5850 3.563 0.193
63.6055 3.781 0.198
63.6259 3.563 0.193
63.6464 4.083 0.206
63.6669 4.563 0.218
63.6873 4.635 0.220
63.7078 4.802 0.224
63.7282 4.865 0.225
63.7487 5.260 0.234
63.7692 5.000 0.228
63.7896 5.240 0.234
63.8101 5.167 0.232
63.8306 4.927 0.227
63.8510 4.875 0.225
63.8715 4.927 0.227
63.8919 5.052 0.229
63.9124 4.781 0.223
63.9329 4.292 0.211
63.9533 4.698 0.221
63.9738 4.552 0.218
63.9943 4.552 0.218
64.0147 4.719 0.222
64.0352 4.948 0.227
64.0556 4.531 0.217
64.0761 4.063 0.206
64.0966 4.000 0.204
64.1170 3.896 0.201
64.1375 4.094 0.207
64.1580 3.823 0.200
64.1784 4.271 0.211
64.1989 3.938 0.203
64.2193 3.896 0.201
64.2398 4.240 0.210
64.2603 3.667 0.195
64.2807 4.073 0.206
64.3012 3.531 0.192
64.3217 3.760 0.198
64.3421 3.760 0.198
64.3626 3.781 0.198
64.3831 4.146 0.208
64.4035 4.115 0.207
64.4240 4.010 0.204
64.4444 4.365 0.213
64.4649 4.063 0.206
64.4854 4.406 0.214
64.5058 4.729 0.222
64.5263 4.740 0.222
64.5468 5.167 0.232
64.5672 5.615 0.242
64.5877 6.719 0.265
64.6081 7.771 0.285
64.6286 8.010 0.289
64.6491 8.271 0.294
64.6695 8.375 0.295
64.6900 7.031 0.271
64.7105 6.708 0.264
64.7309 6.104 0.252
64.7514 6.104 0.252
64.7718 5.979 0.250
64.7923 6.427 0.259
64.8128 6.448 0.259
64.8332 6.031 0.251
64.8537 5.927 0.248
64.8742 5.927 0.248
64.8946 4.844 0.225
64.9151 4.260 0.211
64.9355 4.125 0.207
64.9560 4.021 0.205
64.9765 3.896 0.201
64.9969 3.698 0.196
65.0174 3.875 0.201
65.0379 3.740 0.197
65.0583 3.729 0.197
65.0788 3.594 0.193
65.0992 3.688 0.196
65.1197 3.500 0.191
65.1402 3.208 0.183
65.1606 3.396 0.188
65.1811 3.417 0.189
65.2016 3.469 0.190
65.2220 3.583 0.193
65.2425 3.396 0.188
65.2630 3.531 0.192
65.2834 3.698 0.196
65.3039 3.354 0.187
65.3243 3.500 0.191
65.3448 3.156 0.181
65.3653 3.531 0.192
65.3857 3.865 0.201
65.4062 3.604 0.194
65.4267 3.646 0.195
65.4471 3.729 0.197
65.4676 3.552 0.192
65.4880 3.635 0.195
65.5085 3.729 0.197
65.5290 4.250 0.210
65.5494 4.656 0.220
65.5699 4.438 0.215
65.5904 5.177 0.232
65.6108 4.938 0.227
65.6313 4.406 0.214
65.6517 3.969 0.203
65.6722 3.927 0.202
65.6927 4.104 0.207
65.7131 3.948 0.203
65.7336 3.896 0.201
65.7541 3.948 0.203
65.7745 3.958 0.203
65.7950 3.833 0.200
65.8154 3.563 0.193
65.8359 4.104 0.207
65.8564 3.667 0.195
65.8768 3.542 0.192
65.8973 3.188 0.182
65.9178 3.250 0.184
65.9382 3.448 0.190
65.9587 3.500 0.191
65.9791 3.667 0.195
65.9996 3.458 0.190
66.0201 3.656 0.195
66.0405 3.740 0.197
66.0610 3.625 0.194
66.0815 3.917 0.202
66.1019 3.698 0.196
66.1224 3.563 0.193
66.1429 3.958 0.203
66.1633 3.917 0.202
66.1838 3.823 0.200
66.2042 4.083 0.206
66.2247 3.938 0.203
66.2452 3.583 0.193
66.2656 3.708 0.197
66.2861 3.740 0.197
66.3066 3.594 0.193
66.3270 3.698 0.196
66.3475 3.833 0.200
66.3679 3.646 0.195
66.3884 3.740 0.197
66.4089 3.344 0.187
66.4293 3.625 0.194
66.4498 3.344 0.187
66.4703 3.771 0.198
66.4907 3.271 0.185
66.5112 3.698 0.196
66.5316 3.969 0.203
66.5521 3.458 0.190
66.5726 3.708 0.197
66.5930 3.542 0.192
66.6135 4.031 0.205
66.6340 3.677 0.196
66.6544 3.573 0.193
66.6749 3.958 0.203
66.6953 3.823 0.200
66.7158 3.552 0.192
66.7363 3.781 0.198
66.7567 4.010 0.204
66.7772 3.896 0.201
66.7977 3.656 0.195
66.8181 3.719 0.197
66.8386 3.750 0.198
66.8590 3.313 0.186
66.8795 3.729 0.197
66.9000 3.833 0.200
66.9204 3.406 0.188
66.9409 4.406 0.214
66.9614 4.396 0.214
66.9818 4.240 0.210
67.0023 4.427 0.215
67.0228 4.906 0.226
67.0432 4.719 0.222
67.0637 4.792 0.223
67.0841 5.667 0.243
67.1046 6.094 0.252
67.1251 6.583 0.262
67.1455 7.031 0.271
67.1660 8.115 0.291
67.1865 7.927 0.287
67.2069 7.542 0.280
67.2274 7.271 0.275
67.2478 6.521 0.261
67.2683 6.375 0.258
67.2888 6.177 0.254
67.3092 6.240 0.255
67.3297 6.177 0.254
67.3502 6.583 0.262
67.3706 5.813 0.246
67.3911 5.688 0.243
67.4115 5.438 0.238
67.4320 5.042 0.229
67.4525 4.719 0.222
67.4729 4.177 0.209
67.4934 4.198 0.209
67.5139 4.323 0.212
67.5343 4.271 0.211
67.5548 4.302 0.212
67.5752 3.510 0.191
67.5957 3.448 0.190
67.6162 3.833 0.200
67.6366 3.802 0.199
67.6571 3.854 0.200
67.6776 3.802 0.199
67.6980 3.656 0.195
67.7185 4.156 0.208
67.7389 3.833 0.200
67.7594 3.677 0.196
67.7799 3.729 0.197
67.8003 3.552 0.192
67.8208 3.948 0.203
67.8413 3.448 0.190
67.8617 3.802 0.199
67.8822 3.333 0.186
67.9027 3.958 0.203
67.9231 3.656 0.195
67.9436 3.292 0.185
67.9640 3.479 0.190
67.9845 3.677 0.196
68.0050 3.896 0.201
68.0254 3.646 0.195
68.0459 3.375 0.188
68.0664 3.563 0.193
68.0868 3.500 0.191
68.1073 3.729 0.197
68.1277 3.396 0.188
68.1482 3.292 0.185
68.1687 3.688 0.196
68.1891 3.354 0.187
68.2096 3.406 0.188
68.2301 3.844 0.200
68.2505 4.167 0.208
68.2710 3.958 0.203
68.2914 4.510 0.217
68.3119 4.594 0.219
68.3324 4.979 0.228
68.3528 4.771 0.223
68.3733 4.771 0.223
68.3938 4.208 0.209
68.4142 4.417 0.214
68.4347 3.615 0.194
68.4551 4.188 0.209
68.4756 4.188 0.209
68.4961 4.063 0.206
68.5165 4.000 0.204
68.5370 4.281 0.211
68.5575 4.115 0.207
68.5779 4.073 0.206
68.5984 3.979 0.204
68.6189 3.333 0.186
68.6393 3.448 0.190
68.6598 3.240 0.184
68.6802 2.844 0.172
68.7007 3.313 0.186
68.7212 3.323 0.186
68.7416 3.229 0.183
68.7621 3.104 0.180
68.7826 3.635 0.195
68.8030 3.229 0.183
68.8235 3.323 0.186
68.8439 3.792 0.199
68.8644 3.635 0.195
68.8849 3.531 0.192
68.9053 3.583 0.193
68.9258 3.833 0.200
68.9463 3.990 0.204
68.9667 3.917 0.202
68.9872 4.250 0.210
69.0076 4.542 0.218
69.0281 4.698 0.221
69.0486 4.604 0.219
69.0690 4.688 0.221
69.0895 4.656 0.220
69.1100 4.615 0.219
69.1304 4.104 0.207
69.1509 4.333 0.212
69.1713 4.427 0.215
69.1918 4.583 0.219
69.2123 4.708 0.221
69.2327 5.042 0.229
69.2532 4.958 0.227
69.2737 4.688 0.221
69.2941 4.635 0.220
69.3146 4.427 0.215
69.3350 4.177 0.209
69.3555 3.635 0.195
69.3760 3.740 0.197
69.3964 3.656 0.195
69.4169 3.646 0.195
69.4374 3.417 0.189
69.4578 3.510 0.191
69.4783 3.771 0.198
69.4988 3.979 0.204
69.5192 3.438 0.189
69.5397 2.823 0.171
69.5601 3.000 0.177
69.5806 3.229 0.183
69.6011 3.104 0.180
69.6215 2.969 0.176
69.6420 3.604 0.194
69.6625 2.885 0.173
69.6829 2.927 0.175
69.7034 2.969 0.176
69.7238 3.188 0.182
69.7443 3.094 0.180
69.7648 3.167 0.182
69.7852 2.990 0.176
69.8057 2.510 0.162
69.8262 2.906 0.174
69.8466 2.635 0.166
69.8671 2.802 0.171
69.8875 3.010 0.177
69.9080 3.000 0.177
69.9285 2.615 0.165
69.9489 2.875 0.173
69.9694 2.604 0.165
69.9899 2.792 0.171
70.0103 2.813 0.171
70.0308 2.813 0.171
70.0512 2.958 0.176
70.0717 2.917 0.174
70.0922 2.802 0.171
70.1126 3.208 0.183
70.1331 3.188 0.182
70.1536 2.771 0.170
70.1740 2.875 0.173
70.1945 3.156 0.181
70.2149 2.969 0.176
70.2354 2.875 0.173
70.2559 2.802 0.171
70.2763 2.906 0.174
70.2968 2.781 0.170
70.3173 2.833 0.172
70.3377 3.073 0.179
70.3582 2.906 0.174
70.3787 2.917 0.174
70.3991 2.760 0.170
70.4196 3.125 0.180
70.4400 3.000 0.177
70.4605 2.927 0.175
70.4810 2.958 0.176
70.5014 2.917 0.174
70.5219 3.063 0.179
70.5424 2.948 0.175
70.5628 3.292 0.185
70.5833 3.219 0.183
70.6037 2.885 0.173
70.6242 3.167 0.182
70.6447 3.094 0.180
70.6651 2.990 0.176
70.6856 3.333 0.186
70.7061 3.010 0.177
70.7265 3.500 0.191
70.7470 2.823 0.171
70.7674 3.229 0.183
70.7879 2.740 0.169
70.8084 3.146 0.181
70.8288 2.865 0.173
70.8493 2.854 0.172
70.8698 3.146 0.181
70.8902 2.948 0.175
70.9107 2.656 0.166
70.9311 2.885 0.173
70.9516 2.927 0.175
70.9721 2.542 0.163
70.9925 2.760 0.170
71.0130 2.792 0.171
71.0335 2.948 0.175
71.0539 2.646 0.166
71.0744 2.802 0.171
71.0948 3.104 0.180
71.1153 3.146 0.181
71.1358 3.302 0.185
71.1562 3.198 0.183
71.1767 2.823 0.171
71.1972 2.844 0.172
71.2176 2.844 0.172
71.2381 3.031 0.178
71.2586 3.115 0.180
71.2790 2.771 0.170
71.2995 2.719 0.168
71.3199 3.250 0.184
71.3404 2.823 0.171
71.3609 2.750 0.169
71.3813 2.885 0.173
71.4018 2.969 0.176
71.4223 3.146 0.181
71.4427 3.052 0.178
71.4632 2.802 0.171
71.4836 2.958 0.176
71.5041 2.865 0.173
71.5246 2.938 0.175
71.5450 2.729 0.169
71.5655 2.927 0.175
71.5860 3.042 0.178
71.6064 2.833 0.172
71.6269 2.854 0.172
71.6473 2.625 0.165
71.6678 2.531 0.162
71.6883 2.292 0.155
71.7087 2.510 0.162
71.7292 2.719 0.168
71.7497 2.479 0.161
71.7701 2.635 0.166
71.7906 2.698 0.168
71.8110 2.563 0.163
71.8315 2.490 0.161
71.8520 2.521 0.162
71.8724 2.781 0.170
71.8929 2.510 0.162
71.9134 2.438 0.159
71.9338 2.573 0.164
71.9543 2.719 0.168
71.9747 2.323 0.156
71.9952 2.354 0.157
72.0157 2.271 0.154
72.0361 2.500 0.161
72.0566 2.625 0.165
72.0771 2.604 0.165
72.0975 2.323 0.156
72.1180 2.240 0.153
72.1385 2.542 0.163
72.1589 2.240 0.153
72.1794 2.260 0.153
72.1998 2.365 0.157
72.2203 2.615 0.165
72.2408 2.688 0.167
72.2612 2.500 0.161
72.2817 2.323 0.156
72.3022 2.344 0.156
72.3226 2.438 0.159
72.3431 2.146 0.150
72.3635 2.656 0.166
72.3840 2.135 0.149
72.4045 2.156 0.150
72.4249 2.583 0.164
72.4454 2.594 0.164
72.4659 2.500 0.161
72.4863 2.677 0.167
72.5068 2.542 0.163
72.5272 2.490 0.161
72.5477 2.198 0.151
72.5682 2.552 0.163
72.5886 2.760 0.170
72.6091 2.729 0.169
72.6296 2.615 0.165
72.6500 2.802 0.171
72.6705 2.813 0.171
72.6909 2.625 0.165
72.7114 2.760 0.170
72.7319 2.573 0.164
72.7523 2.656 0.166
72.7728 2.844 0.172
72.7933 2.740 0.169
72.8137 3.042 0.178
72.8342 3.219 0.183
72.8547 3.313 0.186
72.8751 3.396 0.188
72.8956 2.906 0.174
72.9160 3.188 0.182
72.9365 2.594 0.164
72.9570 2.646 0.166
72.9774 2.625 0.165
72.9979 2.740 0.169
73.0184 2.625 0.165
73.0388 2.792 0.171
73.0593 2.698 0.168
73.0797 2.438 0.159
73.1002 2.813 0.171
73.1207 2.417 0.159
73.1411 2.615 0.165
73.1616 2.323 0.156
73.1821 2.271 0.154
73.2025 2.417 0.159
73.2230 1.990 0.144
73.2434 2.031 0.145
73.2639 2.198 0.151
73.2844 2.052 0.146
73.3048 2.115 0.148
73.3253 2.167 0.150
73.3458 2.344 0.156
73.3662 2.063 0.147
73.3867 2.323 0.156
73.4071 2.115 0.148
73.4276 2.156 0.150
73.4481 2.052 0.146
73.4685 2.094 0.148
73.4890 2.323 0.156
73.5095 2.375 0.157
73.5299 2.135 0.149
73.5504 1.969 0.143
73.5708 2.260 0.153
73.5913 2.490 0.161
73.6118 2.156 0.150
73.6322 2.115 0.148
73.6527 2.365 0.157
73.6732 2.010 0.145
73.6936 2.229 0.152
73.7141 1.969 0.143
73.7346 2.156 0.150
73.7550 1.990 0.144
73.7755 2.281 0.154
73.7959 2.135 0.149
73.8164 2.198 0.151
73.8369 2.042 0.146
73.8573 2.115 0.148
73.8778 2.010 0.145
73.8983 2.563 0.163
73.9187 2.240 0.153
73.9392 2.240 0.153
73.9596 2.302 0.155
73.9801 2.354 0.157
74.0006 2.552 0.163
74.0210 2.885 0.173
74.0415 2.552 0.163
74.0620 2.646 0.166
74.0824 2.479 0.161
74.1029 2.417 0.159
74.1233 2.271 0.154
74.1438 2.813 0.171
74.1643 2.146 0.150
74.1847 2.448 0.160
74.2052 2.146 0.150
74.2257 2.271 0.154
74.2461 2.833 0.172
74.2666 2.167 0.150
74.2870 2.260 0.153
74.3075 2.500 0.161
74.3280 2.156 0.150
74.3484 2.208 0.152
74.3689 2.146 0.150
74.3894 2.385 0.158
74.4098 2.604 0.165
74.4303 2.396 0.158
74.4507 2.417 0.159
74.4712 2.167 0.150
74.4917 2.167 0.150
74.5121 2.510 0.162
74.5326 2.271 0.154
74.5531 2.260 0.153
74.5735 2.000 0.144
74.5940 2.135 0.149
74.6145 2.219 0.152
74.6349 2.292 0.155
74.6554 2.000 0.144
74.6758 2.448 0.160
74.6963 2.281 0.154
74.7168 2.094 0.148
74.7372 2.271 0.154
74.7577 2.125 0.149
74.7782 2.510 0.162
74.7986 2.396 0.158
74.8191 2.177 0.151
74.8395 2.333 0.156
74.8600 1.990 0.144
74.8805 2.625 0.165
74.9009 2.135 0.149
74.9214 2.396 0.158
74.9419 2.073 0.147
74.9623 2.198 0.151
74.9828 2.469 0.160
75.0032 2.417 0.159
75.0237 2.115 0.148
75.0442 2.063 0.147
75.0646 2.375 0.157
75.0851 2.208 0.152
75.1056 2.448 0.160
75.1260 2.344 0.156
75.1465 2.167 0.150
75.1669 1.990 0.144
75.1874 2.156 0.150
75.2079 2.125 0.149
75.2283 2.208 0.152
75.2488 2.260 0.153
75.2693 1.958 0.143
75.2897 2.115 0.148
75.3102 2.219 0.152
75.3306 2.490 0.161
75.3511 2.000 0.144
75.3716 2.323 0.156
75.3920 2.146 0.150
75.4125 2.385 0.158
75.4330 2.104 0.148
75.4534 2.302 0.155
75.4739 2.417 0.159
75.4944 2.385 0.158
75.5148 2.177 0.151
75.5353 2.292 0.155
75.5557 2.615 0.165
75.5762 2.563 0.163
75.5967 2.490 0.161
75.6171 2.385 0.158
75.6376 2.604 0.165
75.6581 2.406 0.158
75.6785 2.677 0.167
75.6990 2.865 0.173
75.7194 3.219 0.183
75.7399 3.167 0.182
75.7604 3.333 0.186
75.7808 3.406 0.188
75.8013 3.906 0.202
75.8218 4.240 0.210
75.8422 3.813 0.199
75.8627 4.094 0.207
75.8831 3.875 0.201
75.9036 3.531 0.192
75.9241 3.125 0.180
75.9445 2.740 0.169
75.9650 3.125 0.180
75.9855 3.510 0.191
76.0059 3.208 0.183
76.0264 3.625 0.194
76.0468 3.292 0.185
76.0673 3.292 0.185
76.0878 3.510 0.191
76.1082 3.198 0.183
76.1287 3.052 0.178
76.1492 2.823 0.171
76.1696 2.896 0.174
76.1901 3.052 0.178
76.2105 2.708 0.168
76.2310 2.646 0.166
76.2515 2.615 0.165
76.2719 2.635 0.166
76.2924 2.500 0.161
76.3129 2.375 0.157
76.3333 2.854 0.172
76.3538 2.458 0.160
76.3743 2.635 0.166
76.3947 2.510 0.162
76.4152 2.188 0.151
76.4356 2.344 0.156
76.4561 2.479 0.161
76.4766 2.385 0.158
76.4970 2.438 0.159
76.5175 2.396 0.158
76.5380 2.448 0.160
76.5584 2.323 0.156
76.5789 2.458 0.160
76.5993 2.354 0.157
76.6198 2.417 0.159
76.6403 2.240 0.153
76.6607 2.281 0.154
76.6812 2.552 0.163
76.7017 2.219 0.152
76.7221 2.281 0.154
76.7426 2.260 0.153
76.7630 2.521 0.162
76.7835 2.396 0.158
76.8040 2.292 0.155
76.8244 2.188 0.151
76.8449 2.302 0.155
76.8654 2.396 0.158
76.8858 2.250 0.153
76.9063 2.198 0.151
76.9267 2.396 0.158
76.9472 2.146 0.150
76.9677 2.240 0.153
76.9881 2.229 0.152
77.0086 2.385 0.158
77.0291 2.229 0.152
77.0495 2.292 0.155
77.0700 2.313 0.155
77.0905 2.125 0.149
77.1109 2.146 0.150
77.1314 2.458 0.160
77.1518 2.094 0.148
77.1723 2.406 0.158
77.1928 2.635 0.166
77.2132 2.708 0.168
77.2337 2.323 0.156
77.2542 2.490 0.161
77.2746 2.365 0.157
77.2951 2.344 0.156
77.3155 2.448 0.160
77.3360 2.760 0.170
77.3565 2.323 0.156
77.3769 2.802 0.171
77.3974 2.625 0.165
77.4179 2.469 0.160
77.4383 2.885 0.173
77.4588 2.531 0.162
77.4792 2.625 0.165
77.4997 3.031 0.178
77.5202 2.750 0.169
77.5406 3.323 0.186
77.5611 3.219 0.183
77.5816 3.031 0.178
77.6020 3.104 0.180
77.6225 2.990 0.176
77.6429 2.938 0.175
77.6634 2.979 0.176
77.6839 2.813 0.171
77.7043 2.969 0.176
77.7248 3.313 0.186
77.7453 3.250 0.184
77.7657 3.156 0.181
77.7862 3.073 0.179
77.8066 3.292 0.185
77.8271 2.990 0.176
77.8476 2.938 0.175
77.8680 2.906 0.174
77.8885 2.875 0.173
77.9090 2.594 0.164
77.9294 2.792 0.171
77.9499 3.083 0.179
77.9704 2.865 0.173
77.9908 2.542 0.163
78.0113 2.615 0.165
78.0317 2.667 0.167
78.0522 2.917 0.174
78.0727 2.427 0.159
78.0931 2.469 0.160
78.1136 2.302 0.155
78.1341 2.458 0.160
78.1545 2.510 0.162
78.1750 2.333 0.156
78.1954 2.313 0.155
78.2159 2.656 0.166
78.2364 2.406 0.158
78.2568 2.438 0.159
78.2773 2.479 0.161
78.2978 2.469 0.160
78.3182 2.302 0.155
78.3387 2.438 0.159
78.3591 2.896 0.174
78.3796 2.552 0.163
78.4001 2.750 0.169
78.4205 2.844 0.172
78.4410 2.760 0.170
78.4615 2.635 0.166
78.4819 2.833 0.172
78.5024 3.198 0.183
78.5228 2.438 0.159
78.5433 2.760 0.170
78.5638 3.208 0.183
78.5842 2.552 0.163
78.6047 3.073 0.179
78.6252 2.719 0.168
78.6456 2.906 0.174
78.6661 3.177 0.182
78.6865 2.708 0.168
78.7070 3.219 0.183
78.7275 3.323 0.186
78.7479 2.781 0.170
78.7684 2.646 0.166
78.7889 2.990 0.176
78.8093 2.719 0.168
78.8298 2.771 0.170
78.8503 2.927 0.175
78.8707 2.854 0.172
78.8912 2.719 0.168
78.9116 2.917 0.174
78.9321 2.938 0.175
78.9526 3.073 0.179
78.9730 3.125 0.180
78.9935 2.708 0.168
79.0140 2.698 0.168
79.0344 2.896 0.174
79.0549 3.031 0.178
79.0753 2.583 0.164
79.0958 3.177 0.182
79.1163 2.594 0.164
79.1367 2.688 0.167
79.1572 2.750 0.169
79.1777 2.813 0.171
79.1981 2.271 0.154
79.2186 2.865 0.173
79.2390 2.604 0.165
79.2595 2.656 0.166
79.2800 2.771 0.170
79.3004 2.688 0.167
79.3209 2.323 0.156
79.3414 2.469 0.160
79.3618 2.938 0.175
79.3823 2.500 0.161
79.4027 2.542 0.163
79.4232 2.719 0.168
79.4437 2.990 0.176
79.4641 2.406 0.158
79.4846 2.490 0.161
79.5051 2.823 0.171
79.5255 3.094 0.180
79.5460 2.979 0.176
79.5664 3.156 0.181
79.5869 2.958 0.176
79.6074 3.010 0.177
79.6278 2.552 0.163
79.6483 2.833 0.172
79.6688 2.354 0.157
79.6892 2.635 0.166
79.7097 2.906 0.174
79.7302 2.604 0.165
79.7506 2.740 0.169
79.7711 2.615 0.165
79.7915 2.677 0.167
79.8120 2.375 0.157
79.8325 2.646 0.166
79.8529 2.865 0.173
79.8734 2.604 0.165
79.8939 2.448 0.160
79.9143 2.250 0.153
79.9348 2.635 0.166
79.9552 2.417 0.159
79.9757 2.521 0.162
79.9962 2.542 0.163
