'Id: "" Comment: "" Operator: "Lab Manager" Anode: "Cu" Scantype: "Locked Coupled" TimePerStep: "96" X: "0" Y: "0" Z: "0" 
5.0000 23.521 0.495
5.0205 23.010 0.490
5.0409 21.979 0.478
5.0614 23.115 0.491
5.0819 23.250 0.492
5.1023 23.063 0.490
5.1228 22.594 0.485
5.1432 22.271 0.482
5.1637 22.990 0.489
5.1842 22.063 0.479
5.2046 22.271 0.482
5.2251 23.125 0.491
5.2456 23.010 0.490
5.2660 21.948 0.478
5.2865 22.229 0.481
5.3069 22.292 0.482
5.3274 21.729 0.476
5.3479 21.771 0.476
5.3683 22.615 0.485
5.3888 21.865 0.477
5.4093 21.729 0.476
5.4297 21.917 0.478
5.4502 21.656 0.475
5.4706 21.510 0.473
5.4911 22.115 0.480
5.5116 22.000 0.479
5.5320 20.375 0.461
5.5525 21.313 0.471
5.5730 21.021 0.468
5.5934 20.979 0.467
5.6139 20.948 0.467
5.6343 21.396 0.472
5.6548 22.031 0.479
5.6753 22.031 0.479
5.6957 21.479 0.473
5.7162 20.938 0.467
5.7367 20.292 0.460
5.7571 21.708 0.476
5.7776 20.333 0.460
5.7980 20.563 0.463
5.8185 20.740 0.465
5.8390 20.052 0.457
5.8594 20.854 0.466
5.8799 20.385 0.461
5.9004 21.156 0.469
5.9208 19.729 0.453
5.9413 19.635 0.452
5.9618 20.656 0.464
5.9822 20.177 0.458
6.0027 20.802 0.465
6.0231 19.969 0.456
6.0436 20.542 0.463
6.0641 20.948 0.467
6.0845 20.510 0.462
6.1050 19.646 0.452
6.1255 19.594 0.452
6.1459 19.844 0.455
6.1664 20.594 0.463
6.1868 19.219 0.447
6.2073 19.896 0.455
6.2278 20.667 0.464
6.2482 19.813 0.454
6.2687 19.521 0.451
6.2892 20.042 0.457
6.3096 19.760 0.454
6.3301 20.479 0.462
6.3505 19.969 0.456
6.3710 19.875 0.455
6.3915 19.063 0.446
6.4119 20.094 0.458
6.4324 19.750 0.454
6.4529 19.271 0.448
6.4733 19.271 0.448
6.4938 19.073 0.446
6.5142 19.938 0.456
6.5347 17.990 0.433
6.5552 18.896 0.444
6.5756 20.146 0.458
6.5961 19.573 0.452
6.6166 19.552 0.451
6.6370 19.521 0.451
6.6575 20.073 0.457
6.6779 19.917 0.455
6.6984 19.469 0.450
6.7189 19.563 0.451
6.7393 19.708 0.453
6.7598 19.208 0.447
6.7803 19.823 0.454
6.8007 19.229 0.448
6.8212 19.219 0.447
6.8417 18.656 0.441
6.8621 19.219 0.447
6.8826 19.542 0.451
6.9030 18.990 0.445
6.9235 19.698 0.453
6.9440 19.052 0.445
6.9644 19.104 0.446
6.9849 19.385 0.449
7.0054 19.365 0.449
7.0258 19.885 0.455
7.0463 19.260 0.448
7.0667 19.177 0.447
7.0872 19.510 0.451
7.1077 18.885 0.444
7.1281 19.719 0.453
7.1486 19.979 0.456
7.1691 18.406 0.438
7.1895 19.646 0.452
7.2100 19.646 0.452
7.2304 19.365 0.449
7.2509 19.156 0.447
7.2714 19.302 0.448
7.2918 18.594 0.440
7.3123 19.177 0.447
7.3328 18.833 0.443
7.3532 19.542 0.451
7.3737 20.313 0.460
7.3941 18.833 0.443
7.4146 18.646 0.441
7.4351 19.375 0.449
7.4555 19.156 0.447
7.4760 19.146 0.447
7.4965 19.792 0.454
7.5169 19.073 0.446
7.5374 19.385 0.449
7.5579 19.375 0.449
7.5783 18.750 0.442
7.5988 19.250 0.448
7.6192 19.292 0.448
7.6397 19.406 0.450
7.6602 19.750 0.454
7.6806 19.604 0.452
7.7011 20.229 0.459
7.7216 20.313 0.460
7.7420 20.302 0.460
7.7625 20.802 0.465
7.7829 19.677 0.453
7.8034 20.771 0.465
7.8239 18.719 0.442
7.8443 19.333 0.449
7.8648 19.469 0.450
7.8853 18.917 0.444
7.9057 19.729 0.453
7.9262 19.677 0.453
7.9466 19.656 0.452
7.9671 19.594 0.452
7.9876 20.240 0.459
8.0080 20.750 0.465
8.0285 19.688 0.453
8.0490 19.073 0.446
8.0694 18.958 0.444
8.0899 19.646 0.452
8.1103 21.188 0.470
8.1308 19.865 0.455
8.1513 19.510 0.451
8.1717 20.271 0.460
8.1922 20.167 0.458
8.2127 20.104 0.458
8.2331 19.708 0.453
8.2536 19.417 0.450
8.2740 19.958 0.456
8.2945 20.198 0.459
8.3150 20.896 0.467
8.3354 20.583 0.463
8.3559 20.365 0.461
8.3764 20.167 0.458
8.3968 19.938 0.456
8.4173 19.427 0.450
8.4378 20.760 0.465
8.4582 20.500 0.462
8.4787 19.906 0.455
8.4991 20.500 0.462
8.5196 20.417 0.461
8.5401 20.198 0.459
8.5605 20.521 0.462
8.5810 20.510 0.462
8.6015 20.125 0.458
8.6219 20.354 0.460
8.6424 20.542 0.463
8.6628 20.302 0.460
8.6833 21.073 0.469
8.7038 20.458 0.462
8.7242 21.094 0.469
8.7447 20.896 0.467
8.7652 21.052 0.468
8.7856 20.708 0.464
8.8061 21.260 0.471
8.8265 21.042 0.468
8.8470 21.052 0.468
8.8675 21.833 0.477
8.8879 22.063 0.479
8.9084 22.094 0.480
8.9289 22.167 0.481
8.9493 22.510 0.484
8.9698 24.073 0.501
8.9902 24.396 0.504
9.0107 22.958 0.489
9.0312 24.646 0.507
9.0516 24.865 0.509
9.0721 25.115 0.511
9.0926 25.927 0.520
9.1130 26.354 0.524
9.1335 28.646 0.546
9.1539 27.333 0.534
9.1744 28.292 0.543
9.1949 31.083 0.569
9.2153 33.365 0.590
9.2358 35.740 0.610
9.2563 37.802 0.628
9.2767 40.729 0.651
9.2972 42.510 0.665
9.3177 43.365 0.672
9.3381 44.281 0.679
9.3586 44.052 0.677
9.3790 43.323 0.672
9.3995 42.740 0.667
9.4200 43.490 0.673
9.4404 44.760 0.683
9.4609 44.573 0.681
9.4814 46.823 0.698
9.5018 47.000 0.700
9.5223 48.292 0.709
9.5427 51.854 0.735
9.5632 53.021 0.743
9.5837 56.260 0.766
9.6041 57.656 0.775
9.6246 62.146 0.805
9.6451 63.000 0.810
9.6655 67.750 0.840
9.6860 71.417 0.863
9.7064 75.667 0.888
9.7269 83.677 0.934
9.7474 91.625 0.977
9.7678 101.917 1.030
9.7883 115.563 1.097
9.8088 131.885 1.172
9.8292 150.865 1.254
9.8497 171.208 1.335
9.8701 194.479 1.423
9.8906 207.500 1.470
9.9111 198.375 1.438
9.9315 156.635 1.277
9.9520 109.552 1.068
9.9725 81.844 0.923
9.9929 67.510 0.839
10.0134 58.771 0.782
10.0338 53.542 0.747
10.0543 49.729 0.720
10.0748 45.750 0.690
10.0952 40.927 0.653
10.1157 40.104 0.646
10.1362 38.385 0.632
10.1566 36.292 0.615
10.1771 34.250 0.597
10.1976 32.979 0.586
10.2180 31.021 0.568
10.2385 29.969 0.559
10.2589 29.417 0.554
10.2794 28.771 0.547
10.2999 28.552 0.545
10.3203 28.094 0.541
10.3408 27.771 0.538
10.3613 27.188 0.532
10.3817 26.677 0.527
10.4022 26.354 0.524
10.4226 26.354 0.524
10.4431 25.000 0.510
10.4636 24.865 0.509
10.4840 23.854 0.498
10.5045 23.542 0.495
10.5250 24.177 0.502
10.5454 23.896 0.499
10.5659 23.375 0.493
10.5863 24.010 0.500
10.6068 22.344 0.482
10.6273 23.073 0.490
10.6477 23.385 0.494
10.6682 22.510 0.484
10.6887 22.167 0.481
10.7091 21.719 0.476
10.7296 21.375 0.472
10.7500 22.083 0.480
10.7705 21.656 0.475
10.7910 21.240 0.470
10.8114 20.854 0.466
10.8319 20.583 0.463
10.8524 20.198 0.459
10.8728 20.417 0.461
10.8933 19.760 0.454
10.9137 19.990 0.456
10.9342 20.125 0.458
10.9547 19.281 0.448
10.9751 18.906 0.444
10.9956 18.969 0.445
11.0161 18.781 0.442
11.0365 18.583 0.440
11.0570 18.719 0.442
11.0775 18.083 0.434
11.0979 18.021 0.433
11.1184 18.573 0.440
11.1388 18.240 0.436
11.1593 17.906 0.432
11.1798 17.625 0.428
11.2002 18.052 0.434
11.2207 17.156 0.423
11.2412 17.406 0.426
11.2616 17.323 0.425
11.2821 17.625 0.428
11.3025 16.458 0.414
11.3230 16.563 0.415
11.3435 17.500 0.427
11.3639 16.927 0.420
11.3844 16.292 0.412
11.4049 16.760 0.418
11.4253 16.500 0.415
11.4458 16.417 0.414
11.4662 16.375 0.413
11.4867 16.719 0.417
11.5072 18.167 0.435
11.5276 16.458 0.414
11.5481 16.031 0.409
11.5686 15.958 0.408
11.5890 15.854 0.406
11.6095 15.490 0.402
11.6299 15.521 0.402
11.6504 15.365 0.400
11.6709 15.677 0.404
11.6913 15.385 0.400
11.7118 16.313 0.412
11.7323 15.792 0.406
11.7527 15.156 0.397
11.7732 15.333 0.400
11.7937 16.135 0.410
11.8141 15.250 0.399
11.8346 15.594 0.403
11.8550 14.740 0.392
11.8755 15.760 0.405
11.8960 15.406 0.401
11.9164 15.000 0.395
11.9369 14.969 0.395
11.9574 15.031 0.396
11.9778 14.760 0.392
11.9983 14.969 0.395
12.0187 14.906 0.394
12.0392 14.615 0.390
12.0597 14.771 0.392
12.0801 14.688 0.391
12.1006 13.927 0.381
12.1211 14.458 0.388
12.1415 15.052 0.396
12.1620 14.469 0.388
12.1824 13.677 0.377
12.2029 14.010 0.382
12.2234 14.458 0.388
12.2438 13.698 0.378
12.2643 14.042 0.382
12.2848 13.865 0.380
12.3052 13.417 0.374
12.3257 13.302 0.372
12.3461 13.729 0.378
12.3666 14.823 0.393
12.3871 14.188 0.384
12.4075 13.771 0.379
12.4280 13.729 0.378
12.4485 13.521 0.375
12.4689 13.625 0.377
12.4894 13.969 0.381
12.5098 13.667 0.377
12.5303 13.635 0.377
12.5508 13.438 0.374
12.5712 14.042 0.382
12.5917 13.281 0.372
12.6122 14.188 0.384
12.6326 13.229 0.371
12.6531 13.219 0.371
12.6736 13.510 0.375
12.6940 13.375 0.373
12.7145 13.125 0.370
12.7349 12.542 0.361
12.7554 12.885 0.366
12.7759 12.979 0.368
12.7963 13.771 0.379
12.8168 12.417 0.360
12.8373 12.948 0.367
12.8577 13.010 0.368
12.8782 12.667 0.363
12.8986 12.531 0.361
12.9191 12.542 0.361
12.9396 12.917 0.367
12.9600 12.688 0.364
12.9805 11.917 0.352
13.0010 12.531 0.361
13.0214 12.542 0.361
13.0419 12.427 0.360
13.0623 12.760 0.365
13.0828 12.688 0.364
13.1033 12.438 0.360
13.1237 12.469 0.360
13.1442 13.260 0.372
13.1647 12.563 0.362
13.1851 12.073 0.355
13.2056 13.063 0.369
13.2260 12.938 0.367
13.2465 12.198 0.356
13.2670 12.167 0.356
13.2874 11.906 0.352
13.3079 12.792 0.365
13.3284 12.031 0.354
13.3488 12.042 0.354
13.3693 12.365 0.359
13.3897 11.323 0.343
13.4102 11.760 0.350
13.4307 11.490 0.346
13.4511 12.104 0.355
13.4716 10.427 0.330
13.4921 11.615 0.348
13.5125 11.708 0.349
13.5330 11.333 0.344
13.5535 11.938 0.353
13.5739 11.552 0.347
13.5944 11.583 0.347
13.6148 11.333 0.344
13.6353 11.521 0.346
13.6558 11.167 0.341
13.6762 11.302 0.343
13.6967 11.708 0.349
13.7172 11.760 0.350
13.7376 11.740 0.350
13.7581 11.708 0.349
13.7785 11.385 0.344
13.7990 11.510 0.346
13.8195 11.188 0.341
13.8399 10.906 0.337
13.8604 11.167 0.341
13.8809 11.260 0.342
13.9013 10.542 0.331
13.9218 11.229 0.342
13.9422 11.323 0.343
13.9627 10.875 0.337
13.9832 10.792 0.335
14.0036 10.844 0.336
14.0241 10.729 0.334
14.0446 10.635 0.333
14.0650 10.563 0.332
14.0855 11.115 0.340
14.1059 10.625 0.333
14.1264 10.771 0.335
14.1469 10.438 0.330
14.1673 10.990 0.338
14.1878 10.219 0.326
14.2083 11.031 0.339
14.2287 11.021 0.339
14.2492 10.979 0.338
14.2696 10.354 0.328
14.2901 9.927 0.322
14.3106 10.885 0.337
14.3310 10.073 0.324
14.3515 10.646 0.333
14.3720 10.740 0.334
14.3924 10.990 0.338
14.4129 11.198 0.342
14.4334 10.146 0.325
14.4538 9.792 0.319
14.4743 10.500 0.331
14.4947 11.146 0.341
14.5152 10.229 0.326
14.5357 10.479 0.330
14.5561 10.823 0.336
14.5766 10.427 0.330
14.5971 10.490 0.331
14.6175 10.302 0.328
14.6380 10.281 0.327
14.6584 10.781 0.335
14.6789 10.135 0.325
14.6994 10.240 0.327
14.7198 9.823 0.320
14.7403 10.719 0.334
14.7608 10.167 0.325
14.7812 10.375 0.329
14.8017 10.135 0.325
14.8221 10.073 0.324
14.8426 9.729 0.318
14.8631 9.854 0.320
14.8835 10.229 0.326
14.9040 10.250 0.327
14.9245 10.333 0.328
14.9449 10.260 0.327
14.9654 10.333 0.328
14.9858 10.531 0.331
15.0063 9.490 0.314
15.0268 10.260 0.327
15.0472 9.979 0.322
15.0677 10.167 0.325
15.0882 9.906 0.321
15.1086 10.125 0.325
15.1291 10.333 0.328
15.1495 9.708 0.318
15.1700 10.083 0.324
15.1905 10.083 0.324
15.2109 9.740 0.319
15.2314 9.875 0.321
15.2519 10.063 0.324
15.2723 9.813 0.320
15.2928 9.750 0.319
15.3133 10.073 0.324
15.3337 9.792 0.319
15.3542 9.510 0.315
15.3746 10.010 0.323
15.3951 9.573 0.316
15.4156 9.354 0.312
15.4360 10.010 0.323
15.4565 9.938 0.322
15.4770 9.615 0.316
15.4974 9.240 0.310
15.5179 9.542 0.315
15.5383 9.802 0.320
15.5588 9.760 0.319
15.5793 10.188 0.326
15.5997 9.979 0.322
15.6202 9.625 0.317
15.6407 9.354 0.312
15.6611 9.344 0.312
15.6816 9.635 0.317
15.7020 9.698 0.318
15.7225 9.667 0.317
15.7430 9.885 0.321
15.7634 9.698 0.318
15.7839 10.031 0.323
15.8044 10.875 0.337
15.8248 10.219 0.326
15.8453 9.917 0.321
15.8657 9.927 0.322
15.8862 9.990 0.323
15.9067 9.615 0.316
15.9271 9.750 0.319
15.9476 9.625 0.317
15.9681 9.833 0.320
15.9885 9.656 0.317
16.0090 9.813 0.320
16.0295 9.365 0.312
16.0499 9.490 0.314
16.0704 9.823 0.320
16.0908 9.563 0.316
16.1113 9.917 0.321
16.1318 9.344 0.312
16.1522 9.729 0.318
16.1727 9.510 0.315
16.1932 9.063 0.307
16.2136 9.469 0.314
16.2341 10.021 0.323
16.2545 8.917 0.305
16.2750 9.906 0.321
16.2955 9.542 0.315
16.3159 9.104 0.308
16.3364 9.656 0.317
16.3569 9.115 0.308
16.3773 9.188 0.309
16.3978 9.750 0.319
16.4182 9.229 0.310
16.4387 9.323 0.312
16.4592 9.448 0.314
16.4796 9.594 0.316
16.5001 9.458 0.314
16.5206 9.063 0.307
16.5410 9.531 0.315
16.5615 9.333 0.312
16.5819 9.438 0.314
16.6024 9.375 0.313
16.6229 9.344 0.312
16.6433 9.063 0.307
16.6638 9.656 0.317
16.6843 9.896 0.321
16.7047 9.177 0.309
16.7252 9.667 0.317
16.7456 9.760 0.319
16.7661 10.083 0.324
16.7866 9.990 0.323
16.8070 9.719 0.318
16.8275 9.656 0.317
16.8480 9.885 0.321
16.8684 9.823 0.320
16.8889 10.115 0.325
16.9094 10.167 0.325
16.9298 10.271 0.327
16.9503 9.646 0.317
16.9707 9.885 0.321
16.9912 10.354 0.328
17.0117 9.896 0.321
17.0321 9.615 0.316
17.0526 10.260 0.327
17.0731 9.083 0.308
17.0935 9.844 0.320
17.1140 10.073 0.324
17.1344 10.083 0.324
17.1549 9.969 0.322
17.1754 10.125 0.325
17.1958 10.010 0.323
17.2163 10.177 0.326
17.2368 10.271 0.327
17.2572 10.042 0.323
17.2777 10.281 0.327
17.2981 10.844 0.336
17.3186 10.458 0.330
17.3391 10.885 0.337
17.3595 11.104 0.340
17.3800 10.760 0.335
17.4005 10.656 0.333
17.4209 10.979 0.338
17.4414 10.792 0.335
17.4618 10.979 0.338
17.4823 11.156 0.341
17.5028 11.385 0.344
17.5232 11.458 0.345
17.5437 11.656 0.348
17.5642 11.708 0.349
17.5846 11.635 0.348
17.6051 12.167 0.356
17.6255 12.208 0.357
17.6460 12.427 0.360
17.6665 12.000 0.354
17.6869 12.198 0.356
17.7074 12.646 0.363
17.7279 13.375 0.373
17.7483 13.385 0.373
17.7688 14.271 0.386
17.7893 14.594 0.390
17.8097 14.823 0.393
17.8302 14.677 0.391
17.8506 16.031 0.409
17.8711 15.427 0.401
17.8916 16.063 0.409
17.9120 16.094 0.409
17.9325 15.792 0.406
17.9530 16.906 0.420
17.9734 16.781 0.418
17.9939 17.323 0.425
18.0143 17.198 0.423
18.0348 18.635 0.441
18.0553 19.250 0.448
18.0757 20.333 0.460
18.0962 20.375 0.461
18.1167 20.167 0.458
18.1371 20.271 0.460
18.1576 19.573 0.452
18.1780 19.615 0.452
18.1985 19.208 0.447
18.2190 19.667 0.453
18.2394 20.385 0.461
18.2599 19.417 0.450
18.2804 21.438 0.473
18.3008 20.313 0.460
18.3213 21.365 0.472
18.3417 21.000 0.468
18.3622 22.188 0.481
18.3827 21.688 0.475
18.4031 21.781 0.476
18.4236 22.385 0.483
18.4441 22.531 0.484
18.4645 22.250 0.481
18.4850 21.781 0.476
18.5054 22.146 0.480
18.5259 22.802 0.487
18.5464 21.646 0.475
18.5668 22.698 0.486
18.5873 22.854 0.488
18.6078 24.354 0.504
18.6282 24.448 0.505
18.6487 24.385 0.504
18.6692 23.750 0.497
18.6896 24.927 0.510
18.7101 22.917 0.489
18.7305 23.625 0.496
18.7510 23.510 0.495
18.7715 22.073 0.480
18.7919 22.344 0.482
18.8124 21.802 0.477
18.8329 20.854 0.466
18.8533 21.760 0.476
18.8738 20.573 0.463
18.8942 20.271 0.460
18.9147 19.719 0.453
18.9352 19.448 0.450
18.9556 18.958 0.444
18.9761 18.635 0.441
18.9966 18.260 0.436
19.0170 17.927 0.432
19.0375 17.240 0.424
19.0579 17.281 0.424
19.0784 16.260 0.412
19.0989 17.802 0.431
19.1193 16.917 0.420
19.1398 16.135 0.410
19.1603 16.958 0.420
19.1807 16.573 0.415
19.2012 17.490 0.427
19.2216 16.438 0.414
19.2421 16.990 0.421
19.2626 16.260 0.412
19.2830 15.927 0.407
19.3035 16.438 0.414
19.3240 16.792 0.418
19.3444 16.333 0.412
19.3649 17.063 0.422
19.3853 16.979 0.421
19.4058 16.281 0.412
19.4263 17.635 0.429
19.4467 17.542 0.427
19.4672 17.156 0.423
19.4877 18.156 0.435
19.5081 18.208 0.436
19.5286 18.760 0.442
19.5491 18.542 0.439
19.5695 19.177 0.447
19.5900 19.760 0.454
19.6104 20.458 0.462
19.6309 21.760 0.476
19.6514 21.635 0.475
19.6718 22.083 0.480
19.6923 23.615 0.496
19.7128 25.292 0.513
19.7332 26.396 0.524
19.7537 31.177 0.570
19.7741 34.542 0.600
19.7946 40.896 0.653
19.8151 47.771 0.705
19.8355 52.396 0.739
19.8560 54.990 0.757
19.8765 49.521 0.718
19.8969 41.073 0.654
19.9174 34.719 0.601
19.9378 28.188 0.542
19.9583 24.646 0.507
19.9788 23.156 0.491
19.9992 20.781 0.465
20.0197 21.240 0.470
20.0402 19.313 0.449
20.0606 18.552 0.440
20.0811 18.771 0.442
20.1015 18.906 0.444
20.1220 18.583 0.440
20.1425 18.073 0.434
20.1629 18.927 0.444
20.1834 19.198 0.447
20.2039 19.094 0.446
20.2243 20.344 0.460
20.2448 20.594 0.463
20.2653 21.854 0.477
20.2857 20.625 0.464
20.3062 21.479 0.473
20.3266 21.115 0.469
20.3471 21.771 0.476
20.3676 22.510 0.484
20.3880 22.167 0.481
20.4085 22.031 0.479
20.4290 22.010 0.479
20.4494 21.406 0.472
20.4699 22.615 0.485
20.4903 22.052 0.479
20.5108 21.573 0.474
20.5313 20.531 0.462
20.5517 19.979 0.456
20.5722 20.125 0.458
20.5927 19.281 0.448
20.6131 18.219 0.436
20.6336 17.406 0.426
20.6540 16.396 0.413
20.6745 16.063 0.409
20.6950 16.396 0.413
20.7154 15.594 0.403
20.7359 15.688 0.404
20.7564 14.313 0.386
20.7768 14.448 0.388
20.7973 14.292 0.386
20.8177 13.010 0.368
20.8382 13.094 0.369
20.8587 12.906 0.367
20.8791 13.521 0.375
20.8996 12.313 0.358
20.9201 12.896 0.367
20.9405 12.208 0.357
20.9610 12.000 0.354
20.9814 11.875 0.352
21.0019 11.490 0.346
21.0224 11.615 0.348
21.0428 11.458 0.345
21.0633 11.615 0.348
21.0838 11.469 0.346
21.1042 12.375 0.359
21.1247 11.781 0.350
21.1452 11.448 0.345
21.1656 11.052 0.339
21.1861 11.385 0.344
21.2065 11.115 0.340
21.2270 11.219 0.342
21.2475 11.865 0.352
21.2679 11.271 0.343
21.2884 11.344 0.344
21.3089 11.427 0.345
21.3293 10.625 0.333
21.3498 10.906 0.337
21.3702 10.635 0.333
21.3907 11.094 0.340
21.4112 11.542 0.347
21.4316 10.229 0.326
21.4521 11.125 0.340
21.4726 11.417 0.345
21.4930 10.698 0.334
21.5135 10.719 0.334
21.5339 11.479 0.346
21.5544 11.250 0.342
21.5749 11.135 0.341
21.5953 11.094 0.340
21.6158 11.031 0.339
21.6363 11.031 0.339
21.6567 11.188 0.341
21.6772 10.906 0.337
21.6976 11.208 0.342
21.7181 11.438 0.345
21.7386 11.813 0.351
21.7590 11.563 0.347
21.7795 11.760 0.350
21.8000 11.083 0.340
21.8204 11.208 0.342
21.8409 11.802 0.351
21.8613 11.177 0.341
21.8818 10.958 0.338
21.9023 11.510 0.346
21.9227 11.844 0.351
21.9432 11.958 0.353
21.9637 12.563 0.362
21.9841 12.510 0.361
22.0046 12.521 0.361
22.0251 12.750 0.364
22.0455 13.167 0.370
22.0660 13.281 0.372
22.0864 14.885 0.394
22.1069 15.604 0.403
22.1274 18.083 0.434
22.1478 21.167 0.470
22.1683 25.188 0.512
22.1888 29.042 0.550
22.2092 30.552 0.564
22.2297 28.823 0.548
22.2501 27.000 0.530
22.2706 23.948 0.499
22.2911 20.896 0.467
22.3115 18.917 0.444
22.3320 17.146 0.423
22.3525 16.760 0.418
22.3729 15.365 0.400
22.3934 15.573 0.403
22.4138 15.073 0.396
22.4343 14.219 0.385
22.4548 13.990 0.382
22.4752 13.052 0.369
22.4957 13.385 0.373
22.5162 13.583 0.376
22.5366 12.531 0.361
22.5571 12.604 0.362
22.5775 12.438 0.360
22.5980 12.167 0.356
22.6185 11.760 0.350
22.6389 12.875 0.366
22.6594 12.083 0.355
22.6799 11.135 0.341
22.7003 11.354 0.344
22.7208 10.896 0.337
22.7412 10.792 0.335
22.7617 10.802 0.335
22.7822 10.635 0.333
22.8026 11.125 0.340
22.8231 11.115 0.340
22.8436 10.354 0.328
22.8640 10.948 0.338
22.8845 11.177 0.341
22.9050 11.385 0.344
22.9254 11.167 0.341
22.9459 11.115 0.340
22.9663 10.063 0.324
22.9868 10.344 0.328
23.0073 10.865 0.336
23.0277 11.333 0.344
23.0482 10.271 0.327
23.0687 10.771 0.335
23.0891 10.083 0.324
23.1096 10.094 0.324
23.1300 9.927 0.322
23.1505 9.969 0.322
23.1710 9.927 0.322
23.1914 9.354 0.312
23.2119 9.708 0.318
23.2324 10.146 0.325
23.2528 9.896 0.321
23.2733 9.500 0.315
23.2937 10.354 0.328
23.3142 9.833 0.320
23.3347 9.677 0.317
23.3551 10.156 0.325
23.3756 9.677 0.317
23.3961 9.802 0.320
23.4165 9.813 0.320
23.4370 9.417 0.313
23.4574 9.615 0.316
23.4779 9.594 0.316
23.4984 9.417 0.313
23.5188 10.396 0.329
23.5393 9.667 0.317
23.5598 10.021 0.323
23.5802 10.635 0.333
23.6007 10.719 0.334
23.6211 10.302 0.328
23.6416 10.583 0.332
23.6621 10.854 0.336
23.6825 10.885 0.337
23.7030 10.917 0.337
23.7235 10.729 0.334
23.7439 10.781 0.335
23.7644 9.896 0.321
23.7849 9.573 0.316
23.8053 9.698 0.318
23.8258 9.479 0.314
23.8462 8.990 0.306
23.8667 8.854 0.304
23.8872 8.521 0.298
23.9076 9.115 0.308
23.9281 8.490 0.297
23.9486 8.750 0.302
23.9690 9.167 0.309
23.9895 8.438 0.296
24.0099 8.594 0.299
24.0304 8.448 0.297
24.0509 8.510 0.298
24.0713 8.167 0.292
24.0918 8.052 0.290
24.1123 8.375 0.295
24.1327 8.719 0.301
24.1532 8.490 0.297
24.1736 8.490 0.297
24.1941 8.385 0.296
24.2146 8.781 0.302
24.2350 8.313 0.294
24.2555 8.604 0.299
24.2760 9.625 0.317
24.2964 9.219 0.310
24.3169 9.094 0.308
24.3373 10.042 0.323
24.3578 9.781 0.319
24.3783 9.656 0.317
24.3987 9.146 0.309
24.4192 8.979 0.306
24.4397 8.323 0.294
24.4601 7.833 0.286
24.4806 8.240 0.293
24.5011 8.521 0.298
24.5215 8.292 0.294
24.5420 8.010 0.289
24.5624 8.094 0.290
24.5829 8.188 0.292
24.6034 8.427 0.296
24.6238 8.250 0.293
24.6443 7.625 0.282
24.6648 7.563 0.281
24.6852 7.875 0.286
24.7057 7.979 0.288
24.7261 7.813 0.285
24.7466 8.031 0.289
24.7671 7.708 0.283
24.7875 8.031 0.289
24.8080 8.479 0.297
24.8285 7.990 0.288
24.8489 8.354 0.295
24.8694 7.698 0.283
24.8898 7.833 0.286
24.9103 7.917 0.287
24.9308 7.708 0.283
24.9512 7.917 0.287
24.9717 7.646 0.282
24.9922 7.906 0.287
25.0126 8.375 0.295
25.0331 7.802 0.285
25.0535 7.896 0.287
25.0740 7.938 0.288
25.0945 7.677 0.283
25.1149 7.802 0.285
25.1354 7.667 0.283
25.1559 7.823 0.285
25.1763 7.604 0.281
25.1968 7.969 0.288
25.2172 6.875 0.268
25.2377 7.875 0.286
25.2582 7.719 0.284
25.2786 7.500 0.280
25.2991 7.240 0.275
25.3196 7.844 0.286
25.3400 7.833 0.286
25.3605 7.417 0.278
25.3810 7.563 0.281
25.4014 7.417 0.278
25.4219 7.115 0.272
25.4423 7.854 0.286
25.4628 7.615 0.282
25.4833 7.552 0.280
25.5037 7.354 0.277
25.5242 7.698 0.283
25.5447 7.750 0.284
25.5651 7.813 0.285
25.5856 8.010 0.289
25.6060 7.990 0.288
25.6265 7.438 0.278
25.6470 7.385 0.277
25.6674 7.823 0.285
25.6879 8.073 0.290
25.7084 7.927 0.287
25.7288 7.604 0.281
25.7493 7.490 0.279
25.7697 7.688 0.283
25.7902 7.594 0.281
25.8107 7.458 0.279
25.8311 7.646 0.282
25.8516 7.198 0.274
25.8721 8.104 0.291
25.8925 7.260 0.275
25.9130 7.073 0.271
25.9334 7.938 0.288
25.9539 7.698 0.283
25.9744 7.552 0.280
25.9948 7.510 0.280
26.0153 7.719 0.284
26.0358 7.802 0.285
26.0562 7.708 0.283
26.0767 8.073 0.290
26.0971 7.771 0.285
26.1176 7.615 0.282
26.1381 7.458 0.279
26.1585 7.615 0.282
26.1790 7.625 0.282
26.1995 8.156 0.291
26.2199 7.406 0.278
26.2404 8.125 0.291
26.2609 7.406 0.278
26.2813 7.729 0.284
26.3018 7.688 0.283
26.3222 8.010 0.289
26.3427 7.750 0.284
26.3632 7.854 0.286
26.3836 7.854 0.286
26.4041 7.990 0.288
26.4246 7.938 0.288
26.4450 7.729 0.284
26.4655 7.948 0.288
26.4859 7.656 0.282
26.5064 7.260 0.275
26.5269 7.635 0.282
26.5473 8.000 0.289
26.5678 7.635 0.282
26.5883 7.573 0.281
26.6087 7.552 0.280
26.6292 7.240 0.275
26.6496 7.781 0.285
26.6701 7.906 0.287
26.6906 7.698 0.283
26.7110 7.979 0.288
26.7315 7.625 0.282
26.7520 8.365 0.295
26.7724 8.073 0.290
26.7929 7.677 0.283
26.8133 7.792 0.285
26.8338 8.313 0.294
26.8543 8.031 0.289
26.8747 7.865 0.286
26.8952 8.177 0.292
26.9157 8.094 0.290
26.9361 7.823 0.285
26.9566 8.115 0.291
26.9770 7.854 0.286
26.9975 8.167 0.292
27.0180 7.760 0.284
27.0384 7.583 0.281
27.0589 7.958 0.288
27.0794 7.677 0.283
27.0998 7.281 0.275
27.1203 7.802 0.285
27.1408 7.521 0.280
27.1612 7.854 0.286
27.1817 7.969 0.288
27.2021 7.531 0.280
27.2226 7.771 0.285
27.2431 8.281 0.294
27.2635 8.219 0.293
27.2840 7.438 0.278
27.3045 7.781 0.285
27.3249 8.125 0.291
27.3454 7.792 0.285
27.3658 7.531 0.280
27.3863 8.010 0.289
27.4068 7.448 0.279
27.4272 7.458 0.279
27.4477 7.729 0.284
27.4682 7.792 0.285
27.4886 8.000 0.289
27.5091 7.854 0.286
27.5295 7.688 0.283
27.5500 7.781 0.285
27.5705 7.510 0.280
27.5909 7.542 0.280
27.6114 8.510 0.298
27.6319 8.198 0.292
27.6523 7.823 0.285
27.6728 7.635 0.282
27.6932 7.573 0.281
27.7137 7.177 0.273
27.7342 7.729 0.284
27.7546 7.604 0.281
27.7751 7.813 0.285
27.7956 7.427 0.278
27.8160 7.458 0.279
27.8365 7.594 0.281
27.8569 7.875 0.286
27.8774 7.958 0.288
27.8979 7.958 0.288
27.9183 7.323 0.276
27.9388 7.844 0.286
27.9593 8.198 0.292
27.9797 7.542 0.280
28.0002 8.344 0.295
28.0207 8.083 0.290
28.0411 7.615 0.282
28.0616 7.823 0.285
28.0820 7.854 0.286
28.1025 7.375 0.277
28.1230 7.208 0.274
28.1434 7.479 0.279
28.1639 7.406 0.278
28.1844 7.719 0.284
28.2048 7.417 0.278
28.2253 7.365 0.277
28.2457 7.521 0.280
28.2662 7.135 0.273
28.2867 7.813 0.285
28.3071 7.115 0.272
28.3276 7.406 0.278
28.3481 6.813 0.266
28.3685 7.208 0.274
28.3890 7.469 0.279
28.4094 7.250 0.275
28.4299 7.479 0.279
28.4504 7.333 0.276
28.4708 7.010 0.270
28.4913 7.146 0.273
28.5118 7.302 0.276
28.5322 7.750 0.284
28.5527 7.469 0.279
28.5731 7.240 0.275
28.5936 7.396 0.278
28.6141 7.333 0.276
28.6345 6.906 0.268
28.6550 6.875 0.268
28.6755 7.333 0.276
28.6959 7.031 0.271
28.7164 7.135 0.273
28.7368 7.271 0.275
28.7573 7.531 0.280
28.7778 7.104 0.272
28.7982 7.073 0.271
28.8187 6.885 0.268
28.8392 6.854 0.267
28.8596 7.125 0.272
28.8801 7.167 0.273
28.9006 7.104 0.272
28.9210 6.500 0.260
28.9415 7.500 0.280
28.9619 7.177 0.273
28.9824 6.917 0.268
29.0029 6.438 0.259
29.0233 7.344 0.277
29.0438 6.667 0.264
29.0643 7.135 0.273
29.0847 6.958 0.269
29.1052 7.188 0.274
29.1256 7.000 0.270
29.1461 7.177 0.273
29.1666 6.906 0.268
29.1870 7.490 0.279
29.2075 7.344 0.277
29.2280 7.219 0.274
29.2484 6.938 0.269
29.2689 7.688 0.283
29.2893 7.250 0.275
29.3098 7.667 0.283
29.3303 7.750 0.284
29.3507 7.302 0.276
29.3712 8.010 0.289
29.3917 7.167 0.273
29.4121 7.625 0.282
29.4326 7.458 0.279
29.4530 7.094 0.272
29.4735 6.333 0.257
29.4940 6.729 0.265
29.5144 6.552 0.261
29.5349 7.302 0.276
29.5554 7.115 0.272
29.5758 6.542 0.261
29.5963 6.563 0.261
29.6168 6.906 0.268
29.6372 7.073 0.271
29.6577 6.719 0.265
29.6781 6.229 0.255
29.6986 6.781 0.266
29.7191 7.219 0.274
29.7395 6.906 0.268
29.7600 7.104 0.272
29.7805 6.813 0.266
29.8009 6.677 0.264
29.8214 6.646 0.263
29.8418 6.938 0.269
29.8623 6.281 0.256
29.8828 6.406 0.258
29.9032 6.729 0.265
29.9237 6.344 0.257
29.9442 6.375 0.258
29.9646 6.323 0.257
29.9851 6.740 0.265
30.0055 7.188 0.274
30.0260 6.906 0.268
30.0465 6.292 0.256
30.0669 6.677 0.264
30.0874 6.656 0.263
30.1079 6.521 0.261
30.1283 6.198 0.254
30.1488 6.625 0.263
30.1692 6.958 0.269
30.1897 6.510 0.260
30.2102 6.792 0.266
30.2306 6.740 0.265
30.2511 7.125 0.272
30.2716 6.396 0.258
30.2920 6.604 0.262
30.3125 6.594 0.262
30.3329 6.917 0.268
30.3534 7.010 0.270
30.3739 6.635 0.263
30.3943 6.458 0.259
30.4148 6.490 0.260
30.4353 6.448 0.259
30.4557 6.354 0.257
30.4762 7.031 0.271
30.4967 6.833 0.267
30.5171 6.635 0.263
30.5376 7.135 0.273
30.5580 6.365 0.257
30.5785 6.302 0.256
30.5990 6.708 0.264
30.6194 7.250 0.275
30.6399 6.865 0.267
30.6604 6.844 0.267
30.6808 6.760 0.265
30.7013 7.323 0.276
30.7217 7.438 0.278
30.7422 6.990 0.270
30.7627 7.219 0.274
30.7831 7.188 0.274
30.8036 8.406 0.296
30.8241 8.365 0.295
30.8445 8.604 0.299
30.8650 8.958 0.305
30.8854 8.990 0.306
30.9059 10.031 0.323
30.9264 12.469 0.360
30.9468 14.854 0.393
30.9673 19.042 0.445
30.9878 26.740 0.528
31.0082 36.010 0.612
31.0287 46.729 0.698
31.0491 51.521 0.733
31.0696 47.167 0.701
31.0901 43.979 0.677
31.1105 39.385 0.641
31.1310 34.156 0.596
31.1515 26.656 0.527
31.1719 22.094 0.480
31.1924 17.052 0.421
31.2128 14.146 0.384
31.2333 12.000 0.354
31.2538 10.708 0.334
31.2742 10.000 0.323
31.2947 9.708 0.318
31.3152 8.292 0.294
31.3356 8.698 0.301
31.3561 8.552 0.298
31.3766 7.927 0.287
31.3970 7.635 0.282
31.4175 7.646 0.282
31.4379 7.313 0.276
31.4584 6.938 0.269
31.4789 7.417 0.278
31.4993 7.073 0.271
31.5198 6.760 0.265
31.5403 7.313 0.276
31.5607 6.792 0.266
31.5812 7.292 0.276
31.6016 7.469 0.279
31.6221 6.583 0.262
31.6426 7.156 0.273
31.6630 6.708 0.264
31.6835 7.552 0.280
31.7040 7.042 0.271
31.7244 7.542 0.280
31.7449 7.375 0.277
31.7653 7.146 0.273
31.7858 7.063 0.271
31.8063 7.740 0.284
31.8267 7.177 0.273
31.8472 7.323 0.276
31.8677 7.104 0.272
31.8881 7.031 0.271
31.9086 7.052 0.271
31.9290 7.667 0.283
31.9495 7.854 0.286
31.9700 7.708 0.283
31.9904 7.635 0.282
32.0109 7.521 0.280
32.0314 7.833 0.286
32.0518 8.000 0.289
32.0723 8.438 0.296
32.0927 8.760 0.302
32.1132 8.948 0.305
32.1337 8.552 0.298
32.1541 8.750 0.302
32.1746 9.063 0.307
32.1951 8.552 0.298
32.2155 8.323 0.294
32.2360 8.385 0.296
32.2565 8.323 0.294
32.2769 8.396 0.296
32.2974 8.323 0.294
32.3178 8.458 0.297
32.3383 8.750 0.302
32.3588 8.208 0.292
32.3792 9.469 0.314
32.3997 10.021 0.323
32.4202 9.667 0.317
32.4406 9.979 0.322
32.4611 10.677 0.333
32.4815 11.031 0.339
32.5020 11.781 0.350
32.5225 13.177 0.370
32.5429 13.500 0.375
32.5634 13.823 0.379
32.5839 15.031 0.396
32.6043 16.854 0.419
32.6248 18.406 0.438
32.6452 18.969 0.445
32.6657 17.958 0.433
32.6862 15.563 0.403
32.7066 14.333 0.386
32.7271 13.896 0.380
32.7476 12.729 0.364
32.7680 11.104 0.340
32.7885 10.063 0.324
32.8089 9.594 0.316
32.8294 8.396 0.296
32.8499 8.240 0.293
32.8703 8.583 0.299
32.8908 8.281 0.294
32.9113 8.240 0.293
32.9317 8.083 0.290
32.9522 7.260 0.275
32.9726 6.854 0.267
32.9931 7.250 0.275
33.0136 7.260 0.275
33.0340 7.771 0.285
33.0545 7.031 0.271
33.0750 7.656 0.282
33.0954 7.104 0.272
33.1159 7.042 0.271
33.1364 7.365 0.277
33.1568 7.563 0.281
33.1773 6.885 0.268
33.1977 6.802 0.266
33.2182 7.042 0.271
33.2387 6.823 0.267
33.2591 6.510 0.260
33.2796 6.781 0.266
33.3001 6.427 0.259
33.3205 6.615 0.262
33.3410 6.885 0.268
33.3614 6.615 0.262
33.3819 6.948 0.269
33.4024 6.083 0.252
33.4228 6.917 0.268
33.4433 6.365 0.257
33.4638 6.844 0.267
33.4842 6.781 0.266
33.5047 6.948 0.269
33.5251 6.490 0.260
33.5456 6.677 0.264
33.5661 6.083 0.252
33.5865 6.240 0.255
33.6070 7.115 0.272
33.6275 6.021 0.250
33.6479 6.240 0.255
33.6684 6.708 0.264
33.6888 6.167 0.253
33.7093 6.438 0.259
33.7298 6.792 0.266
33.7502 6.313 0.256
33.7707 6.708 0.264
33.7912 6.938 0.269
33.8116 6.531 0.261
33.8321 6.469 0.260
33.8526 6.448 0.259
33.8730 6.281 0.256
33.8935 6.802 0.266
33.9139 6.167 0.253
33.9344 6.073 0.252
33.9549 6.177 0.254
33.9753 6.292 0.256
33.9958 6.083 0.252
34.0163 6.417 0.259
34.0367 6.667 0.264
34.0572 6.000 0.250
34.0776 5.917 0.248
34.0981 6.615 0.262
34.1186 6.833 0.267
34.1390 6.802 0.266
34.1595 6.146 0.253
34.1800 6.781 0.266
34.2004 6.135 0.253
34.2209 6.469 0.260
34.2413 6.240 0.255
34.2618 6.365 0.257
34.2823 6.510 0.260
34.3027 6.417 0.259
34.3232 6.813 0.266
34.3437 6.458 0.259
34.3641 5.906 0.248
34.3846 6.458 0.259
34.4050 6.281 0.256
34.4255 6.479 0.260
34.4460 6.552 0.261
34.4664 6.719 0.265
34.4869 6.635 0.263
34.5074 6.375 0.258
34.5278 6.354 0.257
34.5483 5.667 0.243
34.5687 6.229 0.255
34.5892 5.833 0.247
34.6097 6.094 0.252
34.6301 6.271 0.256
34.6506 6.469 0.260
34.6711 6.219 0.255
34.6915 6.042 0.251
34.7120 5.719 0.244
34.7325 6.042 0.251
34.7529 6.010 0.250
34.7734 6.115 0.252
34.7938 6.177 0.254
34.8143 6.042 0.251
34.8348 6.615 0.262
34.8552 6.417 0.259
34.8757 6.333 0.257
34.8962 6.271 0.256
34.9166 6.292 0.256
34.9371 6.677 0.264
34.9575 6.052 0.251
34.9780 6.552 0.261
34.9985 6.635 0.263
35.0189 6.354 0.257
35.0394 6.333 0.257
35.0599 6.229 0.255
35.0803 6.448 0.259
35.1008 6.156 0.253
35.1212 6.625 0.263
35.1417 6.302 0.256
35.1622 6.219 0.255
35.1826 6.167 0.253
35.2031 6.688 0.264
35.2236 6.438 0.259
35.2440 6.094 0.252
35.2645 6.094 0.252
35.2849 6.448 0.259
35.3054 6.063 0.251
35.3259 6.500 0.260
35.3463 6.417 0.259
35.3668 6.292 0.256
35.3873 6.521 0.261
35.4077 6.531 0.261
35.4282 6.063 0.251
35.4486 6.500 0.260
35.4691 6.260 0.255
35.4896 6.438 0.259
35.5100 6.479 0.260
35.5305 6.667 0.264
35.5510 7.135 0.273
35.5714 7.292 0.276
35.5919 6.844 0.267
35.6124 6.875 0.268
35.6328 7.115 0.272
35.6533 6.875 0.268
35.6737 7.156 0.273
35.6942 6.813 0.266
35.7147 6.896 0.268
35.7351 7.323 0.276
35.7556 7.271 0.275
35.7761 7.260 0.275
35.7965 7.760 0.284
35.8170 7.490 0.279
35.8374 7.625 0.282
35.8579 7.229 0.274
35.8784 8.531 0.298
35.8988 8.448 0.297
35.9193 8.406 0.296
35.9398 8.844 0.304
35.9602 9.094 0.308
35.9807 10.219 0.326
36.0011 10.438 0.330
36.0216 11.010 0.339
36.0421 11.198 0.342
36.0625 11.302 0.343
36.0830 11.615 0.348
36.1035 12.813 0.365
36.1239 12.927 0.367
36.1444 13.573 0.376
36.1648 14.729 0.392
36.1853 15.292 0.399
36.2058 14.885 0.394
36.2262 14.896 0.394
36.2467 14.448 0.388
36.2672 15.073 0.396
36.2876 15.260 0.399
36.3081 14.448 0.388
36.3285 14.396 0.387
36.3490 15.958 0.408
36.3695 14.688 0.391
36.3899 15.354 0.400
36.4104 16.042 0.409
36.4309 16.438 0.414
36.4513 17.271 0.424
36.4718 17.531 0.427
36.4923 17.698 0.429
36.5127 19.021 0.445
36.5332 20.510 0.462
36.5536 21.323 0.471
36.5741 23.396 0.494
36.5946 25.083 0.511
36.6150 26.333 0.524
36.6355 25.510 0.515
36.6560 23.260 0.492
36.6764 22.615 0.485
36.6969 22.500 0.484
36.7173 21.583 0.474
36.7378 20.313 0.460
36.7583 19.010 0.445
36.7787 19.417 0.450
36.7992 17.719 0.430
36.8197 17.167 0.423
36.8401 18.240 0.436
36.8606 18.219 0.436
36.8810 17.365 0.425
36.9015 18.615 0.440
36.9220 18.104 0.434
36.9424 19.031 0.445
36.9629 18.823 0.443
36.9834 20.229 0.459
37.0038 21.292 0.471
37.0243 21.573 0.474
37.0447 23.667 0.497
37.0652 25.448 0.515
37.0857 27.906 0.539
37.1061 26.240 0.523
37.1266 24.750 0.508
37.1471 23.083 0.490
37.1675 21.833 0.477
37.1880 20.781 0.465
37.2084 19.667 0.453
37.2289 17.844 0.431
37.2494 15.677 0.404
37.2698 14.594 0.390
37.2903 14.396 0.387
37.3108 13.042 0.369
37.3312 13.740 0.378
37.3517 12.646 0.363
37.3722 12.479 0.361
37.3926 11.802 0.351
37.4131 11.583 0.347
37.4335 11.771 0.350
37.4540 11.323 0.343
37.4745 11.833 0.351
37.4949 11.865 0.352
37.5154 11.292 0.343
37.5359 11.406 0.345
37.5563 10.927 0.337
37.5768 10.865 0.336
37.5972 10.906 0.337
37.6177 11.385 0.344
37.6382 11.385 0.344
37.6586 10.896 0.337
37.6791 10.958 0.338
37.6996 9.990 0.323
37.7200 11.188 0.341
37.7405 10.813 0.336
37.7609 11.052 0.339
37.7814 10.625 0.333
37.8019 10.917 0.337
37.8223 11.042 0.339
37.8428 10.927 0.337
37.8633 11.094 0.340
37.8837 11.958 0.353
37.9042 10.667 0.333
37.9246 11.573 0.347
37.9451 12.073 0.355
37.9656 12.073 0.355
37.9860 13.208 0.371
38.0065 13.292 0.372
38.0270 13.844 0.380
38.0474 14.427 0.388
38.0679 14.292 0.386
38.0884 13.771 0.379
38.1088 13.188 0.371
38.1293 13.906 0.381
38.1497 14.010 0.382
38.1702 13.865 0.380
38.1907 12.635 0.363
38.2111 12.417 0.360
38.2316 12.615 0.362
38.2521 11.771 0.350
38.2725 11.729 0.350
38.2930 12.688 0.364
38.3134 11.990 0.353
38.3339 11.521 0.346
38.3544 12.135 0.356
38.3748 11.885 0.352
38.3953 12.115 0.355
38.4158 13.292 0.372
38.4362 13.115 0.370
38.4567 13.271 0.372
38.4771 14.125 0.384
38.4976 13.521 0.375
38.5181 13.469 0.375
38.5385 12.865 0.366
38.5590 12.906 0.367
38.5795 12.271 0.358
38.5999 11.531 0.347
38.6204 11.802 0.351
38.6408 11.115 0.340
38.6613 11.000 0.339
38.6818 10.865 0.336
38.7022 10.344 0.328
38.7227 10.510 0.331
38.7432 10.177 0.326
38.7636 10.615 0.333
38.7841 9.771 0.319
38.8045 9.906 0.321
38.8250 9.792 0.319
38.8455 9.458 0.314
38.8659 9.885 0.321
38.8864 9.833 0.320
38.9069 9.573 0.316
38.9273 9.635 0.317
38.9478 9.000 0.306
38.9683 9.073 0.307
38.9887 9.646 0.317
39.0092 10.229 0.326
39.0296 8.573 0.299
39.0501 9.583 0.316
39.0706 8.917 0.305
39.0910 9.417 0.313
39.1115 9.521 0.315
39.1320 9.521 0.315
39.1524 8.875 0.304
39.1729 9.219 0.310
39.1933 9.260 0.311
39.2138 8.573 0.299
39.2343 8.271 0.294
39.2547 9.063 0.307
39.2752 8.417 0.296
39.2957 9.094 0.308
39.3161 9.167 0.309
39.3366 9.281 0.311
39.3570 9.229 0.310
39.3775 9.115 0.308
39.3980 9.083 0.308
39.4184 9.063 0.307
39.4389 9.177 0.309
39.4594 9.427 0.313
39.4798 9.604 0.316
39.5003 8.833 0.303
39.5207 9.719 0.318
39.5412 9.604 0.316
39.5617 9.240 0.310
39.5821 9.375 0.313
39.6026 8.385 0.296
39.6231 9.135 0.308
39.6435 8.813 0.303
39.6640 8.635 0.300
39.6844 8.948 0.305
39.7049 8.990 0.306
39.7254 8.656 0.300
39.7458 9.802 0.320
39.7663 9.833 0.320
39.7868 10.104 0.324
39.8072 10.708 0.334
39.8277 10.281 0.327
39.8482 10.052 0.324
39.8686 10.458 0.330
39.8891 10.250 0.327
39.9095 9.417 0.313
39.9300 9.469 0.314
39.9505 8.604 0.299
39.9709 9.208 0.310
39.9914 8.917 0.305
40.0119 9.031 0.307
40.0323 8.719 0.301
40.0528 8.854 0.304
40.0732 9.063 0.307
40.0937 8.333 0.295
40.1142 8.760 0.302
40.1346 8.500 0.298
40.1551 8.625 0.300
40.1756 8.667 0.300
40.1960 9.229 0.310
40.2165 9.198 0.310
40.2369 9.271 0.311
40.2574 9.115 0.308
40.2779 8.667 0.300
40.2983 9.094 0.308
40.3188 8.708 0.301
40.3393 9.479 0.314
40.3597 9.333 0.312
40.3802 9.042 0.307
40.4006 9.760 0.319
40.4211 9.000 0.306
40.4416 8.708 0.301
40.4620 9.365 0.312
40.4825 8.698 0.301
40.5030 8.583 0.299
40.5234 8.531 0.298
40.5439 8.604 0.299
40.5643 8.208 0.292
40.5848 8.927 0.305
40.6053 8.979 0.306
40.6257 9.125 0.308
40.6462 8.396 0.296
40.6667 8.531 0.298
40.6871 8.229 0.293
40.7076 8.469 0.297
40.7281 8.146 0.291
40.7485 8.667 0.300
40.7690 8.104 0.291
40.7894 7.781 0.285
40.8099 8.750 0.302
40.8304 8.396 0.296
40.8508 8.521 0.298
40.8713 8.448 0.297
40.8918 7.906 0.287
40.9122 8.125 0.291
40.9327 8.083 0.290
40.9531 8.635 0.300
40.9736 8.375 0.295
40.9941 8.510 0.298
41.0145 8.594 0.299
41.0350 8.844 0.304
41.0555 9.052 0.307
41.0759 9.552 0.315
41.0964 9.802 0.320
41.1168 10.167 0.325
41.1373 10.771 0.335
41.1578 10.781 0.335
41.1782 10.854 0.336
41.1987 11.125 0.340
41.2192 10.010 0.323
41.2396 9.927 0.322
41.2601 10.125 0.325
41.2805 9.510 0.315
41.3010 8.385 0.296
41.3215 8.500 0.298
41.3419 8.604 0.299
41.3624 8.198 0.292
41.3829 8.146 0.291
41.4033 8.115 0.291
41.4238 7.677 0.283
41.4442 7.542 0.280
41.4647 7.521 0.280
41.4852 7.010 0.270
41.5056 7.375 0.277
41.5261 7.750 0.284
41.5466 7.500 0.280
41.5670 7.802 0.285
41.5875 7.938 0.288
41.6080 7.094 0.272
41.6284 7.292 0.276
41.6489 7.104 0.272
41.6693 7.031 0.271
41.6898 7.208 0.274
41.7103 7.573 0.281
41.7307 7.073 0.271
41.7512 7.167 0.273
41.7717 7.448 0.279
41.7921 7.604 0.281
41.8126 7.313 0.276
41.8330 7.375 0.277
41.8535 6.885 0.268
41.8740 6.865 0.267
41.8944 7.490 0.279
41.9149 7.438 0.278
41.9354 7.469 0.279
41.9558 7.292 0.276
41.9763 6.802 0.266
41.9967 7.396 0.278
42.0172 7.677 0.283
42.0377 7.458 0.279
42.0581 7.115 0.272
42.0786 7.125 0.272
42.0991 7.688 0.283
42.1195 6.771 0.266
42.1400 7.188 0.274
42.1604 7.333 0.276
42.1809 7.271 0.275
42.2014 7.448 0.279
42.2218 7.594 0.281
42.2423 7.115 0.272
42.2628 8.031 0.289
42.2832 7.635 0.282
42.3037 7.365 0.277
42.3242 7.792 0.285
42.3446 8.083 0.290
42.3651 7.635 0.282
42.3855 7.667 0.283
42.4060 8.073 0.290
42.4265 8.594 0.299
42.4469 7.938 0.288
42.4674 8.052 0.290
42.4879 8.427 0.296
42.5083 8.469 0.297
42.5288 8.667 0.300
42.5492 8.354 0.295
42.5697 8.573 0.299
42.5902 8.323 0.294
42.6106 8.448 0.297
42.6311 7.969 0.288
42.6516 8.646 0.300
42.6720 8.740 0.302
42.6925 8.708 0.301
42.7129 8.917 0.305
42.7334 8.302 0.294
42.7539 8.156 0.291
42.7743 8.219 0.293
42.7948 8.115 0.291
42.8153 8.021 0.289
42.8357 8.510 0.298
42.8562 8.313 0.294
42.8766 8.313 0.294
42.8971 7.979 0.288
42.9176 7.813 0.285
42.9380 8.281 0.294
42.9585 8.323 0.294
42.9790 8.531 0.298
42.9994 7.958 0.288
43.0199 8.448 0.297
43.0403 8.531 0.298
43.0608 8.594 0.299
43.0813 8.531 0.298
43.1017 8.448 0.297
43.1222 8.875 0.304
43.1427 9.229 0.310
43.1631 9.500 0.315
43.1836 9.385 0.313
43.2041 10.354 0.328
43.2245 10.167 0.325
43.2450 10.469 0.330
43.2654 9.792 0.319
43.2859 10.302 0.328
43.3064 10.302 0.328
43.3268 10.510 0.331
43.3473 10.667 0.333
43.3678 10.448 0.330
43.3882 10.417 0.329
43.4087 10.531 0.331
43.4291 10.719 0.334
43.4496 11.208 0.342
43.4701 11.229 0.342
43.4905 11.302 0.343
43.5110 10.990 0.338
43.5315 12.198 0.356
43.5519 12.604 0.362
43.5724 13.115 0.370
43.5928 14.552 0.389
43.6133 14.406 0.387
43.6338 16.500 0.415
43.6542 16.458 0.414
43.6747 16.250 0.411
43.6952 15.250 0.399
43.7156 13.875 0.380
43.7361 14.344 0.387
43.7565 13.375 0.373
43.7770 12.719 0.364
43.7975 11.385 0.344
43.8179 10.740 0.334
43.8384 10.552 0.332
43.8589 9.927 0.322
43.8793 9.531 0.315
43.8998 8.906 0.305
43.9202 8.990 0.306
43.9407 9.052 0.307
43.9612 9.042 0.307
43.9816 9.073 0.307
44.0021 8.281 0.294
44.0226 7.646 0.282
44.0430 7.802 0.285
44.0635 7.927 0.287
44.0840 7.500 0.280
44.1044 8.052 0.290
44.1249 8.333 0.295
44.1453 8.052 0.290
44.1658 8.104 0.291
44.1863 7.073 0.271
44.2067 7.583 0.281
44.2272 7.833 0.286
44.2477 7.417 0.278
44.2681 7.583 0.281
44.2886 7.250 0.275
44.3090 7.708 0.283
44.3295 7.719 0.284
44.3500 7.656 0.282
44.3704 6.990 0.270
44.3909 7.052 0.271
44.4114 7.375 0.277
44.4318 7.573 0.281
44.4523 7.406 0.278
44.4727 7.271 0.275
44.4932 7.333 0.276
44.5137 6.458 0.259
44.5341 7.760 0.284
44.5546 7.594 0.281
44.5751 7.531 0.280
44.5955 7.281 0.275
44.6160 7.156 0.273
44.6364 7.073 0.271
44.6569 6.646 0.263
44.6774 6.823 0.267
44.6978 6.885 0.268
44.7183 6.510 0.260
44.7388 6.698 0.264
44.7592 6.917 0.268
44.7797 6.313 0.256
44.8001 7.677 0.283
44.8206 7.271 0.275
44.8411 6.688 0.264
44.8615 7.365 0.277
44.8820 6.406 0.258
44.9025 6.885 0.268
44.9229 7.229 0.274
44.9434 6.906 0.268
44.9639 7.281 0.275
44.9843 7.000 0.270
45.0048 7.667 0.283
45.0252 7.354 0.277
45.0457 6.698 0.264
45.0662 7.385 0.277
45.0866 7.583 0.281
45.1071 7.375 0.277
45.1276 7.365 0.277
45.1480 7.615 0.282
45.1685 7.740 0.284
45.1889 7.698 0.283
45.2094 8.365 0.295
45.2299 8.667 0.300
45.2503 8.646 0.300
45.2708 9.000 0.306
45.2913 8.448 0.297
45.3117 8.896 0.304
45.3322 8.396 0.296
45.3526 8.208 0.292
45.3731 8.271 0.294
45.3936 8.125 0.291
45.4140 7.771 0.285
45.4345 7.802 0.285
45.4550 7.438 0.278
45.4754 7.271 0.275
45.4959 6.781 0.266
45.5163 7.177 0.273
45.5368 7.375 0.277
45.5573 6.438 0.259
45.5777 6.344 0.257
45.5982 6.635 0.263
45.6187 7.083 0.272
45.6391 7.198 0.274
45.6596 6.510 0.260
45.6800 6.667 0.264
45.7005 6.115 0.252
45.7210 6.635 0.263
45.7414 6.073 0.252
45.7619 6.750 0.265
45.7824 6.250 0.255
45.8028 6.594 0.262
45.8233 6.063 0.251
45.8438 6.365 0.257
45.8642 6.250 0.255
45.8847 5.927 0.248
45.9051 5.844 0.247
45.9256 6.229 0.255
45.9461 6.615 0.262
45.9665 6.302 0.256
45.9870 6.031 0.251
46.0075 6.208 0.254
46.0279 5.938 0.249
46.0484 6.083 0.252
46.0688 6.031 0.251
46.0893 6.104 0.252
46.1098 5.823 0.246
46.1302 5.677 0.243
46.1507 6.271 0.256
46.1712 6.375 0.258
46.1916 5.771 0.245
46.2121 6.219 0.255
46.2325 6.417 0.259
46.2530 5.906 0.248
46.2735 5.833 0.247
46.2939 6.281 0.256
46.3144 5.969 0.249
46.3349 6.135 0.253
46.3553 6.396 0.258
46.3758 6.271 0.256
46.3962 5.490 0.239
46.4167 5.500 0.239
46.4372 5.896 0.248
46.4576 5.646 0.243
46.4781 5.750 0.245
46.4986 5.698 0.244
46.5190 5.667 0.243
46.5395 6.104 0.252
46.5600 6.135 0.253
46.5804 6.052 0.251
46.6009 5.969 0.249
46.6213 6.063 0.251
46.6418 5.875 0.247
46.6623 6.031 0.251
46.6827 5.969 0.249
46.7032 5.740 0.245
46.7237 6.115 0.252
46.7441 6.229 0.255
46.7646 5.469 0.239
46.7850 6.073 0.252
46.8055 5.625 0.242
46.8260 5.823 0.246
46.8464 5.958 0.249
46.8669 6.260 0.255
46.8874 5.948 0.249
46.9078 5.865 0.247
46.9283 6.094 0.252
46.9487 6.010 0.250
46.9692 6.000 0.250
46.9897 6.083 0.252
47.0101 5.979 0.250
47.0306 5.771 0.245
47.0511 5.885 0.248
47.0715 6.302 0.256
47.0920 5.969 0.249
47.1124 6.021 0.250
47.1329 6.146 0.253
47.1534 6.625 0.263
47.1738 5.979 0.250
47.1943 6.063 0.251
47.2148 6.427 0.259
47.2352 6.542 0.261
47.2557 6.229 0.255
47.2761 6.042 0.251
47.2966 6.250 0.255
47.3171 6.313 0.256
47.3375 6.531 0.261
47.3580 6.708 0.264
47.3785 6.531 0.261
47.3989 6.427 0.259
47.4194 6.667 0.264
47.4399 7.063 0.271
47.4603 6.385 0.258
47.4808 7.156 0.273
47.5012 6.969 0.269
47.5217 7.469 0.279
47.5422 7.885 0.287
47.5626 8.063 0.290
47.5831 8.000 0.289
47.6036 8.615 0.300
47.6240 8.625 0.300
47.6445 9.021 0.307
47.6649 8.604 0.299
47.6854 7.781 0.285
47.7059 8.229 0.293
47.7263 8.177 0.292
47.7468 7.271 0.275
47.7673 7.365 0.277
47.7877 7.938 0.288
47.8082 7.198 0.274
47.8286 7.354 0.277
47.8491 6.771 0.266
47.8696 6.490 0.260
47.8900 6.375 0.258
47.9105 6.052 0.251
47.9310 6.823 0.267
47.9514 6.823 0.267
47.9719 6.802 0.266
47.9923 5.979 0.250
48.0128 6.510 0.260
48.0333 6.125 0.253
48.0537 6.219 0.255
48.0742 6.135 0.253
48.0947 6.448 0.259
48.1151 5.969 0.249
48.1356 5.990 0.250
48.1560 5.906 0.248
48.1765 5.844 0.247
48.1970 6.490 0.260
48.2174 6.333 0.257
48.2379 6.573 0.262
48.2584 6.563 0.261
48.2788 6.760 0.265
48.2993 7.333 0.276
48.3198 7.146 0.273
48.3402 7.625 0.282
48.3607 7.917 0.287
48.3811 7.406 0.278
48.4016 7.875 0.286
48.4221 7.115 0.272
48.4425 7.521 0.280
48.4630 7.698 0.283
48.4835 7.781 0.285
48.5039 7.094 0.272
48.5244 6.917 0.268
48.5448 6.573 0.262
48.5653 7.281 0.275
48.5858 6.302 0.256
48.6062 6.927 0.269
48.6267 6.510 0.260
48.6472 6.656 0.263
48.6676 6.406 0.258
48.6881 6.635 0.263
48.7085 6.917 0.268
48.7290 7.021 0.270
48.7495 7.250 0.275
48.7699 7.125 0.272
48.7904 6.406 0.258
48.8109 6.438 0.259
48.8313 6.010 0.250
48.8518 6.531 0.261
48.8722 6.271 0.256
48.8927 6.292 0.256
48.9132 6.281 0.256
48.9336 5.969 0.249
48.9541 5.865 0.247
48.9746 5.885 0.248
48.9950 6.458 0.259
49.0155 5.615 0.242
49.0359 5.531 0.240
49.0564 6.208 0.254
49.0769 6.063 0.251
49.0973 5.573 0.241
49.1178 5.906 0.248
49.1383 5.552 0.240
49.1587 5.385 0.237
49.1792 5.594 0.241
49.1997 5.667 0.243
49.2201 6.240 0.255
49.2406 6.125 0.253
49.2610 5.938 0.249
49.2815 5.917 0.248
49.3020 5.271 0.234
49.3224 6.448 0.259
49.3429 5.688 0.243
49.3634 5.458 0.238
49.3838 5.802 0.246
49.4043 6.104 0.252
49.4247 6.094 0.252
49.4452 5.688 0.243
49.4657 5.823 0.246
49.4861 6.698 0.264
49.5066 6.385 0.258
49.5271 5.781 0.245
49.5475 5.844 0.247
49.5680 7.031 0.271
49.5884 6.313 0.256
49.6089 6.760 0.265
49.6294 7.271 0.275
49.6498 7.010 0.270
49.6703 7.677 0.283
49.6908 7.531 0.280
49.7112 7.792 0.285
49.7317 8.083 0.290
49.7521 8.448 0.297
49.7726 9.375 0.313
49.7931 9.708 0.318
49.8135 10.490 0.331
49.8340 11.385 0.344
49.8545 11.875 0.352
49.8749 11.969 0.353
49.8954 11.854 0.351
49.9158 11.667 0.349
49.9363 11.146 0.341
49.9568 10.479 0.330
49.9772 10.833 0.336
49.9977 11.021 0.339
50.0182 10.667 0.333
50.0386 10.448 0.330
50.0591 9.510 0.315
50.0796 9.396 0.313
50.1000 9.177 0.309
50.1205 8.458 0.297
50.1409 9.229 0.310
50.1614 9.333 0.312
50.1819 8.875 0.304
50.2023 9.354 0.312
50.2228 9.521 0.315
50.2433 9.448 0.314
50.2637 9.063 0.307
50.2842 8.219 0.293
50.3046 8.167 0.292
50.3251 8.990 0.306
50.3456 8.698 0.301
50.3660 7.885 0.287
50.3865 8.177 0.292
50.4070 7.958 0.288
50.4274 7.073 0.271
50.4479 7.010 0.270
50.4683 7.073 0.271
50.4888 7.615 0.282
50.5093 6.729 0.265
50.5297 7.031 0.271
50.5502 7.052 0.271
50.5707 7.365 0.277
50.5911 6.896 0.268
50.6116 6.146 0.253
50.6320 6.469 0.260
50.6525 6.844 0.267
50.6730 6.240 0.255
50.6934 6.552 0.261
50.7139 6.927 0.269
50.7344 6.156 0.253
50.7548 6.438 0.259
50.7753 6.156 0.253
50.7958 5.927 0.248
50.8162 6.240 0.255
50.8367 6.354 0.257
50.8571 6.250 0.255
50.8776 6.313 0.256
50.8981 6.469 0.260
50.9185 6.490 0.260
50.9390 6.563 0.261
50.9595 6.500 0.260
50.9799 6.573 0.262
51.0004 6.448 0.259
51.0208 6.188 0.254
51.0413 6.156 0.253
51.0618 5.708 0.244
51.0822 6.604 0.262
51.1027 6.052 0.251
51.1232 5.885 0.248
51.1436 5.948 0.249
51.1641 5.896 0.248
51.1845 5.958 0.249
51.2050 5.802 0.246
51.2255 5.677 0.243
51.2459 6.281 0.256
51.2664 5.875 0.247
51.2869 6.063 0.251
51.3073 6.135 0.253
51.3278 6.344 0.257
51.3482 5.969 0.249
51.3687 6.188 0.254
51.3892 6.094 0.252
51.4096 5.927 0.248
51.4301 5.896 0.248
51.4506 5.729 0.244
51.4710 5.740 0.245
51.4915 5.677 0.243
51.5119 5.646 0.243
51.5324 6.167 0.253
51.5529 5.542 0.240
51.5733 6.052 0.251
51.5938 5.552 0.240
51.6143 6.156 0.253
51.6347 5.969 0.249
51.6552 5.969 0.249
51.6757 6.052 0.251
51.6961 6.177 0.254
51.7166 6.677 0.264
51.7370 5.865 0.247
51.7575 6.052 0.251
51.7780 5.865 0.247
51.7984 5.438 0.238
51.8189 5.646 0.243
51.8394 5.500 0.239
51.8598 5.552 0.240
51.8803 5.448 0.238
51.9007 5.521 0.240
51.9212 5.365 0.236
51.9417 5.094 0.230
51.9621 5.260 0.234
51.9826 4.813 0.224
52.0031 5.448 0.238
52.0235 5.281 0.235
52.0440 5.073 0.230
52.0644 4.938 0.227
52.0849 4.844 0.225
52.1054 4.917 0.226
52.1258 4.990 0.228
52.1463 5.229 0.233
52.1668 5.135 0.231
52.1872 5.042 0.229
52.2077 4.510 0.217
52.2281 5.240 0.234
52.2486 5.323 0.235
52.2691 5.240 0.234
52.2895 5.052 0.229
52.3100 4.875 0.225
52.3305 5.031 0.229
52.3509 4.844 0.225
52.3714 5.135 0.231
52.3918 4.979 0.228
52.4123 5.458 0.238
52.4328 5.292 0.235
52.4532 5.083 0.230
52.4737 5.000 0.228
52.4942 5.042 0.229
52.5146 5.073 0.230
52.5351 5.208 0.233
52.5556 4.729 0.222
52.5760 5.115 0.231
52.5965 4.760 0.223
52.6169 5.031 0.229
52.6374 4.771 0.223
52.6579 4.677 0.221
52.6783 4.875 0.225
52.6988 4.896 0.226
52.7193 4.958 0.227
52.7397 4.917 0.226
52.7602 5.073 0.230
52.7806 4.708 0.221
52.8011 4.635 0.220
52.8216 4.708 0.221
52.8420 4.719 0.222
52.8625 4.833 0.224
52.8830 4.563 0.218
52.9034 4.646 0.220
52.9239 4.729 0.222
52.9443 4.698 0.221
52.9648 4.844 0.225
52.9853 4.844 0.225
53.0057 4.854 0.225
53.0262 4.844 0.225
53.0467 4.802 0.224
53.0671 5.240 0.234
53.0876 4.927 0.227
53.1080 5.073 0.230
53.1285 4.948 0.227
53.1490 4.604 0.219
53.1694 4.875 0.225
53.1899 4.510 0.217
53.2104 4.583 0.219
53.2308 4.354 0.213
53.2513 4.917 0.226
53.2717 4.969 0.228
53.2922 4.729 0.222
53.3127 4.833 0.224
53.3331 4.542 0.218
53.3536 4.698 0.221
53.3741 4.958 0.227
53.3945 4.469 0.216
53.4150 4.448 0.215
53.4355 4.469 0.216
53.4559 4.625 0.219
53.4764 4.906 0.226
53.4968 4.698 0.221
53.5173 4.729 0.222
53.5378 4.438 0.215
53.5582 4.583 0.219
53.5787 4.646 0.220
53.5992 4.323 0.212
53.6196 4.396 0.214
53.6401 4.365 0.213
53.6605 4.323 0.212
53.6810 4.698 0.221
53.7015 4.708 0.221
53.7219 4.583 0.219
53.7424 4.552 0.218
53.7629 4.313 0.212
53.7833 4.490 0.216
53.8038 4.167 0.208
53.8242 4.667 0.220
53.8447 4.260 0.211
53.8652 4.719 0.222
53.8856 4.646 0.220
53.9061 4.635 0.220
53.9266 4.563 0.218
53.9470 4.208 0.209
53.9675 4.646 0.220
53.9879 4.854 0.225
54.0084 4.354 0.213
54.0289 4.344 0.213
54.0493 4.563 0.218
54.0698 4.792 0.223
54.0903 4.760 0.223
54.1107 4.823 0.224
54.1312 4.760 0.223
54.1516 4.688 0.221
54.1721 4.844 0.225
54.1926 4.865 0.225
54.2130 4.958 0.227
54.2335 5.021 0.229
54.2540 4.708 0.221
54.2744 4.917 0.226
54.2949 4.781 0.223
54.3154 5.021 0.229
54.3358 4.615 0.219
54.3563 4.802 0.224
54.3767 4.698 0.221
54.3972 4.958 0.227
54.4177 4.375 0.213
54.4381 4.552 0.218
54.4586 4.438 0.215
54.4791 4.781 0.223
54.4995 4.729 0.222
54.5200 4.167 0.208
54.5404 4.573 0.218
54.5609 4.427 0.215
54.5814 4.490 0.216
54.6018 4.448 0.215
54.6223 4.302 0.212
54.6428 4.865 0.225
54.6632 4.563 0.218
54.6837 4.635 0.220
54.7041 4.604 0.219
54.7246 4.167 0.208
54.7451 4.490 0.216
54.7655 4.125 0.207
54.7860 4.104 0.207
54.8065 4.667 0.220
54.8269 4.500 0.217
54.8474 4.396 0.214
54.8678 4.729 0.222
54.8883 4.969 0.228
54.9088 4.917 0.226
54.9292 5.094 0.230
54.9497 5.115 0.231
54.9702 4.917 0.226
54.9906 4.969 0.228
55.0111 5.240 0.234
55.0316 5.396 0.237
55.0520 6.469 0.260
55.0725 6.656 0.263
55.0929 7.417 0.278
55.1134 8.302 0.294
55.1339 10.365 0.329
55.1543 12.427 0.360
55.1748 13.656 0.377
55.1953 14.729 0.392
55.2157 14.479 0.388
55.2362 13.021 0.368
55.2566 12.552 0.362
55.2771 12.115 0.355
55.2976 12.354 0.359
55.3180 11.375 0.344
55.3385 12.177 0.356
55.3590 11.083 0.340
55.3794 10.594 0.332
55.3999 9.521 0.315
55.4203 8.083 0.290
55.4408 7.625 0.282
55.4613 7.750 0.284
55.4817 6.667 0.264
55.5022 6.146 0.253
55.5227 6.010 0.250
55.5431 6.042 0.251
55.5636 5.854 0.247
55.5840 5.552 0.240
55.6045 5.833 0.247
55.6250 5.448 0.238
55.6454 5.385 0.237
55.6659 5.427 0.238
55.6864 5.563 0.241
55.7068 5.292 0.235
55.7273 5.656 0.243
55.7477 5.354 0.236
55.7682 5.542 0.240
55.7887 5.375 0.237
55.8091 5.573 0.241
55.8296 5.625 0.242
55.8501 5.719 0.244
55.8705 5.458 0.238
55.8910 5.854 0.247
55.9115 5.927 0.248
55.9319 6.135 0.253
55.9524 5.781 0.245
55.9728 6.094 0.252
55.9933 5.750 0.245
56.0138 6.583 0.262
56.0342 7.063 0.271
56.0547 6.719 0.265
56.0752 6.958 0.269
56.0956 7.146 0.273
56.1161 7.448 0.279
56.1365 8.073 0.290
56.1570 8.938 0.305
56.1775 9.552 0.315
56.1979 9.979 0.322
56.2184 9.563 0.316
56.2389 9.667 0.317
56.2593 8.604 0.299
56.2798 8.354 0.295
56.3002 8.323 0.294
56.3207 8.229 0.293
56.3412 7.646 0.282
56.3616 7.698 0.283
56.3821 6.792 0.266
56.4026 6.510 0.260
56.4230 6.583 0.262
56.4435 5.854 0.247
56.4639 5.573 0.241
56.4844 5.146 0.232
56.5049 4.688 0.221
56.5253 4.938 0.227
56.5458 4.667 0.220
56.5663 4.375 0.213
56.5867 4.500 0.217
56.6072 4.667 0.220
56.6276 4.458 0.216
56.6481 4.635 0.220
56.6686 4.000 0.204
56.6890 4.458 0.216
56.7095 4.479 0.216
56.7300 4.354 0.213
56.7504 4.104 0.207
56.7709 4.323 0.212
56.7914 4.104 0.207
56.8118 4.135 0.208
56.8323 4.344 0.213
56.8527 4.104 0.207
56.8732 4.198 0.209
56.8937 3.979 0.204
56.9141 3.802 0.199
56.9346 4.281 0.211
56.9551 4.052 0.205
56.9755 3.958 0.203
56.9960 4.198 0.209
57.0164 4.010 0.204
57.0369 4.031 0.205
57.0574 4.010 0.204
57.0778 4.115 0.207
57.0983 4.000 0.204
57.1188 3.760 0.198
57.1392 4.271 0.211
57.1597 4.000 0.204
57.1801 4.281 0.211
57.2006 4.063 0.206
57.2211 4.219 0.210
57.2415 4.448 0.215
57.2620 4.531 0.217
57.2825 4.260 0.211
57.3029 4.135 0.208
57.3234 4.646 0.220
57.3438 4.573 0.218
57.3643 4.125 0.207
57.3848 4.563 0.218
57.4052 4.188 0.209
57.4257 4.219 0.210
57.4462 4.313 0.212
57.4666 4.385 0.214
57.4871 4.854 0.225
57.5075 4.125 0.207
57.5280 4.115 0.207
57.5485 4.417 0.214
57.5689 4.896 0.226
57.5894 4.406 0.214
57.6099 4.583 0.219
57.6303 4.698 0.221
57.6508 4.583 0.219
57.6713 4.771 0.223
57.6917 4.563 0.218
57.7122 5.167 0.232
57.7326 4.948 0.227
57.7531 5.250 0.234
57.7736 4.938 0.227
57.7940 5.479 0.239
57.8145 5.969 0.249
57.8350 5.500 0.239
57.8554 6.292 0.256
57.8759 6.188 0.254
57.8963 6.417 0.259
57.9168 7.271 0.275
57.9373 6.688 0.264
57.9577 6.854 0.267
57.9782 6.438 0.259
57.9987 6.260 0.255
58.0191 5.740 0.245
58.0396 6.198 0.254
58.0600 6.333 0.257
58.0805 6.323 0.257
58.1010 6.188 0.254
58.1214 6.208 0.254
58.1419 5.563 0.241
58.1624 5.354 0.236
58.1828 5.208 0.233
58.2033 5.354 0.236
58.2237 5.104 0.231
58.2442 4.948 0.227
58.2647 4.927 0.227
58.2851 4.656 0.220
58.3056 5.198 0.233
58.3261 4.323 0.212
58.3465 5.083 0.230
58.3670 5.198 0.233
58.3874 4.865 0.225
58.4079 4.500 0.217
58.4284 5.094 0.230
58.4488 4.823 0.224
58.4693 4.656 0.220
58.4898 4.729 0.222
58.5102 5.115 0.231
58.5307 5.125 0.231
58.5512 4.927 0.227
58.5716 4.917 0.226
58.5921 4.406 0.214
58.6125 4.635 0.220
58.6330 4.875 0.225
58.6535 4.917 0.226
58.6739 5.042 0.229
58.6944 4.979 0.228
58.7149 4.854 0.225
58.7353 4.479 0.216
58.7558 4.615 0.219
58.7762 4.917 0.226
58.7967 5.188 0.232
58.8172 4.760 0.223
58.8376 4.635 0.220
58.8581 4.688 0.221
58.8786 4.667 0.220
58.8990 4.656 0.220
58.9195 5.396 0.237
58.9399 4.750 0.222
58.9604 4.698 0.221
58.9809 5.135 0.231
59.0013 5.292 0.235
59.0218 5.417 0.238
59.0423 5.646 0.243
59.0627 5.448 0.238
59.0832 5.344 0.236
59.1036 5.313 0.235
59.1241 5.104 0.231
59.1446 5.323 0.235
59.1650 5.594 0.241
59.1855 5.802 0.246
59.2060 6.521 0.261
59.2264 6.563 0.261
59.2469 6.479 0.260
59.2674 5.760 0.245
59.2878 6.083 0.252
59.3083 5.135 0.231
59.3287 5.385 0.237
59.3492 5.719 0.244
59.3697 5.083 0.230
59.3901 5.240 0.234
59.4106 4.927 0.227
59.4311 4.719 0.222
59.4515 4.677 0.221
59.4720 4.583 0.219
59.4924 4.521 0.217
59.5129 4.240 0.210
59.5334 4.292 0.211
59.5538 4.094 0.207
59.5743 3.969 0.203
59.5948 4.188 0.209
59.6152 4.042 0.205
59.6357 4.531 0.217
59.6561 4.635 0.220
59.6766 4.458 0.216
59.6971 4.156 0.208
59.7175 4.083 0.206
59.7380 4.292 0.211
59.7585 4.479 0.216
59.7789 4.219 0.210
59.7994 4.594 0.219
59.8198 4.792 0.223
59.8403 5.021 0.229
59.8608 5.375 0.237
59.8812 5.771 0.245
59.9017 5.250 0.234
59.9222 5.417 0.238
59.9426 5.313 0.235
59.9631 5.323 0.235
59.9835 5.188 0.232
60.0040 4.823 0.224
60.0245 5.354 0.236
60.0449 4.990 0.228
60.0654 4.979 0.228
60.0859 4.771 0.223
60.1063 4.917 0.226
60.1268 4.969 0.228
60.1473 4.729 0.222
60.1677 4.531 0.217
60.1882 4.396 0.214
60.2086 4.354 0.213
60.2291 3.740 0.197
60.2496 4.479 0.216
60.2700 4.219 0.210
60.2905 3.771 0.198
60.3110 4.177 0.209
60.3314 3.927 0.202
60.3519 4.021 0.205
60.3723 4.156 0.208
60.3928 4.094 0.207
60.4133 4.021 0.205
60.4337 3.646 0.195
60.4542 3.958 0.203
60.4747 4.240 0.210
60.4951 3.917 0.202
60.5156 3.771 0.198
60.5360 3.802 0.199
60.5565 3.844 0.200
60.5770 4.281 0.211
60.5974 3.979 0.204
60.6179 4.052 0.205
60.6384 4.115 0.207
60.6588 3.823 0.200
60.6793 3.708 0.197
60.6997 3.740 0.197
60.7202 4.292 0.211
60.7407 4.031 0.205
60.7611 4.271 0.211
60.7816 3.927 0.202
60.8021 3.552 0.192
60.8225 3.792 0.199
60.8430 3.813 0.199
60.8634 3.458 0.190
60.8839 3.948 0.203
60.9044 3.781 0.198
60.9248 3.927 0.202
60.9453 3.594 0.193
60.9658 3.594 0.193
60.9862 3.490 0.191
61.0067 3.271 0.185
61.0272 3.802 0.199
61.0476 3.688 0.196
61.0681 4.031 0.205
61.0885 3.760 0.198
61.1090 3.667 0.195
61.1295 3.688 0.196
61.1499 3.313 0.186
61.1704 3.688 0.196
61.1909 3.417 0.189
61.2113 3.781 0.198
61.2318 3.844 0.200
61.2522 3.135 0.181
61.2727 3.719 0.197
61.2932 3.500 0.191
61.3136 3.427 0.189
61.3341 3.458 0.190
61.3546 3.427 0.189
61.3750 3.198 0.183
61.3955 3.510 0.191
61.4159 3.698 0.196
61.4364 3.250 0.184
61.4569 3.563 0.193
61.4773 3.323 0.186
61.4978 3.375 0.188
61.5183 3.854 0.200
61.5387 3.531 0.192
61.5592 3.583 0.193
61.5796 3.604 0.194
61.6001 3.719 0.197
61.6206 3.729 0.197
61.6410 3.479 0.190
61.6615 3.677 0.196
61.6820 3.531 0.192
61.7024 3.521 0.192
61.7229 3.302 0.185
61.7433 3.635 0.195
61.7638 3.198 0.183
61.7843 3.313 0.186
61.8047 3.604 0.194
61.8252 3.688 0.196
61.8457 3.844 0.200
61.8661 3.552 0.192
61.8866 3.354 0.187
61.9071 3.656 0.195
61.9275 3.531 0.192
61.9480 4.094 0.207
61.9684 3.292 0.185
61.9889 3.938 0.203
62.0094 3.646 0.195
62.0298 3.292 0.185
62.0503 3.354 0.187
62.0708 3.833 0.200
62.0912 3.760 0.198
62.1117 3.896 0.201
62.1321 3.813 0.199
62.1526 3.990 0.204
62.1731 3.802 0.199
62.1935 3.604 0.194
62.2140 3.781 0.198
62.2345 3.677 0.196
62.2549 3.865 0.201
62.2754 3.427 0.189
62.2958 3.729 0.197
62.3163 3.792 0.199
62.3368 3.542 0.192
62.3572 3.708 0.197
62.3777 3.604 0.194
62.3982 3.531 0.192
62.4186 3.240 0.184
62.4391 3.854 0.200
62.4595 3.375 0.188
62.4800 3.271 0.185
62.5005 3.521 0.192
62.5209 3.573 0.193
62.5414 3.542 0.192
62.5619 3.375 0.188
62.5823 3.438 0.189
62.6028 3.385 0.188
62.6232 3.188 0.182
62.6437 3.531 0.192
62.6642 2.906 0.174
62.6846 3.302 0.185
62.7051 3.333 0.186
62.7256 3.208 0.183
62.7460 3.594 0.193
62.7665 3.406 0.188
62.7870 3.406 0.188
62.8074 3.135 0.181
62.8279 3.479 0.190
62.8483 3.469 0.190
62.8688 3.885 0.201
62.8893 3.313 0.186
62.9097 3.490 0.191
62.9302 3.583 0.193
62.9507 3.583 0.193
62.9711 3.958 0.203
62.9916 3.229 0.183
63.0120 3.563 0.193
63.0325 3.510 0.191
63.0530 3.385 0.188
63.0734 3.115 0.180
63.0939 3.625 0.194
63.1144 3.510 0.191
63.1348 3.427 0.189
63.1553 3.990 0.204
63.1757 3.708 0.197
63.1962 3.448 0.190
63.2167 3.396 0.188
63.2371 3.500 0.191
63.2576 3.281 0.185
63.2781 3.813 0.199
63.2985 3.563 0.193
63.3190 3.750 0.198
63.3394 3.604 0.194
63.3599 3.708 0.197
63.3804 3.896 0.201
63.4008 3.656 0.195
63.4213 3.792 0.199
63.4418 3.667 0.195
63.4622 4.156 0.208
63.4827 3.698 0.196
63.5032 3.854 0.200
63.5236 3.990 0.204
63.5441 3.896 0.201
63.5645 4.260 0.211
63.5850 3.771 0.198
63.6055 4.146 0.208
63.6259 4.260 0.211
63.6464 4.167 0.208
63.6669 3.823 0.200
63.6873 4.198 0.209
63.7078 4.552 0.218
63.7282 4.281 0.211
63.7487 4.094 0.207
63.7692 4.229 0.210
63.7896 4.177 0.209
63.8101 4.708 0.221
63.8306 4.427 0.215
63.8510 4.625 0.219
63.8715 4.240 0.210
63.8919 4.469 0.216
63.9124 4.469 0.216
63.9329 4.385 0.214
63.9533 4.854 0.225
63.9738 4.250 0.210
63.9943 4.365 0.213
64.0147 4.802 0.224
64.0352 4.323 0.212
64.0556 4.271 0.211
64.0761 4.583 0.219
64.0966 4.333 0.212
64.1170 4.260 0.211
64.1375 4.677 0.221
64.1580 4.729 0.222
64.1784 4.354 0.213
64.1989 4.490 0.216
64.2193 4.906 0.226
64.2398 4.073 0.206
64.2603 4.063 0.206
64.2807 4.073 0.206
64.3012 4.229 0.210
64.3217 4.094 0.207
64.3421 4.146 0.208
64.3626 4.156 0.208
64.3831 4.406 0.214
64.4035 4.167 0.208
64.4240 4.438 0.215
64.4444 4.885 0.226
64.4649 4.375 0.213
64.4854 4.698 0.221
64.5058 4.979 0.228
64.5263 4.688 0.221
64.5468 5.313 0.235
64.5672 5.104 0.231
64.5877 5.563 0.241
64.6081 5.688 0.243
64.6286 6.479 0.260
64.6491 6.875 0.268
64.6695 7.063 0.271
64.6900 6.708 0.264
64.7105 7.115 0.272
64.7309 6.583 0.262
64.7514 5.938 0.249
64.7718 5.896 0.248
64.7923 5.760 0.245
64.8128 6.000 0.250
64.8332 6.271 0.256
64.8537 5.990 0.250
64.8742 5.896 0.248
64.8946 4.958 0.227
64.9151 5.406 0.237
64.9355 4.688 0.221
64.9560 4.917 0.226
64.9765 4.542 0.218
64.9969 4.375 0.213
65.0174 4.063 0.206
65.0379 4.052 0.205
65.0583 3.938 0.203
65.0788 3.927 0.202
65.0992 3.990 0.204
65.1197 4.229 0.210
65.1402 3.677 0.196
65.1606 3.948 0.203
65.1811 4.156 0.208
65.2016 3.958 0.203
65.2220 3.875 0.201
65.2425 3.813 0.199
65.2630 3.698 0.196
65.2834 3.906 0.202
65.3039 3.698 0.196
65.3243 3.667 0.195
65.3448 3.698 0.196
65.3653 3.688 0.196
65.3857 4.271 0.211
65.4062 3.688 0.196
65.4267 4.469 0.216
65.4471 4.417 0.214
65.4676 4.198 0.209
65.4880 4.708 0.221
65.5085 4.177 0.209
65.5290 4.896 0.226
65.5494 4.479 0.216
65.5699 4.448 0.215
65.5904 4.927 0.227
65.6108 4.792 0.223
65.6313 4.417 0.214
65.6517 4.563 0.218
65.6722 4.354 0.213
65.6927 4.521 0.217
65.7131 4.427 0.215
65.7336 4.094 0.207
65.7541 4.302 0.212
65.7745 4.250 0.210
65.7950 4.240 0.210
65.8154 4.333 0.212
65.8359 4.156 0.208
65.8564 3.875 0.201
65.8768 3.906 0.202
65.8973 3.542 0.192
65.9178 3.667 0.195
65.9382 3.771 0.198
65.9587 3.667 0.195
65.9791 3.833 0.200
65.9996 3.635 0.195
66.0201 3.573 0.193
66.0405 3.635 0.195
66.0610 3.469 0.190
66.0815 3.406 0.188
66.1019 3.438 0.189
66.1224 3.729 0.197
66.1429 3.625 0.194
66.1633 3.531 0.192
66.1838 3.677 0.196
66.2042 3.365 0.187
66.2247 3.688 0.196
66.2452 3.198 0.183
66.2656 3.146 0.181
66.2861 3.354 0.187
66.3066 3.542 0.192
66.3270 3.438 0.189
66.3475 3.406 0.188
66.3679 3.229 0.183
66.3884 3.708 0.197
66.4089 3.406 0.188
66.4293 3.458 0.190
66.4498 3.552 0.192
66.4703 3.448 0.190
66.4907 3.417 0.189
66.5112 3.417 0.189
66.5316 3.458 0.190
66.5521 3.604 0.194
66.5726 3.333 0.186
66.5930 3.333 0.186
66.6135 3.698 0.196
66.6340 3.656 0.195
66.6544 3.510 0.191
66.6749 3.417 0.189
66.6953 3.042 0.178
66.7158 3.438 0.189
66.7363 3.469 0.190
66.7567 3.552 0.192
66.7772 3.750 0.198
66.7977 3.281 0.185
66.8181 3.917 0.202
66.8386 3.792 0.199
66.8590 3.677 0.196
66.8795 3.896 0.201
66.9000 3.854 0.200
66.9204 4.000 0.204
66.9409 3.813 0.199
66.9614 4.052 0.205
66.9818 4.000 0.204
67.0023 4.146 0.208
67.0228 4.792 0.223
67.0432 4.406 0.214
67.0637 4.521 0.217
67.0841 5.021 0.229
67.1046 5.229 0.233
67.1251 5.594 0.241
67.1455 5.833 0.247
67.1660 5.635 0.242
67.1865 6.031 0.251
67.2069 5.813 0.246
67.2274 5.708 0.244
67.2478 5.104 0.231
67.2683 5.771 0.245
67.2888 5.385 0.237
67.3092 5.542 0.240
67.3297 5.354 0.236
67.3502 5.385 0.237
67.3706 5.333 0.236
67.3911 5.063 0.230
67.4115 5.344 0.236
67.4320 4.917 0.226
67.4525 5.240 0.234
67.4729 4.500 0.217
67.4934 4.375 0.213
67.5139 4.375 0.213
67.5343 4.490 0.216
67.5548 4.510 0.217
67.5752 4.635 0.220
67.5957 4.177 0.209
67.6162 4.281 0.211
67.6366 3.719 0.197
67.6571 3.958 0.203
67.6776 4.542 0.218
67.6980 4.490 0.216
67.7185 4.385 0.214
67.7389 4.365 0.213
67.7594 4.188 0.209
67.7799 4.229 0.210
67.8003 4.479 0.216
67.8208 4.365 0.213
67.8413 4.302 0.212
67.8617 4.229 0.210
67.8822 4.042 0.205
67.9027 4.219 0.210
67.9231 4.427 0.215
67.9436 4.417 0.214
67.9640 3.969 0.203
67.9845 4.573 0.218
68.0050 4.229 0.210
68.0254 4.250 0.210
68.0459 3.927 0.202
68.0664 4.271 0.211
68.0868 4.125 0.207
68.1073 3.813 0.199
68.1277 4.490 0.216
68.1482 4.125 0.207
68.1687 4.542 0.218
68.1891 4.396 0.214
68.2096 4.240 0.210
68.2301 4.510 0.217
68.2505 4.448 0.215
68.2710 4.802 0.224
68.2914 4.594 0.219
68.3119 4.448 0.215
68.3324 4.271 0.211
68.3528 4.896 0.226
68.3733 4.615 0.219
68.3938 4.542 0.218
68.4142 4.385 0.214
68.4347 4.469 0.216
68.4551 3.802 0.199
68.4756 4.156 0.208
68.4961 4.042 0.205
68.5165 4.167 0.208
68.5370 3.792 0.199
68.5575 3.927 0.202
68.5779 3.677 0.196
68.5984 3.781 0.198
68.6189 3.708 0.197
68.6393 3.604 0.194
68.6598 3.760 0.198
68.6802 3.625 0.194
68.7007 3.156 0.181
68.7212 3.469 0.190
68.7416 3.667 0.195
68.7621 3.208 0.183
68.7826 3.208 0.183
68.8030 3.594 0.193
68.8235 3.990 0.204
68.8439 3.427 0.189
68.8644 3.802 0.199
68.8849 3.448 0.190
68.9053 3.698 0.196
68.9258 3.313 0.186
68.9463 3.604 0.194
68.9667 4.104 0.207
68.9872 4.104 0.207
69.0076 3.927 0.202
69.0281 4.021 0.205
69.0486 3.781 0.198
69.0690 3.885 0.201
69.0895 3.833 0.200
69.1100 3.344 0.187
69.1304 4.406 0.214
69.1509 3.667 0.195
69.1713 3.948 0.203
69.1918 3.313 0.186
69.2123 3.833 0.200
69.2327 3.781 0.198
69.2532 4.208 0.209
69.2737 3.729 0.197
69.2941 3.760 0.198
69.3146 3.979 0.204
69.3350 3.854 0.200
69.3555 3.760 0.198
69.3760 3.448 0.190
69.3964 3.479 0.190
69.4169 3.323 0.186
69.4374 3.510 0.191
69.4578 3.583 0.193
69.4783 3.125 0.180
69.4988 3.396 0.188
69.5192 3.875 0.201
69.5397 3.198 0.183
69.5601 3.250 0.184
69.5806 3.354 0.187
69.6011 2.833 0.172
69.6215 3.021 0.177
69.6420 3.115 0.180
69.6625 2.917 0.174
69.6829 3.156 0.181
69.7034 3.188 0.182
69.7238 3.188 0.182
69.7443 3.042 0.178
69.7648 3.021 0.177
69.7852 2.990 0.176
69.8057 3.198 0.183
69.8262 3.115 0.180
69.8466 2.854 0.172
69.8671 2.938 0.175
69.8875 2.885 0.173
69.9080 2.958 0.176
69.9285 2.979 0.176
69.9489 2.625 0.165
69.9694 3.198 0.183
69.9899 3.135 0.181
70.0103 2.646 0.166
70.0308 2.719 0.168
70.0512 2.740 0.169
70.0717 3.063 0.179
70.0922 2.875 0.173
70.1126 2.990 0.176
70.1331 2.500 0.161
70.1536 3.010 0.177
70.1740 2.708 0.168
70.1945 3.010 0.177
70.2149 3.125 0.180
70.2354 2.646 0.166
70.2559 2.927 0.175
70.2763 3.292 0.185
70.2968 2.927 0.175
70.3173 2.781 0.170
70.3377 3.177 0.182
70.3582 2.813 0.171
70.3787 3.073 0.179
70.3991 2.771 0.170
70.4196 2.948 0.175
70.4400 3.094 0.180
70.4605 3.042 0.178
70.4810 2.906 0.174
70.5014 2.948 0.175
70.5219 2.958 0.176
70.5424 2.823 0.171
70.5628 3.156 0.181
70.5833 2.698 0.168
70.6037 3.188 0.182
70.6242 2.969 0.176
70.6447 3.083 0.179
70.6651 3.000 0.177
70.6856 2.896 0.174
70.7061 2.906 0.174
70.7265 2.979 0.176
70.7470 2.760 0.170
70.7674 2.531 0.162
70.7879 2.552 0.163
70.8084 2.885 0.173
70.8288 2.927 0.175
70.8493 2.417 0.159
70.8698 2.750 0.169
70.8902 2.625 0.165
70.9107 3.063 0.179
70.9311 2.656 0.166
70.9516 2.927 0.175
70.9721 2.969 0.176
70.9925 2.885 0.173
71.0130 2.708 0.168
71.0335 2.760 0.170
71.0539 3.438 0.189
71.0744 3.042 0.178
71.0948 2.802 0.171
71.1153 2.688 0.167
71.1358 2.979 0.176
71.1562 2.823 0.171
71.1767 2.792 0.171
71.1972 2.896 0.174
71.2176 2.885 0.173
71.2381 2.677 0.167
71.2586 2.885 0.173
71.2790 2.615 0.165
71.2995 2.948 0.175
71.3199 2.604 0.165
71.3404 2.500 0.161
71.3609 2.583 0.164
71.3813 2.583 0.164
71.4018 2.479 0.161
71.4223 2.823 0.171
71.4427 2.740 0.169
71.4632 2.604 0.165
71.4836 2.458 0.160
71.5041 2.479 0.161
71.5246 2.729 0.169
71.5450 2.385 0.158
71.5655 2.698 0.168
71.5860 2.625 0.165
71.6064 2.656 0.166
71.6269 2.573 0.164
71.6473 2.771 0.170
71.6678 2.688 0.167
71.6883 2.750 0.169
71.7087 2.521 0.162
71.7292 2.750 0.169
71.7497 2.760 0.170
71.7701 2.615 0.165
71.7906 2.490 0.161
71.8110 2.885 0.173
71.8315 2.677 0.167
71.8520 2.760 0.170
71.8724 2.625 0.165
71.8929 2.854 0.172
71.9134 2.427 0.159
71.9338 2.573 0.164
71.9543 2.865 0.173
71.9747 2.604 0.165
71.9952 2.500 0.161
72.0157 2.385 0.158
72.0361 2.448 0.160
72.0566 2.396 0.158
72.0771 2.604 0.165
72.0975 2.510 0.162
72.1180 2.604 0.165
72.1385 2.552 0.163
72.1589 2.813 0.171
72.1794 2.448 0.160
72.1998 2.865 0.173
72.2203 2.656 0.166
72.2408 2.854 0.172
72.2612 2.646 0.166
72.2817 2.740 0.169
72.3022 2.583 0.164
72.3226 2.656 0.166
72.3431 2.594 0.164
72.3635 2.906 0.174
72.3840 2.625 0.165
72.4045 2.573 0.164
72.4249 2.771 0.170
72.4454 2.531 0.162
72.4659 2.719 0.168
72.4863 2.740 0.169
72.5068 2.833 0.172
72.5272 2.458 0.160
72.5477 2.448 0.160
72.5682 2.802 0.171
72.5886 2.240 0.153
72.6091 2.646 0.166
72.6296 2.427 0.159
72.6500 2.760 0.170
72.6705 2.323 0.156
72.6909 2.677 0.167
72.7114 2.990 0.176
72.7319 2.719 0.168
72.7523 2.667 0.167
72.7728 2.396 0.158
72.7933 2.760 0.170
72.8137 2.927 0.175
72.8342 2.792 0.171
72.8547 3.094 0.180
72.8751 2.635 0.166
72.8956 2.750 0.169
72.9160 2.646 0.166
72.9365 2.698 0.168
72.9570 2.854 0.172
72.9774 2.615 0.165
72.9979 2.792 0.171
73.0184 2.667 0.167
73.0388 2.646 0.166
73.0593 2.604 0.165
73.0797 2.854 0.172
73.1002 2.729 0.169
73.1207 2.615 0.165
73.1411 2.427 0.159
73.1616 2.594 0.164
73.1821 2.448 0.160
73.2025 2.865 0.173
73.2230 2.552 0.163
73.2434 2.552 0.163
73.2639 2.479 0.161
73.2844 2.583 0.164
73.3048 2.479 0.161
73.3253 2.198 0.151
73.3458 2.344 0.156
73.3662 2.542 0.163
73.3867 2.031 0.145
73.4071 2.563 0.163
73.4276 2.521 0.162
73.4481 2.708 0.168
73.4685 2.365 0.157
73.4890 2.490 0.161
73.5095 2.500 0.161
73.5299 2.458 0.160
73.5504 2.500 0.161
73.5708 2.313 0.155
73.5913 2.240 0.153
73.6118 2.375 0.157
73.6322 2.260 0.153
73.6527 2.583 0.164
73.6732 2.583 0.164
73.6936 2.010 0.145
73.7141 2.438 0.159
73.7346 2.302 0.155
73.7550 2.313 0.155
73.7755 2.083 0.147
73.7959 2.281 0.154
73.8164 2.375 0.157
73.8369 2.198 0.151
73.8573 2.219 0.152
73.8778 2.385 0.158
73.8983 2.250 0.153
73.9187 2.406 0.158
73.9392 2.292 0.155
73.9596 2.656 0.166
73.9801 2.542 0.163
74.0006 2.552 0.163
74.0210 2.583 0.164
74.0415 2.542 0.163
74.0620 2.458 0.160
74.0824 2.500 0.161
74.1029 2.479 0.161
74.1233 2.635 0.166
74.1438 2.479 0.161
74.1643 2.438 0.159
74.1847 2.760 0.170
74.2052 2.188 0.151
74.2257 2.427 0.159
74.2461 2.344 0.156
74.2666 2.354 0.157
74.2870 2.313 0.155
74.3075 2.313 0.155
74.3280 2.385 0.158
74.3484 2.333 0.156
74.3689 2.385 0.158
74.3894 2.229 0.152
74.4098 2.292 0.155
74.4303 2.292 0.155
74.4507 2.604 0.165
74.4712 2.354 0.157
74.4917 2.469 0.160
74.5121 2.396 0.158
74.5326 2.510 0.162
74.5531 2.427 0.159
74.5735 2.427 0.159
74.5940 2.271 0.154
74.6145 2.344 0.156
74.6349 2.198 0.151
74.6554 2.458 0.160
74.6758 2.292 0.155
74.6963 2.417 0.159
74.7168 2.563 0.163
74.7372 2.406 0.158
74.7577 2.146 0.150
74.7782 1.865 0.139
74.7986 2.302 0.155
74.8191 2.406 0.158
74.8395 2.375 0.157
74.8600 2.563 0.163
74.8805 2.365 0.157
74.9009 2.375 0.157
74.9214 2.344 0.156
74.9419 2.313 0.155
74.9623 2.406 0.158
74.9828 2.594 0.164
75.0032 2.240 0.153
75.0237 2.396 0.158
75.0442 2.198 0.151
75.0646 2.542 0.163
75.0851 2.323 0.156
75.1056 2.031 0.145
75.1260 2.177 0.151
75.1465 2.333 0.156
75.1669 2.521 0.162
75.1874 2.583 0.164
75.2079 2.594 0.164
75.2283 2.385 0.158
75.2488 2.531 0.162
75.2693 2.375 0.157
75.2897 2.594 0.164
75.3102 2.396 0.158
75.3306 2.667 0.167
75.3511 2.573 0.164
75.3716 2.521 0.162
75.3920 2.635 0.166
75.4125 2.198 0.151
75.4330 2.542 0.163
75.4534 2.500 0.161
75.4739 2.635 0.166
75.4944 2.688 0.167
75.5148 2.563 0.163
75.5353 2.406 0.158
75.5557 2.583 0.164
75.5762 2.583 0.164
75.5967 2.542 0.163
75.6171 2.927 0.175
75.6376 2.615 0.165
75.6581 2.854 0.172
75.6785 2.854 0.172
75.6990 2.885 0.173
75.7194 2.875 0.173
75.7399 3.135 0.181
75.7604 3.135 0.181
75.7808 3.208 0.183
75.8013 3.354 0.187
75.8218 3.177 0.182
75.8422 3.313 0.186
75.8627 3.281 0.185
75.8831 3.563 0.193
75.9036 2.844 0.172
75.9241 3.646 0.195
75.9445 3.323 0.186
75.9650 3.063 0.179
75.9855 3.042 0.178
76.0059 3.229 0.183
76.0264 3.052 0.178
76.0468 3.021 0.177
76.0673 3.365 0.187
76.0878 2.990 0.176
76.1082 2.948 0.175
76.1287 2.917 0.174
76.1492 3.000 0.177
76.1696 2.990 0.176
76.1901 2.625 0.165
76.2105 2.792 0.171
76.2310 2.708 0.168
76.2515 2.677 0.167
76.2719 2.781 0.170
76.2924 2.802 0.171
76.3129 2.594 0.164
76.3333 2.604 0.165
76.3538 2.573 0.164
76.3743 2.667 0.167
76.3947 2.573 0.164
76.4152 2.469 0.160
76.4356 2.708 0.168
76.4561 2.750 0.169
76.4766 2.667 0.167
76.4970 2.438 0.159
76.5175 2.594 0.164
76.5380 2.292 0.155
76.5584 2.344 0.156
76.5789 2.740 0.169
76.5993 2.896 0.174
76.6198 2.417 0.159
76.6403 2.490 0.161
76.6607 2.542 0.163
76.6812 2.552 0.163
76.7017 2.448 0.160
76.7221 2.469 0.160
76.7426 2.479 0.161
76.7630 2.677 0.167
76.7835 2.406 0.158
76.8040 2.573 0.164
76.8244 2.750 0.169
76.8449 2.667 0.167
76.8654 2.313 0.155
76.8858 2.385 0.158
76.9063 2.344 0.156
76.9267 2.510 0.162
76.9472 2.313 0.155
76.9677 2.719 0.168
76.9881 2.479 0.161
77.0086 2.604 0.165
77.0291 2.708 0.168
77.0495 2.594 0.164
77.0700 2.750 0.169
77.0905 2.698 0.168
77.1109 2.302 0.155
77.1314 2.469 0.160
77.1518 2.198 0.151
77.1723 2.344 0.156
77.1928 2.469 0.160
77.2132 2.625 0.165
77.2337 2.885 0.173
77.2542 2.885 0.173
77.2746 2.469 0.160
77.2951 2.823 0.171
77.3155 2.656 0.166
77.3360 2.729 0.169
77.3565 2.417 0.159
77.3769 2.677 0.167
77.3974 2.823 0.171
77.4179 2.635 0.166
77.4383 2.563 0.163
77.4588 2.583 0.164
77.4792 2.885 0.173
77.4997 2.813 0.171
77.5202 2.729 0.169
77.5406 2.698 0.168
77.5611 2.802 0.171
77.5816 3.281 0.185
77.6020 2.531 0.162
77.6225 2.875 0.173
77.6429 3.250 0.184
77.6634 3.188 0.182
77.6839 3.188 0.182
77.7043 2.667 0.167
77.7248 2.958 0.176
77.7453 3.250 0.184
77.7657 3.010 0.177
77.7862 3.240 0.184
77.8066 3.156 0.181
77.8271 3.208 0.183
77.8476 3.229 0.183
77.8680 2.844 0.172
77.8885 2.906 0.174
77.9090 3.000 0.177
77.9294 2.573 0.164
77.9499 2.802 0.171
77.9704 2.552 0.163
77.9908 2.573 0.164
78.0113 2.729 0.169
78.0317 2.875 0.173
78.0522 2.625 0.165
78.0727 2.708 0.168
78.0931 2.896 0.174
78.1136 2.458 0.160
78.1341 2.552 0.163
78.1545 2.885 0.173
78.1750 2.573 0.164
78.1954 2.563 0.163
78.2159 2.719 0.168
78.2364 2.625 0.165
78.2568 2.750 0.169
78.2773 3.083 0.179
78.2978 2.531 0.162
78.3182 2.646 0.166
78.3387 2.448 0.160
78.3591 2.667 0.167
78.3796 2.573 0.164
78.4001 2.479 0.161
78.4205 2.792 0.171
78.4410 2.740 0.169
78.4615 2.802 0.171
78.4819 3.052 0.178
78.5024 2.823 0.171
78.5228 2.625 0.165
78.5433 2.854 0.172
78.5638 2.844 0.172
78.5842 2.917 0.174
78.6047 2.917 0.174
78.6252 2.906 0.174
78.6456 2.521 0.162
78.6661 3.135 0.181
78.6865 2.917 0.174
78.7070 2.990 0.176
78.7275 2.802 0.171
78.7479 2.521 0.162
78.7684 2.854 0.172
78.7889 2.667 0.167
78.8093 3.146 0.181
78.8298 2.729 0.169
78.8503 2.823 0.171
78.8707 2.833 0.172
78.8912 2.667 0.167
78.9116 2.448 0.160
78.9321 2.885 0.173
78.9526 2.906 0.174
78.9730 2.833 0.172
78.9935 2.583 0.164
79.0140 2.875 0.173
79.0344 2.802 0.171
79.0549 2.646 0.166
79.0753 2.771 0.170
79.0958 2.698 0.168
79.1163 2.938 0.175
79.1367 2.917 0.174
79.1572 2.667 0.167
79.1777 2.813 0.171
79.1981 2.667 0.167
79.2186 2.927 0.175
79.2390 2.510 0.162
79.2595 2.938 0.175
79.2800 2.740 0.169
79.3004 2.740 0.169
79.3209 2.500 0.161
79.3414 2.625 0.165
79.3618 3.146 0.181
79.3823 2.854 0.172
79.4027 2.896 0.174
79.4232 2.688 0.167
79.4437 3.292 0.185
79.4641 2.594 0.164
79.4846 2.885 0.173
79.5051 2.813 0.171
79.5255 2.646 0.166
79.5460 3.031 0.178
79.5664 3.031 0.178
79.5869 2.813 0.171
79.6074 2.823 0.171
79.6278 2.813 0.171
79.6483 2.750 0.169
79.6688 2.625 0.165
79.6892 2.729 0.169
79.7097 2.865 0.173
79.7302 2.646 0.166
79.7506 2.896 0.174
79.7711 2.948 0.175
79.7915 2.917 0.174
79.8120 2.771 0.170
79.8325 3.115 0.180
79.8529 2.802 0.171
79.8734 3.073 0.179
79.8939 2.875 0.173
79.9143 2.750 0.169
79.9348 2.813 0.171
79.9552 2.760 0.170
79.9757 2.490 0.161
79.9962 2.604 0.165
