'Id: "" Comment: "" Operator: "Lab Manager" Anode: "Cu" Scantype: "Locked Coupled" TimePerStep: "96" X: "0" Y: "0" Z: "0" 
5.0001 42.854 0.668
5.0206 40.896 0.653
5.0410 40.938 0.653
5.0615 41.385 0.657
5.0820 42.375 0.664
5.1024 41.656 0.659
5.1229 41.583 0.658
5.1433 40.729 0.651
5.1638 41.594 0.658
5.1843 40.615 0.650
5.2047 41.177 0.655
5.2252 40.531 0.650
5.2457 41.260 0.656
5.2661 41.875 0.660
5.2866 40.490 0.649
5.3070 39.281 0.640
5.3275 40.615 0.650
5.3480 39.990 0.645
5.3684 40.219 0.647
5.3889 39.438 0.641
5.4094 39.823 0.644
5.4298 40.833 0.652
5.4503 39.010 0.637
5.4707 38.990 0.637
5.4912 37.385 0.624
5.5117 38.344 0.632
5.5321 38.417 0.633
5.5526 38.344 0.632
5.5731 37.427 0.624
5.5935 38.625 0.634
5.6140 38.042 0.629
5.6344 37.260 0.623
5.6549 37.521 0.625
5.6754 38.719 0.635
5.6958 37.510 0.625
5.7163 36.573 0.617
5.7368 36.479 0.616
5.7572 36.063 0.613
5.7777 37.500 0.625
5.7981 35.344 0.607
5.8186 36.188 0.614
5.8391 35.844 0.611
5.8595 35.896 0.611
5.8800 36.917 0.620
5.9005 34.344 0.598
5.9209 35.115 0.605
5.9414 34.490 0.599
5.9619 34.958 0.603
5.9823 34.833 0.602
6.0028 35.563 0.609
6.0232 34.438 0.599
6.0437 34.531 0.600
6.0642 34.625 0.601
6.0846 33.927 0.594
6.1051 33.469 0.590
6.1256 33.469 0.590
6.1460 34.229 0.597
6.1665 34.104 0.596
6.1869 34.021 0.595
6.2074 33.542 0.591
6.2279 32.823 0.585
6.2483 32.802 0.585
6.2688 32.573 0.582
6.2893 32.052 0.578
6.3097 32.792 0.584
6.3302 32.344 0.580
6.3506 31.896 0.576
6.3711 31.135 0.569
6.3916 31.083 0.569
6.4120 32.521 0.582
6.4325 32.063 0.578
6.4530 33.031 0.587
6.4734 32.948 0.586
6.4939 32.948 0.586
6.5143 35.771 0.610
6.5348 37.750 0.627
6.5553 39.052 0.638
6.5757 39.729 0.643
6.5962 39.948 0.645
6.6167 41.240 0.655
6.6371 42.510 0.665
6.6576 50.146 0.723
6.6780 63.104 0.811
6.6985 91.823 0.978
6.7190 125.583 1.144
6.7394 154.854 1.270
6.7599 117.938 1.108
6.7804 71.219 0.861
6.8008 50.323 0.724
6.8213 42.760 0.667
6.8418 38.563 0.634
6.8622 35.750 0.610
6.8827 34.292 0.598
6.9031 33.052 0.587
6.9236 32.760 0.584
6.9441 31.844 0.576
6.9645 31.260 0.571
6.9850 29.698 0.556
7.0055 29.677 0.556
7.0259 28.802 0.548
7.0464 29.542 0.555
7.0668 28.323 0.543
7.0873 27.906 0.539
7.1078 28.063 0.541
7.1282 27.802 0.538
7.1487 26.885 0.529
7.1692 27.427 0.535
7.1896 27.156 0.532
7.2101 26.750 0.528
7.2305 26.385 0.524
7.2510 26.708 0.527
7.2715 26.510 0.525
7.2919 26.000 0.520
7.3124 25.625 0.517
7.3329 25.875 0.519
7.3533 25.688 0.517
7.3738 26.688 0.527
7.3942 24.792 0.508
7.4147 25.125 0.512
7.4352 24.677 0.507
7.4556 24.406 0.504
7.4761 24.208 0.502
7.4966 25.583 0.516
7.5170 26.010 0.521
7.5375 24.521 0.505
7.5580 24.573 0.506
7.5784 24.802 0.508
7.5989 23.240 0.492
7.6193 24.240 0.502
7.6398 24.313 0.503
7.6603 23.979 0.500
7.6807 24.229 0.502
7.7012 24.063 0.501
7.7217 23.573 0.496
7.7421 23.323 0.493
7.7626 23.979 0.500
7.7830 24.021 0.500
7.8035 23.833 0.498
7.8240 23.604 0.496
7.8444 24.208 0.502
7.8649 23.510 0.495
7.8854 23.781 0.498
7.9058 24.719 0.507
7.9263 23.635 0.496
7.9467 23.167 0.491
7.9672 23.875 0.499
7.9877 23.188 0.491
8.0081 24.302 0.503
8.0286 23.646 0.496
8.0491 25.031 0.511
8.0695 23.552 0.495
8.0900 24.333 0.503
8.1104 24.031 0.500
8.1309 22.969 0.489
8.1514 24.073 0.501
8.1718 24.177 0.502
8.1923 23.698 0.497
8.2128 23.010 0.490
8.2332 22.323 0.482
8.2537 23.510 0.495
8.2741 23.698 0.497
8.2946 24.458 0.505
8.3151 22.573 0.485
8.3355 23.354 0.493
8.3560 23.854 0.498
8.3765 22.781 0.487
8.3969 23.844 0.498
8.4174 23.656 0.496
8.4379 23.250 0.492
8.4583 23.563 0.495
8.4788 23.833 0.498
8.4992 24.531 0.506
8.5197 23.781 0.498
8.5402 24.490 0.505
8.5606 25.198 0.512
8.5811 24.750 0.508
8.6016 24.677 0.507
8.6220 25.750 0.518
8.6425 25.615 0.517
8.6629 26.698 0.527
8.6834 26.458 0.525
8.7039 26.948 0.530
8.7243 26.542 0.526
8.7448 28.510 0.545
8.7653 28.500 0.545
8.7857 29.875 0.558
8.8062 30.438 0.563
8.8266 31.594 0.574
8.8471 32.125 0.578
8.8676 33.042 0.587
8.8880 32.271 0.580
8.9085 32.635 0.583
8.9290 35.115 0.605
8.9494 33.323 0.589
8.9699 34.521 0.600
8.9903 34.417 0.599
9.0108 35.760 0.610
9.0313 36.406 0.616
9.0517 40.271 0.648
9.0722 43.146 0.670
9.0927 46.260 0.694
9.1131 49.938 0.721
9.1336 47.000 0.700
9.1540 38.302 0.632
9.1745 29.917 0.558
9.1950 29.479 0.554
9.2154 28.719 0.547
9.2359 26.938 0.530
9.2564 27.167 0.532
9.2768 27.250 0.533
9.2973 28.573 0.546
9.3178 29.125 0.551
9.3382 29.750 0.557
9.3587 29.719 0.556
9.3791 30.677 0.565
9.3996 32.563 0.582
9.4201 34.010 0.595
9.4405 34.625 0.601
9.4610 36.344 0.615
9.4815 40.208 0.647
9.5019 41.990 0.661
9.5224 43.500 0.673
9.5428 48.083 0.708
9.5633 51.344 0.731
9.5838 57.969 0.777
9.6042 63.094 0.811
9.6247 69.938 0.854
9.6452 76.604 0.893
9.6656 84.854 0.940
9.6861 94.531 0.992
9.7065 108.010 1.061
9.7270 121.188 1.124
9.7475 139.313 1.205
9.7679 156.906 1.278
9.7884 186.135 1.392
9.8089 221.708 1.520
9.8293 257.021 1.636
9.8498 315.833 1.814
9.8702 390.781 2.018
9.8907 497.500 2.276
9.9112 637.458 2.577
9.9316 719.156 2.737
9.9521 600.563 2.501
9.9726 407.302 2.060
9.9930 269.708 1.676
10.0135 204.156 1.458
10.0339 164.927 1.311
10.0544 139.667 1.206
10.0749 123.448 1.134
10.0953 110.146 1.071
10.1158 101.417 1.028
10.1363 91.563 0.977
10.1567 86.365 0.948
10.1772 79.198 0.908
10.1977 76.552 0.893
10.2181 70.688 0.858
10.2386 69.271 0.849
10.2590 67.260 0.837
10.2795 62.250 0.805
10.3000 62.969 0.810
10.3204 60.573 0.794
10.3409 57.865 0.776
10.3614 57.938 0.777
10.3818 56.219 0.765
10.4023 56.500 0.767
10.4227 55.188 0.758
10.4432 52.938 0.743
10.4637 52.552 0.740
10.4841 53.063 0.743
10.5046 51.917 0.735
10.5251 50.969 0.729
10.5455 50.906 0.728
10.5660 52.854 0.742
10.5864 52.115 0.737
10.6069 52.833 0.742
10.6274 52.531 0.740
10.6478 50.354 0.724
10.6683 52.948 0.743
10.6888 52.771 0.741
10.7092 53.198 0.744
10.7297 55.313 0.759
10.7501 54.927 0.756
10.7706 55.771 0.762
10.7911 55.948 0.763
10.8115 54.844 0.756
10.8320 54.135 0.751
10.8525 52.750 0.741
10.8729 50.010 0.722
10.8934 46.365 0.695
10.9138 41.698 0.659
10.9343 39.177 0.639
10.9548 37.750 0.627
10.9752 36.354 0.615
10.9957 35.083 0.605
11.0162 33.208 0.588
11.0366 32.177 0.579
11.0571 32.219 0.579
11.0776 31.573 0.573
11.0980 30.792 0.566
11.1185 29.469 0.554
11.1389 30.240 0.561
11.1594 29.854 0.558
11.1799 30.010 0.559
11.2003 29.719 0.556
11.2208 29.667 0.556
11.2413 29.094 0.551
11.2617 28.448 0.544
11.2822 27.917 0.539
11.3026 28.750 0.547
11.3231 28.115 0.541
11.3436 28.344 0.543
11.3640 29.365 0.553
11.3845 27.510 0.535
11.4050 28.156 0.542
11.4254 28.740 0.547
11.4459 27.760 0.538
11.4663 27.750 0.538
11.4868 27.969 0.540
11.5073 28.823 0.548
11.5277 27.854 0.539
11.5482 27.448 0.535
11.5687 28.406 0.544
11.5891 26.708 0.527
11.6096 27.833 0.538
11.6300 27.833 0.538
11.6505 27.229 0.533
11.6710 27.885 0.539
11.6914 28.510 0.545
11.7119 27.313 0.533
11.7324 26.500 0.525
11.7528 27.688 0.537
11.7733 27.448 0.535
11.7938 27.760 0.538
11.8142 27.594 0.536
11.8347 26.427 0.525
11.8551 26.000 0.520
11.8756 26.375 0.524
11.8961 26.000 0.520
11.9165 25.708 0.517
11.9370 26.625 0.527
11.9575 27.094 0.531
11.9779 25.667 0.517
11.9984 26.604 0.526
12.0188 25.208 0.512
12.0393 26.833 0.529
12.0598 26.156 0.522
12.0802 25.271 0.513
12.1007 25.385 0.514
12.1212 25.635 0.517
12.1416 25.219 0.513
12.1621 25.000 0.510
12.1825 26.302 0.523
12.2030 25.354 0.514
12.2235 25.865 0.519
12.2439 26.354 0.524
12.2644 26.885 0.529
12.2849 26.229 0.523
12.3053 26.781 0.528
12.3258 26.479 0.525
12.3462 26.000 0.520
12.3667 27.052 0.531
12.3872 25.833 0.519
12.4076 27.021 0.531
12.4281 26.198 0.522
12.4486 24.531 0.506
12.4690 24.531 0.506
12.4895 24.813 0.508
12.5099 25.198 0.512
12.5304 25.156 0.512
12.5509 25.375 0.514
12.5713 23.385 0.494
12.5918 25.729 0.518
12.6123 25.000 0.510
12.6327 25.094 0.511
12.6532 25.917 0.520
12.6737 25.240 0.513
12.6941 25.802 0.518
12.7146 25.646 0.517
12.7350 25.135 0.512
12.7555 24.990 0.510
12.7760 26.125 0.522
12.7964 25.229 0.513
12.8169 24.260 0.503
12.8374 24.313 0.503
12.8578 24.646 0.507
12.8783 24.740 0.508
12.8987 25.094 0.511
12.9192 25.229 0.513
12.9397 25.063 0.511
12.9601 24.156 0.502
12.9806 24.521 0.505
13.0011 24.188 0.502
13.0215 25.260 0.513
13.0420 24.135 0.501
13.0624 24.208 0.502
13.0829 23.875 0.499
13.1034 24.573 0.506
13.1238 24.927 0.510
13.1443 24.594 0.506
13.1648 24.479 0.505
13.1852 24.417 0.504
13.2057 24.063 0.501
13.2261 24.490 0.505
13.2466 25.031 0.511
13.2671 23.760 0.497
13.2875 24.417 0.504
13.3080 24.948 0.510
13.3285 25.604 0.516
13.3489 27.333 0.534
13.3694 28.458 0.544
13.3898 30.021 0.559
13.4103 33.875 0.594
13.4308 42.260 0.663
13.4512 48.844 0.713
13.4717 44.354 0.680
13.4922 34.969 0.604
13.5126 28.219 0.542
13.5331 25.854 0.519
13.5536 24.531 0.506
13.5740 24.563 0.506
13.5945 24.458 0.505
13.6149 24.438 0.505
13.6354 23.688 0.497
13.6559 23.302 0.493
13.6763 23.958 0.500
13.6968 23.490 0.495
13.7173 22.396 0.483
13.7377 22.771 0.487
13.7582 23.167 0.491
13.7786 23.031 0.490
13.7991 23.010 0.490
13.8196 23.302 0.493
13.8400 22.906 0.488
13.8605 22.479 0.484
13.8810 22.583 0.485
13.9014 23.094 0.490
13.9219 22.760 0.487
13.9423 23.052 0.490
13.9628 21.781 0.476
13.9833 21.479 0.473
14.0037 22.104 0.480
14.0242 22.896 0.488
14.0447 23.115 0.491
14.0651 21.917 0.478
14.0856 22.760 0.487
14.1060 21.531 0.474
14.1265 21.906 0.478
14.1470 21.698 0.475
14.1674 22.063 0.479
14.1879 22.469 0.484
14.2084 22.375 0.483
14.2288 21.854 0.477
14.2493 21.906 0.478
14.2697 22.688 0.486
14.2902 21.854 0.477
14.3107 21.490 0.473
14.3311 21.375 0.472
14.3516 22.427 0.483
14.3721 20.938 0.467
14.3925 21.563 0.474
14.4130 20.479 0.462
14.4335 21.854 0.477
14.4539 21.719 0.476
14.4744 21.479 0.473
14.4948 21.542 0.474
14.5153 20.802 0.465
14.5358 20.385 0.461
14.5562 21.281 0.471
14.5767 21.448 0.473
14.5972 21.625 0.475
14.6176 20.333 0.460
14.6381 21.448 0.473
14.6585 21.427 0.472
14.6790 20.865 0.466
14.6995 20.844 0.466
14.7199 20.552 0.463
14.7404 21.010 0.468
14.7609 21.094 0.469
14.7813 20.948 0.467
14.8018 21.365 0.472
14.8222 21.073 0.469
14.8427 21.135 0.469
14.8632 20.552 0.463
14.8836 20.875 0.466
14.9041 21.229 0.470
14.9246 21.063 0.468
14.9450 20.500 0.462
14.9655 20.854 0.466
14.9859 21.031 0.468
15.0064 21.260 0.471
15.0269 20.021 0.457
15.0473 19.760 0.454
15.0678 21.146 0.469
15.0883 20.323 0.460
15.1087 20.677 0.464
15.1292 20.135 0.458
15.1496 19.625 0.452
15.1701 20.292 0.460
15.1906 20.781 0.465
15.2110 20.917 0.467
15.2315 20.146 0.458
15.2520 20.031 0.457
15.2724 20.854 0.466
15.2929 20.406 0.461
15.3134 20.521 0.462
15.3338 20.333 0.460
15.3543 21.615 0.475
15.3747 21.469 0.473
15.3952 21.250 0.470
15.4157 21.531 0.474
15.4361 21.083 0.469
15.4566 21.094 0.469
15.4771 20.865 0.466
15.4975 21.531 0.474
15.5180 20.292 0.460
15.5384 20.302 0.460
15.5589 19.927 0.456
15.5794 20.354 0.460
15.5998 20.635 0.464
15.6203 21.625 0.475
15.6408 22.354 0.483
15.6612 21.521 0.473
15.6817 22.427 0.483
15.7021 24.063 0.501
15.7226 24.438 0.505
15.7431 26.031 0.521
15.7635 27.615 0.536
15.7840 29.740 0.557
15.8045 28.896 0.549
15.8249 27.260 0.533
15.8454 24.438 0.505
15.8658 23.083 0.490
15.8863 21.646 0.475
15.9068 20.573 0.463
15.9272 21.083 0.469
15.9477 19.656 0.452
15.9682 18.865 0.443
15.9886 19.552 0.451
16.0091 19.240 0.448
16.0296 19.594 0.452
16.0500 19.406 0.450
16.0705 19.792 0.454
16.0909 19.490 0.451
16.1114 19.552 0.451
16.1319 20.177 0.458
16.1523 19.833 0.455
16.1728 19.458 0.450
16.1933 18.781 0.442
16.2137 19.448 0.450
16.2342 18.333 0.437
16.2546 19.104 0.446
16.2751 18.646 0.441
16.2956 17.833 0.431
16.3160 18.708 0.441
16.3365 19.229 0.448
16.3570 19.354 0.449
16.3774 20.094 0.458
16.3979 18.917 0.444
16.4183 19.094 0.446
16.4388 18.406 0.438
16.4593 19.292 0.448
16.4797 19.250 0.448
16.5002 20.177 0.458
16.5207 19.875 0.455
16.5411 18.583 0.440
16.5616 19.177 0.447
16.5820 19.458 0.450
16.6025 20.063 0.457
16.6230 19.365 0.449
16.6434 19.146 0.447
16.6639 19.333 0.449
16.6844 19.031 0.445
16.7048 19.000 0.445
16.7253 20.094 0.458
16.7457 19.604 0.452
16.7662 19.438 0.450
16.7867 19.938 0.456
16.8071 18.698 0.441
16.8276 19.177 0.447
16.8481 19.813 0.454
16.8685 18.656 0.441
16.8890 18.958 0.444
16.9095 19.365 0.449
16.9299 18.792 0.442
16.9504 19.635 0.452
16.9708 20.063 0.457
16.9913 19.281 0.448
17.0118 18.635 0.441
17.0322 19.417 0.450
17.0527 19.271 0.448
17.0732 19.719 0.453
17.0936 18.625 0.440
17.1141 19.760 0.454
17.1345 19.917 0.455
17.1550 19.438 0.450
17.1755 19.240 0.448
17.1959 19.250 0.448
17.2164 20.042 0.457
17.2369 19.698 0.453
17.2573 20.573 0.463
17.2778 20.333 0.460
17.2982 20.396 0.461
17.3187 20.344 0.460
17.3392 20.677 0.464
17.3596 20.948 0.467
17.3801 21.781 0.476
17.4006 21.771 0.476
17.4210 20.573 0.463
17.4415 22.781 0.487
17.4619 22.292 0.482
17.4824 22.177 0.481
17.5029 21.844 0.477
17.5233 22.719 0.486
17.5438 23.521 0.495
17.5643 23.521 0.495
17.5847 22.177 0.481
17.6052 24.323 0.503
17.6256 24.354 0.504
17.6461 25.250 0.513
17.6666 24.604 0.506
17.6870 26.479 0.525
17.7075 26.865 0.529
17.7280 27.458 0.535
17.7484 29.490 0.554
17.7689 29.396 0.553
17.7894 31.375 0.572
17.8098 32.542 0.582
17.8303 33.917 0.594
17.8507 34.833 0.602
17.8712 35.490 0.608
17.8917 35.760 0.610
17.9121 35.167 0.605
17.9326 35.333 0.607
17.9531 37.583 0.626
17.9735 37.771 0.627
17.9940 39.760 0.644
18.0144 41.719 0.659
18.0349 42.688 0.667
18.0554 45.740 0.690
18.0758 49.792 0.720
18.0963 51.094 0.730
18.1168 51.427 0.732
18.1372 50.177 0.723
18.1577 50.698 0.727
18.1781 50.010 0.722
18.1986 49.573 0.719
18.2191 51.198 0.730
18.2395 53.188 0.744
18.2600 54.688 0.755
18.2805 54.094 0.751
18.3009 54.792 0.755
18.3214 54.833 0.756
18.3418 55.698 0.762
18.3623 55.063 0.757
18.3828 56.594 0.768
18.4032 55.198 0.758
18.4237 53.917 0.749
18.4442 53.104 0.744
18.4646 52.427 0.739
18.4851 51.302 0.731
18.5055 48.531 0.711
18.5260 49.458 0.718
18.5465 47.677 0.705
18.5669 46.927 0.699
18.5874 46.594 0.697
18.6079 44.813 0.683
18.6283 44.500 0.681
18.6488 44.542 0.681
18.6693 44.719 0.683
18.6897 43.260 0.671
18.7102 41.375 0.656
18.7306 41.771 0.660
18.7511 42.313 0.664
18.7716 40.854 0.652
18.7920 41.313 0.656
18.8125 40.781 0.652
18.8330 39.875 0.644
18.8534 38.583 0.634
18.8739 37.344 0.624
18.8943 37.750 0.627
18.9148 37.219 0.623
18.9353 34.396 0.599
18.9557 32.802 0.585
18.9762 31.969 0.577
18.9967 30.021 0.559
19.0171 28.615 0.546
19.0376 26.781 0.528
19.0580 26.760 0.528
19.0785 26.344 0.524
19.0990 24.938 0.510
19.1194 26.375 0.524
19.1399 25.990 0.520
19.1604 25.354 0.514
19.1808 24.208 0.502
19.2013 23.958 0.500
19.2217 23.875 0.499
19.2422 24.115 0.501
19.2627 23.302 0.493
19.2831 22.781 0.487
19.3036 23.906 0.499
19.3241 22.813 0.487
19.3445 23.156 0.491
19.3650 23.156 0.491
19.3854 24.073 0.501
19.4059 23.302 0.493
19.4264 23.938 0.499
19.4468 23.844 0.498
19.4673 23.688 0.497
19.4878 23.646 0.496
19.5082 23.979 0.500
19.5287 24.490 0.505
19.5492 25.094 0.511
19.5696 25.260 0.513
19.5901 26.354 0.524
19.6105 26.865 0.529
19.6310 27.531 0.536
19.6515 30.781 0.566
19.6719 32.385 0.581
19.6924 34.000 0.595
19.7129 38.885 0.636
19.7333 43.313 0.672
19.7538 51.146 0.730
19.7742 58.708 0.782
19.7947 69.563 0.851
19.8152 83.573 0.933
19.8356 101.448 1.028
19.8561 126.365 1.147
19.8766 158.948 1.287
19.8970 194.313 1.423
19.9175 197.219 1.433
19.9379 164.740 1.310
19.9584 144.531 1.227
19.9789 111.563 1.078
19.9993 84.542 0.938
20.0198 70.302 0.856
20.0403 60.948 0.797
20.0607 58.156 0.778
20.0812 53.781 0.748
20.1016 52.510 0.740
20.1221 50.583 0.726
20.1426 50.635 0.726
20.1630 50.021 0.722
20.1835 52.448 0.739
20.2040 52.896 0.742
20.2244 54.083 0.751
20.2449 56.229 0.765
20.2654 54.750 0.755
20.2858 56.625 0.768
20.3063 56.771 0.769
20.3267 56.031 0.764
20.3472 56.073 0.764
20.3677 56.125 0.765
20.3881 56.313 0.766
20.4086 53.167 0.744
20.4291 53.417 0.746
20.4495 51.823 0.735
20.4700 51.458 0.732
20.4904 50.271 0.724
20.5109 48.885 0.714
20.5314 47.781 0.705
20.5518 46.917 0.699
20.5723 44.094 0.678
20.5928 41.552 0.658
20.6132 39.885 0.645
20.6337 39.104 0.638
20.6541 36.469 0.616
20.6746 35.448 0.608
20.6951 32.875 0.585
20.7155 31.427 0.572
20.7360 30.594 0.565
20.7565 30.385 0.563
20.7769 29.542 0.555
20.7974 28.448 0.544
20.8178 28.125 0.541
20.8383 27.896 0.539
20.8588 26.990 0.530
20.8792 27.198 0.532
20.8997 26.052 0.521
20.9202 27.854 0.539
20.9406 25.490 0.515
20.9611 25.458 0.515
20.9815 24.635 0.507
21.0020 25.552 0.516
21.0225 24.302 0.503
21.0429 24.271 0.503
21.0634 24.396 0.504
21.0839 24.927 0.510
21.1043 24.104 0.501
21.1248 24.198 0.502
21.1453 23.729 0.497
21.1657 23.146 0.491
21.1862 23.583 0.496
21.2066 23.667 0.497
21.2271 23.198 0.492
21.2476 24.958 0.510
21.2680 23.677 0.497
21.2885 23.000 0.489
21.3090 23.260 0.492
21.3294 22.615 0.485
21.3499 23.094 0.490
21.3703 22.771 0.487
21.3908 22.740 0.487
21.4113 23.229 0.492
21.4317 23.281 0.492
21.4522 23.406 0.494
21.4727 23.583 0.496
21.4931 23.208 0.492
21.5136 23.906 0.499
21.5340 24.292 0.503
21.5545 23.177 0.491
21.5750 23.406 0.494
21.5954 24.573 0.506
21.6159 24.396 0.504
21.6364 24.875 0.509
21.6568 24.688 0.507
21.6773 26.156 0.522
21.6977 25.219 0.513
21.7182 26.229 0.523
21.7387 25.677 0.517
21.7591 26.750 0.528
21.7796 27.125 0.532
21.8001 27.063 0.531
21.8205 26.552 0.526
21.8410 25.646 0.517
21.8614 25.594 0.516
21.8819 26.677 0.527
21.9024 26.063 0.521
21.9228 26.229 0.523
21.9433 25.656 0.517
21.9638 25.760 0.518
21.9842 27.802 0.538
22.0047 28.927 0.549
22.0252 31.406 0.572
22.0456 34.427 0.599
22.0661 36.260 0.615
22.0865 41.927 0.661
22.1070 47.948 0.707
22.1275 55.094 0.758
22.1479 65.948 0.829
22.1684 78.792 0.906
22.1889 94.938 0.994
22.2093 113.104 1.085
22.2298 121.615 1.126
22.2502 109.135 1.066
22.2707 91.010 0.974
22.2912 75.281 0.886
22.3116 56.958 0.770
22.3321 43.271 0.671
22.3526 35.563 0.609
22.3730 31.479 0.573
22.3935 28.906 0.549
22.4139 26.563 0.526
22.4344 25.552 0.516
22.4549 24.000 0.500
22.4753 22.969 0.489
22.4958 21.635 0.475
22.5163 22.292 0.482
22.5367 20.510 0.462
22.5572 20.531 0.462
22.5776 21.073 0.469
22.5981 20.188 0.459
22.6186 19.281 0.448
22.6390 20.031 0.457
22.6595 18.271 0.436
22.6800 19.219 0.447
22.7004 18.927 0.444
22.7209 18.958 0.444
22.7413 19.010 0.445
22.7618 18.625 0.440
22.7823 18.573 0.440
22.8027 19.438 0.450
22.8232 18.615 0.440
22.8437 19.344 0.449
22.8641 19.854 0.455
22.8846 21.583 0.474
22.9051 21.781 0.476
22.9255 22.760 0.487
22.9460 22.865 0.488
22.9664 21.646 0.475
22.9869 20.875 0.466
23.0074 20.010 0.457
23.0278 18.438 0.438
23.0483 17.521 0.427
23.0688 16.865 0.419
23.0892 16.510 0.415
23.1097 17.365 0.425
23.1301 16.417 0.414
23.1506 16.458 0.414
23.1711 16.042 0.409
23.1915 16.531 0.415
23.2120 15.917 0.407
23.2325 15.813 0.406
23.2529 15.677 0.404
23.2734 15.469 0.401
23.2938 15.031 0.396
23.3143 16.438 0.414
23.3348 15.594 0.403
23.3552 15.250 0.399
23.3757 15.021 0.396
23.3962 14.906 0.394
23.4166 15.031 0.396
23.4371 15.510 0.402
23.4575 15.500 0.402
23.4780 15.917 0.407
23.4985 16.135 0.410
23.5189 15.938 0.407
23.5394 15.292 0.399
23.5599 15.344 0.400
23.5803 15.677 0.404
23.6008 16.427 0.414
23.6212 17.146 0.423
23.6417 15.521 0.402
23.6622 16.500 0.415
23.6826 16.427 0.414
23.7031 15.385 0.400
23.7236 15.760 0.405
23.7440 15.219 0.398
23.7645 15.302 0.399
23.7850 14.979 0.395
23.8054 14.719 0.392
23.8259 15.427 0.401
23.8463 15.146 0.397
23.8668 14.917 0.394
23.8873 14.750 0.392
23.9077 13.979 0.382
23.9282 15.125 0.397
23.9487 15.208 0.398
23.9691 14.250 0.385
23.9896 14.813 0.393
24.0100 14.719 0.392
24.0305 14.719 0.392
24.0510 14.833 0.393
24.0714 14.656 0.391
24.0919 15.240 0.398
24.1124 15.771 0.405
24.1328 15.875 0.407
24.1533 15.490 0.402
24.1737 15.104 0.397
24.1942 16.083 0.409
24.2147 16.188 0.411
24.2351 17.896 0.432
24.2556 16.813 0.418
24.2761 17.865 0.431
24.2965 18.365 0.437
24.3170 19.063 0.446
24.3374 21.198 0.470
24.3579 23.417 0.494
24.3784 23.813 0.498
24.3988 24.063 0.501
24.4193 20.521 0.462
24.4398 20.563 0.463
24.4602 18.354 0.437
24.4807 17.094 0.422
24.5012 15.865 0.407
24.5216 15.740 0.405
24.5421 15.698 0.404
24.5625 15.667 0.404
24.5830 15.375 0.400
24.6035 14.656 0.391
24.6239 15.427 0.401
24.6444 14.958 0.395
24.6649 14.771 0.392
24.6853 14.854 0.393
24.7058 15.354 0.400
24.7262 15.344 0.400
24.7467 15.427 0.401
24.7672 14.625 0.390
24.7876 14.417 0.388
24.8081 14.854 0.393
24.8286 14.583 0.390
24.8490 14.406 0.387
24.8695 14.365 0.387
24.8899 14.552 0.389
24.9104 14.083 0.383
24.9309 14.594 0.390
24.9513 14.271 0.386
24.9718 14.313 0.386
24.9923 14.302 0.386
25.0127 14.083 0.383
25.0332 14.010 0.382
25.0536 14.375 0.387
25.0741 13.906 0.381
25.0946 13.771 0.379
25.1150 13.885 0.380
25.1355 13.781 0.379
25.1560 13.781 0.379
25.1764 13.646 0.377
25.1969 13.010 0.368
25.2173 13.740 0.378
25.2378 12.438 0.360
25.2583 13.771 0.379
25.2787 13.344 0.373
25.2992 13.344 0.373
25.3197 13.844 0.380
25.3401 13.104 0.369
25.3606 12.333 0.358
25.3811 12.750 0.364
25.4015 13.823 0.379
25.4220 13.365 0.373
25.4424 13.510 0.375
25.4629 13.844 0.380
25.4834 14.198 0.385
25.5038 14.448 0.388
25.5243 14.146 0.384
25.5448 14.771 0.392
25.5652 16.021 0.409
25.5857 15.552 0.402
25.6061 16.146 0.410
25.6266 16.490 0.414
25.6471 15.042 0.396
25.6675 15.688 0.404
25.6880 15.073 0.396
25.7085 14.177 0.384
25.7289 14.406 0.387
25.7494 14.063 0.383
25.7698 14.010 0.382
25.7903 13.333 0.373
25.8108 13.396 0.374
25.8312 13.469 0.375
25.8517 13.708 0.378
25.8722 12.833 0.366
25.8926 13.219 0.371
25.9131 12.906 0.367
25.9335 13.354 0.373
25.9540 13.635 0.377
25.9745 14.083 0.383
25.9949 14.010 0.382
26.0154 13.042 0.369
26.0359 13.250 0.372
26.0563 12.990 0.368
26.0768 13.510 0.375
26.0972 14.115 0.383
26.1177 13.365 0.373
26.1382 14.344 0.387
26.1586 13.417 0.374
26.1791 14.313 0.386
26.1996 13.906 0.381
26.2200 13.000 0.368
26.2405 14.385 0.387
26.2610 13.510 0.375
26.2814 13.896 0.380
26.3019 13.281 0.372
26.3223 14.385 0.387
26.3428 14.656 0.391
26.3633 14.292 0.386
26.3837 13.677 0.377
26.4042 14.438 0.388
26.4247 14.333 0.386
26.4451 14.667 0.391
26.4656 14.531 0.389
26.4860 14.542 0.389
26.5065 14.417 0.388
26.5270 14.906 0.394
26.5474 15.104 0.397
26.5679 14.365 0.387
26.5884 14.125 0.384
26.6088 14.667 0.391
26.6293 14.292 0.386
26.6497 14.302 0.386
26.6702 14.875 0.394
26.6907 14.281 0.386
26.7111 14.125 0.384
26.7316 14.844 0.393
26.7521 14.396 0.387
26.7725 14.604 0.390
26.7930 14.906 0.394
26.8134 14.146 0.384
26.8339 14.865 0.393
26.8544 14.240 0.385
26.8748 14.313 0.386
26.8953 15.021 0.396
26.9158 14.271 0.386
26.9362 14.427 0.388
26.9567 14.260 0.385
26.9771 14.073 0.383
26.9976 14.188 0.384
27.0181 14.729 0.392
27.0385 14.385 0.387
27.0590 14.031 0.382
27.0795 14.156 0.384
27.0999 14.375 0.387
27.1204 13.885 0.380
27.1409 14.073 0.383
27.1613 13.969 0.381
27.1818 13.906 0.381
27.2022 14.635 0.390
27.2227 13.990 0.382
27.2432 13.865 0.380
27.2636 14.229 0.385
27.2841 14.438 0.388
27.3046 14.073 0.383
27.3250 13.760 0.379
27.3455 13.740 0.378
27.3659 14.438 0.388
27.3864 13.531 0.375
27.4069 13.281 0.372
27.4273 13.865 0.380
27.4478 14.260 0.385
27.4683 14.729 0.392
27.4887 14.510 0.389
27.5092 15.531 0.402
27.5296 15.542 0.402
27.5501 14.365 0.387
27.5706 14.458 0.388
27.5910 14.740 0.392
27.6115 14.396 0.387
27.6320 13.906 0.381
27.6524 13.458 0.374
27.6729 13.438 0.374
27.6933 13.656 0.377
27.7138 14.406 0.387
27.7343 13.771 0.379
27.7547 13.385 0.373
27.7752 14.094 0.383
27.7957 13.927 0.381
27.8161 13.990 0.382
27.8366 13.750 0.378
27.8570 14.375 0.387
27.8775 14.146 0.384
27.8980 14.219 0.385
27.9184 14.521 0.389
27.9389 13.958 0.381
27.9594 14.198 0.385
27.9798 14.646 0.391
28.0003 14.292 0.386
28.0208 13.510 0.375
28.0412 14.042 0.382
28.0617 13.427 0.374
28.0821 13.188 0.371
28.1026 13.583 0.376
28.1231 13.531 0.375
28.1435 13.104 0.369
28.1640 12.906 0.367
28.1845 12.917 0.367
28.2049 13.063 0.369
28.2254 12.781 0.365
28.2458 12.646 0.363
28.2663 12.813 0.365
28.2868 12.531 0.361
28.3072 12.948 0.367
28.3277 12.990 0.368
28.3482 12.479 0.361
28.3686 12.323 0.358
28.3891 12.854 0.366
28.4095 12.552 0.362
28.4300 12.125 0.355
28.4505 12.125 0.355
28.4709 12.344 0.359
28.4914 12.552 0.362
28.5119 12.927 0.367
28.5323 12.021 0.354
28.5528 12.115 0.355
28.5732 12.094 0.355
28.5937 12.458 0.360
28.6142 11.792 0.350
28.6346 12.167 0.356
28.6551 12.510 0.361
28.6756 12.646 0.363
28.6960 12.271 0.358
28.7165 12.448 0.360
28.7370 11.667 0.349
28.7574 11.938 0.353
28.7779 12.479 0.361
28.7983 12.302 0.358
28.8188 12.583 0.362
28.8393 12.771 0.365
28.8597 11.792 0.350
28.8802 11.604 0.348
28.9007 12.594 0.362
28.9211 11.813 0.351
28.9416 11.469 0.346
28.9620 11.417 0.345
28.9825 12.260 0.357
29.0030 11.500 0.346
29.0234 11.990 0.353
29.0439 11.156 0.341
29.0644 12.094 0.355
29.0848 12.823 0.365
29.1053 12.146 0.356
29.1257 12.313 0.358
29.1462 12.104 0.355
29.1667 11.833 0.351
29.1871 12.250 0.357
29.2076 12.219 0.357
29.2281 13.031 0.368
29.2485 13.396 0.374
29.2690 13.969 0.381
29.2894 14.365 0.387
29.3099 15.198 0.398
29.3304 15.375 0.400
29.3508 15.115 0.397
29.3713 16.021 0.409
29.3918 14.177 0.384
29.4122 14.771 0.392
29.4327 13.604 0.376
29.4531 13.010 0.368
29.4736 12.542 0.361
29.4941 12.510 0.361
29.5145 11.875 0.352
29.5350 11.885 0.352
29.5555 12.021 0.354
29.5759 10.927 0.337
29.5964 12.094 0.355
29.6169 12.146 0.356
29.6373 11.635 0.348
29.6578 11.750 0.350
29.6782 11.531 0.347
29.6987 12.125 0.355
29.7192 11.208 0.342
29.7396 10.833 0.336
29.7601 11.073 0.340
29.7806 11.208 0.342
29.8010 11.313 0.343
29.8215 10.677 0.333
29.8419 11.021 0.339
29.8624 11.281 0.343
29.8829 10.958 0.338
29.9033 10.333 0.328
29.9238 11.365 0.344
29.9443 10.563 0.332
29.9647 11.323 0.343
29.9852 11.323 0.343
30.0056 11.021 0.339
30.0261 11.094 0.340
30.0466 11.333 0.344
30.0670 10.708 0.334
30.0875 11.563 0.347
30.1080 11.146 0.341
30.1284 10.667 0.333
30.1489 10.104 0.324
30.1693 11.292 0.343
30.1898 10.760 0.335
30.2103 11.229 0.342
30.2307 10.240 0.327
30.2512 11.010 0.339
30.2717 10.771 0.335
30.2921 10.448 0.330
30.3126 11.156 0.341
30.3330 10.583 0.332
30.3535 10.958 0.338
30.3740 10.990 0.338
30.3944 11.177 0.341
30.4149 11.000 0.339
30.4354 11.156 0.341
30.4558 11.469 0.346
30.4763 10.917 0.337
30.4968 10.854 0.336
30.5172 11.188 0.341
30.5377 10.823 0.336
30.5581 11.708 0.349
30.5786 11.073 0.340
30.5991 10.813 0.336
30.6195 11.198 0.342
30.6400 11.875 0.352
30.6605 11.219 0.342
30.6809 11.656 0.348
30.7014 11.708 0.349
30.7218 11.885 0.352
30.7423 12.177 0.356
30.7628 11.688 0.349
30.7832 13.292 0.372
30.8037 13.021 0.368
30.8242 13.698 0.378
30.8446 15.510 0.402
30.8651 18.229 0.436
30.8855 19.063 0.446
30.9060 23.677 0.497
30.9265 29.125 0.551
30.9469 37.604 0.626
30.9674 49.458 0.718
30.9879 63.427 0.813
31.0083 82.469 0.927
31.0288 104.917 1.045
31.0492 118.354 1.110
31.0697 105.104 1.046
31.0902 80.281 0.914
31.1106 70.833 0.859
31.1311 67.854 0.841
31.1516 52.948 0.743
31.1720 34.938 0.603
31.1925 26.802 0.528
31.2129 23.531 0.495
31.2334 19.885 0.455
31.2539 18.125 0.435
31.2743 17.302 0.425
31.2948 16.323 0.412
31.3153 16.094 0.409
31.3357 14.740 0.392
31.3562 14.594 0.390
31.3767 12.781 0.365
31.3971 12.979 0.368
31.4176 12.885 0.366
31.4380 13.063 0.369
31.4585 12.594 0.362
31.4790 12.167 0.356
31.4994 12.656 0.363
31.5199 12.719 0.364
31.5404 13.156 0.370
31.5608 12.010 0.354
31.5813 12.281 0.358
31.6017 12.177 0.356
31.6222 11.625 0.348
31.6427 12.448 0.360
31.6631 13.146 0.370
31.6836 12.979 0.368
31.7041 12.969 0.368
31.7245 12.469 0.360
31.7450 13.250 0.372
31.7654 12.927 0.367
31.7859 12.698 0.364
31.8064 13.438 0.374
31.8268 12.979 0.368
31.8473 13.104 0.369
31.8678 13.406 0.374
31.8882 13.698 0.378
31.9087 14.198 0.385
31.9291 13.563 0.376
31.9496 13.646 0.377
31.9701 14.063 0.383
31.9905 14.917 0.394
32.0110 15.208 0.398
32.0315 15.229 0.398
32.0519 16.604 0.416
32.0724 16.667 0.417
32.0928 17.396 0.426
32.1133 17.750 0.430
32.1338 18.594 0.440
32.1542 20.104 0.458
32.1747 20.708 0.464
32.1952 22.375 0.483
32.2156 23.542 0.495
32.2361 22.188 0.481
32.2566 22.844 0.488
32.2770 21.573 0.474
32.2975 20.594 0.463
32.3179 18.750 0.442
32.3384 18.167 0.435
32.3589 17.625 0.428
32.3793 16.396 0.413
32.3998 16.135 0.410
32.4203 15.552 0.402
32.4407 15.521 0.402
32.4612 16.010 0.408
32.4816 16.948 0.420
32.5021 18.365 0.437
32.5226 19.042 0.445
32.5430 21.073 0.469
32.5635 24.417 0.504
32.5840 28.010 0.540
32.6044 33.875 0.594
32.6249 40.708 0.651
32.6453 46.563 0.696
32.6658 48.646 0.712
32.6863 47.344 0.702
32.7067 39.104 0.638
32.7272 35.688 0.610
32.7477 32.677 0.583
32.7681 30.500 0.564
32.7886 25.104 0.511
32.8090 20.771 0.465
32.8295 18.479 0.439
32.8500 16.958 0.420
32.8704 15.917 0.407
32.8909 15.573 0.403
32.9114 15.563 0.403
32.9318 15.219 0.398
32.9523 14.510 0.389
32.9728 14.094 0.383
32.9932 14.063 0.383
33.0137 13.563 0.376
33.0341 13.677 0.377
33.0546 13.427 0.374
33.0751 13.229 0.371
33.0955 14.271 0.386
33.1160 14.031 0.382
33.1365 12.813 0.365
33.1569 14.031 0.382
33.1774 13.604 0.376
33.1978 13.365 0.373
33.2183 13.052 0.369
33.2388 12.854 0.366
33.2592 13.167 0.370
33.2797 13.375 0.373
33.3002 12.000 0.354
33.3206 12.313 0.358
33.3411 13.031 0.368
33.3615 12.458 0.360
33.3820 12.906 0.367
33.4025 12.583 0.362
33.4229 13.177 0.370
33.4434 13.000 0.368
33.4639 12.781 0.365
33.4843 12.313 0.358
33.5048 12.406 0.359
33.5252 12.708 0.364
33.5457 11.990 0.353
33.5662 11.698 0.349
33.5866 12.354 0.359
33.6071 11.010 0.339
33.6276 11.490 0.346
33.6480 11.615 0.348
33.6685 11.729 0.350
33.6889 11.531 0.347
33.7094 11.073 0.340
33.7299 11.938 0.353
33.7503 12.198 0.356
33.7708 11.667 0.349
33.7913 11.521 0.346
33.8117 10.896 0.337
33.8322 11.250 0.342
33.8527 11.865 0.352
33.8731 11.229 0.342
33.8936 11.750 0.350
33.9140 11.260 0.342
33.9345 12.042 0.354
33.9550 11.479 0.346
33.9754 11.635 0.348
33.9959 11.542 0.347
34.0164 11.510 0.346
34.0368 12.167 0.356
34.0573 12.073 0.355
34.0777 11.594 0.348
34.0982 12.219 0.357
34.1187 12.313 0.358
34.1391 12.135 0.356
34.1596 11.625 0.348
34.1801 12.802 0.365
34.2005 13.354 0.373
34.2210 12.281 0.358
34.2414 12.698 0.364
34.2619 12.885 0.366
34.2824 13.604 0.376
34.3028 13.375 0.373
34.3233 12.875 0.366
34.3438 12.750 0.364
34.3642 12.781 0.365
34.3847 12.313 0.358
34.4051 11.990 0.353
34.4256 11.646 0.348
34.4461 11.198 0.342
34.4665 11.010 0.339
34.4870 11.115 0.340
34.5075 11.094 0.340
34.5279 11.177 0.341
34.5484 10.688 0.334
34.5688 11.448 0.345
34.5893 11.240 0.342
34.6098 10.833 0.336
34.6302 11.302 0.343
34.6507 11.135 0.341
34.6712 10.542 0.331
34.6916 11.198 0.342
34.7121 11.219 0.342
34.7326 11.323 0.343
34.7530 11.344 0.344
34.7735 10.385 0.329
34.7939 10.667 0.333
34.8144 11.281 0.343
34.8349 11.208 0.342
34.8553 12.479 0.361
34.8758 12.510 0.361
34.8963 12.490 0.361
34.9167 12.729 0.364
34.9372 14.542 0.389
34.9576 14.479 0.388
34.9781 15.146 0.397
34.9986 15.260 0.399
35.0190 14.719 0.392
35.0395 15.010 0.395
35.0600 14.177 0.384
35.0804 13.729 0.378
35.1009 13.708 0.378
35.1213 12.875 0.366
35.1418 12.479 0.361
35.1623 12.365 0.359
35.1827 11.677 0.349
35.2032 11.552 0.347
35.2237 12.115 0.355
35.2441 11.667 0.349
35.2646 11.479 0.346
35.2850 11.781 0.350
35.3055 11.260 0.342
35.3260 11.677 0.349
35.3464 11.708 0.349
35.3669 11.438 0.345
35.3874 11.698 0.349
35.4078 11.375 0.344
35.4283 11.792 0.350
35.4487 10.927 0.337
35.4692 11.375 0.344
35.4897 11.896 0.352
35.5101 12.667 0.363
35.5306 12.167 0.356
35.5511 12.896 0.367
35.5715 12.073 0.355
35.5920 12.198 0.356
35.6125 11.875 0.352
35.6329 11.844 0.351
35.6534 12.083 0.355
35.6738 12.094 0.355
35.6943 12.500 0.361
35.7148 12.948 0.367
35.7352 12.854 0.366
35.7557 12.833 0.366
35.7762 13.927 0.381
35.7966 13.813 0.379
35.8171 14.188 0.384
35.8375 13.396 0.374
35.8580 14.260 0.385
35.8785 14.479 0.388
35.8989 15.354 0.400
35.9194 14.990 0.395
35.9399 16.406 0.413
35.9603 17.198 0.423
35.9808 17.083 0.422
36.0012 19.177 0.447
36.0217 19.292 0.448
36.0422 20.333 0.460
36.0626 20.260 0.459
36.0831 21.115 0.469
36.1036 22.177 0.481
36.1240 22.823 0.488
36.1445 23.615 0.496
36.1649 23.719 0.497
36.1854 22.990 0.489
36.2059 21.469 0.473
36.2263 21.677 0.475
36.2468 21.646 0.475
36.2673 22.385 0.483
36.2877 22.010 0.479
36.3082 21.417 0.472
36.3286 22.479 0.484
36.3491 22.281 0.482
36.3696 22.750 0.487
36.3900 24.552 0.506
36.4105 25.125 0.512
36.4310 26.042 0.521
36.4514 27.073 0.531
36.4719 28.625 0.546
36.4924 31.406 0.572
36.5128 35.417 0.607
36.5333 37.719 0.627
36.5537 42.813 0.668
36.5742 49.531 0.718
36.5947 57.188 0.772
36.6151 66.938 0.835
36.6356 72.760 0.871
36.6561 71.406 0.862
36.6765 60.198 0.792
36.6970 53.927 0.749
36.7174 52.719 0.741
36.7379 49.521 0.718
36.7584 44.667 0.682
36.7788 37.198 0.622
36.7993 32.042 0.578
36.8198 29.833 0.557
36.8402 28.833 0.548
36.8607 29.167 0.551
36.8811 29.354 0.553
36.9016 29.656 0.556
36.9221 29.573 0.555
36.9425 30.750 0.566
36.9630 32.313 0.580
36.9835 35.094 0.605
37.0039 38.979 0.637
37.0244 42.656 0.667
37.0448 48.885 0.714
37.0653 57.125 0.771
37.0858 66.771 0.834
37.1062 76.292 0.891
37.1267 87.813 0.956
37.1472 92.927 0.984
37.1676 89.021 0.963
37.1881 77.438 0.898
37.2085 68.958 0.848
37.2290 64.260 0.818
37.2495 60.792 0.796
37.2699 53.250 0.745
37.2904 43.771 0.675
37.3109 37.344 0.624
37.3313 33.458 0.590
37.3518 30.542 0.564
37.3723 28.542 0.545
37.3927 27.688 0.537
37.4132 26.333 0.524
37.4336 26.260 0.523
37.4541 24.958 0.510
37.4746 23.615 0.496
37.4950 24.427 0.504
37.5155 24.083 0.501
37.5360 24.042 0.500
37.5564 24.385 0.504
37.5769 23.740 0.497
37.5973 23.344 0.493
37.6178 23.635 0.496
37.6383 23.490 0.495
37.6587 23.031 0.490
37.6792 23.229 0.492
37.6997 23.854 0.498
37.7201 22.510 0.484
37.7406 22.677 0.486
37.7610 22.667 0.486
37.7815 22.500 0.484
37.8020 21.938 0.478
37.8224 21.354 0.472
37.8429 22.198 0.481
37.8634 22.469 0.484
37.8838 22.177 0.481
37.9043 22.271 0.482
37.9247 23.094 0.490
37.9452 22.750 0.487
37.9657 22.438 0.483
37.9861 23.885 0.499
38.0066 24.458 0.505
38.0271 26.573 0.526
38.0475 28.448 0.544
38.0680 30.448 0.563
38.0885 33.688 0.592
38.1089 35.250 0.606
38.1294 38.313 0.632
38.1498 37.781 0.627
38.1703 36.854 0.620
38.1908 33.615 0.592
38.2112 31.896 0.576
38.2317 31.135 0.569
38.2522 30.333 0.562
38.2726 28.115 0.541
38.2931 26.063 0.521
38.3135 25.323 0.514
38.3340 24.781 0.508
38.3545 25.313 0.513
38.3749 24.417 0.504
38.3954 26.698 0.527
38.4159 28.083 0.541
38.4363 29.104 0.551
38.4568 31.594 0.574
38.4772 34.344 0.598
38.4977 36.344 0.615
38.5182 36.042 0.613
38.5386 33.708 0.593
38.5591 29.781 0.557
38.5796 28.417 0.544
38.6000 27.625 0.536
38.6205 27.406 0.534
38.6409 23.823 0.498
38.6614 21.188 0.470
38.6819 20.625 0.464
38.7023 19.063 0.446
38.7228 18.188 0.435
38.7433 17.073 0.422
38.7637 17.625 0.428
38.7842 16.365 0.413
38.8046 17.260 0.424
38.8251 16.594 0.416
38.8456 17.083 0.422
38.8660 16.667 0.417
38.8865 16.229 0.411
38.9070 15.573 0.403
38.9274 15.688 0.404
38.9479 16.000 0.408
38.9684 16.146 0.410
38.9888 15.448 0.401
39.0093 15.917 0.407
39.0297 15.625 0.403
39.0502 15.719 0.405
39.0707 15.406 0.401
39.0911 17.000 0.421
39.1116 15.385 0.400
39.1321 16.417 0.414
39.1525 15.719 0.405
39.1730 15.594 0.403
39.1934 16.177 0.411
39.2139 16.271 0.412
39.2344 16.719 0.417
39.2548 16.573 0.415
39.2753 16.490 0.414
39.2958 16.406 0.413
39.3162 16.563 0.415
39.3367 16.521 0.415
39.3571 16.990 0.421
39.3776 17.604 0.428
39.3981 16.865 0.419
39.4185 16.583 0.416
39.4390 16.479 0.414
39.4595 17.073 0.422
39.4799 16.104 0.410
39.5004 16.365 0.413
39.5208 16.531 0.415
39.5413 17.083 0.422
39.5618 17.323 0.425
39.5822 17.458 0.426
39.6027 17.188 0.423
39.6232 17.229 0.424
39.6436 16.677 0.417
39.6641 17.719 0.430
39.6845 18.052 0.434
39.7050 18.688 0.441
39.7255 18.490 0.439
39.7459 19.719 0.453
39.7664 21.531 0.474
39.7869 22.958 0.489
39.8073 24.813 0.508
39.8278 26.750 0.528
39.8483 28.927 0.549
39.8687 29.052 0.550
39.8892 28.406 0.544
39.9096 25.115 0.511
39.9301 24.927 0.510
39.9506 24.698 0.507
39.9710 23.740 0.497
39.9915 21.781 0.476
40.0120 20.219 0.459
40.0324 18.292 0.437
40.0529 18.073 0.434
40.0733 17.406 0.426
40.0938 18.250 0.436
40.1143 17.729 0.430
40.1347 18.260 0.436
40.1552 18.198 0.435
40.1757 17.698 0.429
40.1961 17.938 0.432
40.2166 17.885 0.432
40.2370 17.854 0.431
40.2575 18.125 0.435
40.2780 18.177 0.435
40.2984 19.083 0.446
40.3189 19.458 0.450
40.3394 21.063 0.468
40.3598 20.573 0.463
40.3803 22.000 0.479
40.4007 23.313 0.493
40.4212 23.375 0.493
40.4417 24.042 0.500
40.4621 22.781 0.487
40.4826 21.604 0.474
40.5031 22.240 0.481
40.5235 21.927 0.478
40.5440 21.292 0.471
40.5644 20.396 0.461
40.5849 19.865 0.455
40.6054 19.104 0.446
40.6258 18.729 0.442
40.6463 18.302 0.437
40.6668 18.104 0.434
40.6872 18.125 0.435
40.7077 18.646 0.441
40.7282 18.594 0.440
40.7486 18.719 0.442
40.7691 18.469 0.439
40.7895 18.583 0.440
40.8100 18.719 0.442
40.8305 20.521 0.462
40.8509 19.656 0.452
40.8714 20.125 0.458
40.8919 19.104 0.446
40.9123 17.979 0.433
40.9328 19.146 0.447
40.9532 18.135 0.435
40.9737 18.375 0.438
40.9942 17.354 0.425
41.0146 17.406 0.426
41.0351 17.719 0.430
41.0556 18.302 0.437
41.0760 17.521 0.427
41.0965 18.656 0.441
41.1169 19.063 0.446
41.1374 20.823 0.466
41.1579 22.271 0.482
41.1783 23.708 0.497
41.1988 27.292 0.533
41.2193 29.354 0.553
41.2397 32.052 0.578
41.2602 34.063 0.596
41.2806 32.677 0.583
41.3011 30.365 0.562
41.3216 28.854 0.548
41.3420 26.958 0.530
41.3625 26.604 0.526
41.3830 25.125 0.512
41.4034 23.073 0.490
41.4239 20.490 0.462
41.4443 18.958 0.444
41.4648 17.729 0.430
41.4853 17.427 0.426
41.5057 17.177 0.423
41.5262 16.469 0.414
41.5467 16.031 0.409
41.5671 15.760 0.405
41.5876 15.198 0.398
41.6081 15.375 0.400
41.6285 15.229 0.398
41.6490 14.979 0.395
41.6694 14.875 0.394
41.6899 14.688 0.391
41.7104 14.427 0.388
41.7308 15.563 0.403
41.7513 14.667 0.391
41.7718 14.385 0.387
41.7922 14.719 0.392
41.8127 14.792 0.393
41.8331 14.573 0.390
41.8536 15.156 0.397
41.8741 15.323 0.400
41.8945 15.521 0.402
41.9150 15.448 0.401
41.9355 15.521 0.402
41.9559 15.479 0.402
41.9764 15.646 0.404
41.9968 14.802 0.393
42.0173 14.958 0.395
42.0378 15.031 0.396
42.0582 14.844 0.393
42.0787 14.177 0.384
42.0992 14.188 0.384
42.1196 14.281 0.386
42.1401 13.979 0.382
42.1605 14.021 0.382
42.1810 13.188 0.371
42.2015 13.000 0.368
42.2219 12.646 0.363
42.2424 13.792 0.379
42.2629 13.750 0.378
42.2833 14.094 0.383
42.3038 14.604 0.390
42.3243 13.240 0.371
42.3447 13.792 0.379
42.3652 13.667 0.377
42.3856 13.427 0.374
42.4061 13.073 0.369
42.4266 13.927 0.381
42.4470 13.781 0.379
42.4675 13.813 0.379
42.4880 14.781 0.392
42.5084 15.198 0.398
42.5289 15.271 0.399
42.5493 15.531 0.402
42.5698 15.188 0.398
42.5903 15.510 0.402
42.6107 14.760 0.392
42.6312 15.604 0.403
42.6517 15.198 0.398
42.6721 15.271 0.399
42.6926 14.302 0.386
42.7130 14.198 0.385
42.7335 14.375 0.387
42.7540 13.990 0.382
42.7744 13.854 0.380
42.7949 14.625 0.390
42.8154 13.052 0.369
42.8358 13.948 0.381
42.8563 13.531 0.375
42.8767 13.771 0.379
42.8972 14.135 0.384
42.9177 13.354 0.373
42.9381 13.896 0.380
42.9586 13.656 0.377
42.9791 13.573 0.376
42.9995 13.802 0.379
43.0200 13.354 0.373
43.0404 14.104 0.383
43.0609 14.979 0.395
43.0814 15.125 0.397
43.1018 15.438 0.401
43.1223 15.760 0.405
43.1428 15.771 0.405
43.1632 17.427 0.426
43.1837 17.531 0.427
43.2042 17.906 0.432
43.2246 19.073 0.446
43.2451 20.573 0.463
43.2655 21.563 0.474
43.2860 22.656 0.486
43.3065 22.469 0.484
43.3269 22.073 0.480
43.3474 21.094 0.469
43.3679 21.115 0.469
43.3883 21.156 0.469
43.4088 21.417 0.472
43.4292 21.719 0.476
43.4497 21.281 0.471
43.4702 21.167 0.470
43.4906 21.229 0.470
43.5111 21.698 0.475
43.5316 22.719 0.486
43.5520 24.365 0.504
43.5725 25.844 0.519
43.5929 26.969 0.530
43.6134 30.219 0.561
43.6339 32.792 0.584
43.6543 37.625 0.626
43.6748 41.646 0.659
43.6953 45.760 0.690
43.7157 52.635 0.740
43.7362 55.625 0.761
43.7566 52.438 0.739
43.7771 45.625 0.689
43.7976 42.979 0.669
43.8180 39.375 0.640
43.8385 39.292 0.640
43.8590 36.260 0.615
43.8794 33.396 0.590
43.8999 28.813 0.548
43.9203 25.667 0.517
43.9408 23.438 0.494
43.9613 21.948 0.478
43.9817 20.083 0.457
44.0022 19.490 0.451
44.0227 19.000 0.445
44.0431 18.771 0.442
44.0636 18.865 0.443
44.0841 17.979 0.433
44.1045 16.948 0.420
44.1250 17.177 0.423
44.1454 16.677 0.417
44.1659 16.625 0.416
44.1864 16.542 0.415
44.2068 16.833 0.419
44.2273 15.906 0.407
44.2478 15.781 0.405
44.2682 16.063 0.409
44.2887 16.156 0.410
44.3091 16.333 0.412
44.3296 15.771 0.405
44.3501 15.073 0.396
44.3705 15.635 0.404
44.3910 15.813 0.406
44.4115 15.240 0.398
44.4319 14.927 0.394
44.4524 15.094 0.397
44.4728 15.240 0.398
44.4933 15.104 0.397
44.5138 14.969 0.395
44.5342 14.438 0.388
44.5547 14.771 0.392
44.5752 14.802 0.393
44.5956 15.521 0.402
44.6161 15.031 0.396
44.6365 14.635 0.390
44.6570 13.677 0.377
44.6775 15.156 0.397
44.6979 14.750 0.392
44.7184 14.260 0.385
44.7389 15.000 0.395
44.7593 14.490 0.389
44.7798 13.833 0.380
44.8002 13.990 0.382
44.8207 14.104 0.383
44.8412 14.615 0.390
44.8616 14.667 0.391
44.8821 13.823 0.379
44.9026 14.448 0.388
44.9230 14.917 0.394
44.9435 14.292 0.386
44.9640 14.875 0.394
44.9844 14.219 0.385
45.0049 14.365 0.387
45.0253 15.083 0.396
45.0458 15.229 0.398
45.0663 15.281 0.399
45.0867 14.771 0.392
45.1072 15.260 0.399
45.1277 16.000 0.408
45.1481 15.563 0.403
45.1686 15.542 0.402
45.1890 16.917 0.420
45.2095 18.469 0.439
45.2300 19.198 0.447
45.2504 20.667 0.464
45.2709 22.188 0.481
45.2914 22.813 0.487
45.3118 24.042 0.500
45.3323 26.250 0.523
45.3527 26.260 0.523
45.3732 23.979 0.500
45.3937 22.615 0.485
45.4141 21.813 0.477
45.4346 21.292 0.471
45.4551 20.667 0.464
45.4755 19.760 0.454
45.4960 18.125 0.435
45.5164 17.552 0.428
45.5369 16.177 0.411
45.5574 15.667 0.404
45.5778 15.021 0.396
45.5983 14.823 0.393
45.6188 14.479 0.388
45.6392 14.000 0.382
45.6597 14.552 0.389
45.6801 14.479 0.388
45.7006 13.833 0.380
45.7211 13.698 0.378
45.7415 13.281 0.372
45.7620 12.792 0.365
45.7825 12.979 0.368
45.8029 13.750 0.378
45.8234 13.865 0.380
45.8439 12.813 0.365
45.8643 13.771 0.379
45.8848 13.594 0.376
45.9052 13.469 0.375
45.9257 13.208 0.371
45.9462 12.510 0.361
45.9666 13.375 0.373
45.9871 12.792 0.365
46.0076 12.135 0.356
46.0280 12.156 0.356
46.0485 12.729 0.364
46.0689 12.531 0.361
46.0894 11.990 0.353
46.1099 12.177 0.356
46.1303 12.104 0.355
46.1508 12.417 0.360
46.1713 12.646 0.363
46.1917 12.646 0.363
46.2122 11.677 0.349
46.2326 12.021 0.354
46.2531 11.875 0.352
46.2736 12.271 0.358
46.2940 12.125 0.355
46.3145 11.531 0.347
46.3350 12.271 0.358
46.3554 11.792 0.350
46.3759 12.531 0.361
46.3963 11.958 0.353
46.4168 12.417 0.360
46.4373 11.844 0.351
46.4577 11.521 0.346
46.4782 11.563 0.347
46.4987 12.167 0.356
46.5191 11.938 0.353
46.5396 12.802 0.365
46.5601 11.833 0.351
46.5805 12.615 0.362
46.6010 12.219 0.357
46.6214 12.656 0.363
46.6419 13.094 0.369
46.6624 12.531 0.361
46.6828 12.708 0.364
46.7033 12.427 0.360
46.7238 12.719 0.364
46.7442 12.156 0.356
46.7647 12.281 0.358
46.7851 12.979 0.368
46.8056 12.771 0.365
46.8261 12.396 0.359
46.8465 11.948 0.353
46.8670 12.677 0.363
46.8875 11.427 0.345
46.9079 12.125 0.355
46.9284 12.188 0.356
46.9488 11.760 0.350
46.9693 11.833 0.351
46.9898 12.260 0.357
47.0102 12.469 0.360
47.0307 11.177 0.341
47.0512 12.313 0.358
47.0716 11.469 0.346
47.0921 11.698 0.349
47.1125 11.958 0.353
47.1330 12.854 0.366
47.1535 12.365 0.359
47.1739 12.854 0.366
47.1944 13.365 0.373
47.2149 12.500 0.361
47.2353 12.760 0.365
47.2558 13.417 0.374
47.2762 12.219 0.357
47.2967 12.906 0.367
47.3172 13.094 0.369
47.3376 13.448 0.374
47.3581 13.063 0.369
47.3786 13.146 0.370
47.3990 12.552 0.362
47.4195 13.125 0.370
47.4400 13.135 0.370
47.4604 13.896 0.380
47.4809 13.604 0.376
47.5013 13.604 0.376
47.5218 13.375 0.373
47.5423 13.583 0.376
47.5627 13.865 0.380
47.5832 14.656 0.391
47.6037 14.531 0.389
47.6241 15.083 0.396
47.6446 16.042 0.409
47.6650 17.104 0.422
47.6855 18.552 0.440
47.7060 19.281 0.448
47.7264 21.594 0.474
47.7469 22.198 0.481
47.7674 23.125 0.491
47.7878 21.938 0.478
47.8083 21.042 0.468
47.8287 18.635 0.441
47.8492 18.427 0.438
47.8697 18.833 0.443
47.8901 18.927 0.444
47.9106 16.760 0.418
47.9311 15.688 0.404
47.9515 14.052 0.383
47.9720 13.813 0.379
47.9924 13.427 0.374
48.0129 12.448 0.360
48.0334 12.615 0.362
48.0538 12.427 0.360
48.0743 12.604 0.362
48.0948 12.000 0.354
48.1152 11.615 0.348
48.1357 11.875 0.352
48.1561 12.406 0.359
48.1766 12.490 0.361
48.1971 12.365 0.359
48.2175 12.313 0.358
48.2380 12.615 0.362
48.2585 12.188 0.356
48.2789 13.479 0.375
48.2994 14.010 0.382
48.3199 15.052 0.396
48.3403 15.406 0.401
48.3608 15.979 0.408
48.3812 15.969 0.408
48.4017 15.500 0.402
48.4222 15.010 0.395
48.4426 15.281 0.399
48.4631 14.771 0.392
48.4836 14.302 0.386
48.5040 14.375 0.387
48.5245 13.917 0.381
48.5449 13.833 0.380
48.5654 13.542 0.376
48.5859 12.979 0.368
48.6063 12.552 0.362
48.6268 13.146 0.370
48.6473 13.740 0.378
48.6677 13.990 0.382
48.6882 14.302 0.386
48.7086 15.510 0.402
48.7291 15.677 0.404
48.7496 16.052 0.409
48.7700 16.490 0.414
48.7905 15.313 0.399
48.8110 14.594 0.390
48.8314 14.156 0.384
48.8519 14.094 0.383
48.8723 14.240 0.385
48.8928 14.365 0.387
48.9133 13.156 0.370
48.9337 13.156 0.370
48.9542 12.448 0.360
48.9747 11.635 0.348
48.9951 11.708 0.349
49.0156 11.667 0.349
49.0360 11.969 0.353
49.0565 11.708 0.349
49.0770 11.240 0.342
49.0974 12.396 0.359
49.1179 11.823 0.351
49.1384 11.677 0.349
49.1588 11.813 0.351
49.1793 11.531 0.347
49.1998 12.427 0.360
49.2202 12.490 0.361
49.2407 11.958 0.353
49.2611 11.760 0.350
49.2816 12.240 0.357
49.3021 12.365 0.359
49.3225 12.302 0.358
49.3430 12.385 0.359
49.3635 12.240 0.357
49.3839 12.385 0.359
49.4044 12.781 0.365
49.4248 12.385 0.359
49.4453 12.750 0.364
49.4658 12.583 0.362
49.4862 12.823 0.365
49.5067 13.167 0.370
49.5272 13.156 0.370
49.5476 13.458 0.374
49.5681 13.552 0.376
49.5885 12.969 0.368
49.6090 13.396 0.374
49.6295 13.427 0.374
49.6499 13.979 0.382
49.6704 13.667 0.377
49.6909 13.552 0.376
49.7113 14.865 0.393
49.7318 15.083 0.396
49.7522 16.156 0.410
49.7727 17.146 0.423
49.7932 18.042 0.434
49.8136 19.667 0.453
49.8341 21.365 0.472
49.8546 23.354 0.493
49.8750 26.448 0.525
49.8955 29.521 0.555
49.9159 32.417 0.581
49.9364 36.323 0.615
49.9569 37.646 0.626
49.9773 36.823 0.619
49.9978 33.906 0.594
50.0183 29.708 0.556
50.0387 28.667 0.546
50.0592 27.875 0.539
50.0797 28.240 0.542
50.1001 27.781 0.538
50.1206 25.906 0.519
50.1410 23.417 0.494
50.1615 22.260 0.482
50.1820 21.385 0.472
50.2024 21.177 0.470
50.2229 21.333 0.471
50.2434 22.031 0.479
50.2638 21.552 0.474
50.2843 19.875 0.455
50.3047 18.396 0.438
50.3252 17.219 0.424
50.3457 17.271 0.424
50.3661 17.000 0.421
50.3866 17.188 0.423
50.4071 15.750 0.405
50.4275 14.490 0.389
50.4480 13.646 0.377
50.4684 13.198 0.371
50.4889 13.073 0.369
50.5094 13.406 0.374
50.5298 12.823 0.365
50.5503 12.688 0.364
50.5708 12.469 0.360
50.5912 11.958 0.353
50.6117 12.094 0.355
50.6321 12.469 0.360
50.6526 12.083 0.355
50.6731 11.719 0.349
50.6935 12.135 0.356
50.7140 12.063 0.354
50.7345 11.281 0.343
50.7549 11.792 0.350
50.7754 12.229 0.357
50.7959 12.031 0.354
50.8163 11.531 0.347
50.8368 12.146 0.356
50.8572 11.552 0.347
50.8777 11.531 0.347
50.8982 11.448 0.345
50.9186 11.938 0.353
50.9391 11.958 0.353
50.9596 12.177 0.356
50.9800 12.625 0.363
51.0005 11.760 0.350
51.0209 11.938 0.353
51.0414 11.906 0.352
51.0619 12.031 0.354
51.0823 12.531 0.361
51.1028 13.188 0.371
51.1233 13.542 0.376
51.1437 13.313 0.372
51.1642 14.229 0.385
51.1846 14.469 0.388
51.2051 14.115 0.383
51.2256 13.063 0.369
51.2460 13.365 0.373
51.2665 13.990 0.382
51.2870 14.167 0.384
51.3074 14.646 0.391
51.3279 15.302 0.399
51.3483 13.885 0.380
51.3688 15.052 0.396
51.3893 14.021 0.382
51.4097 13.469 0.375
51.4302 12.771 0.365
51.4507 12.990 0.368
51.4711 12.844 0.366
51.4916 12.698 0.364
51.5120 13.281 0.372
51.5325 12.625 0.363
51.5530 12.271 0.358
51.5734 12.635 0.363
51.5939 12.604 0.362
51.6144 12.698 0.364
51.6348 12.448 0.360
51.6553 11.563 0.347
51.6758 12.802 0.365
51.6962 12.427 0.360
51.7167 13.250 0.372
51.7371 13.542 0.376
51.7576 14.802 0.393
51.7781 15.260 0.399
51.7985 14.708 0.391
51.8190 15.146 0.397
51.8395 15.313 0.399
51.8599 14.604 0.390
51.8804 15.021 0.396
51.9008 14.042 0.382
51.9213 13.313 0.372
51.9418 14.229 0.385
51.9622 13.563 0.376
51.9827 13.625 0.377
52.0032 13.823 0.379
52.0236 12.698 0.364
52.0441 12.188 0.356
52.0645 12.177 0.356
52.0850 11.260 0.342
52.1055 11.573 0.347
52.1259 12.125 0.355
52.1464 11.698 0.349
52.1669 11.375 0.344
52.1873 11.385 0.344
52.2078 11.625 0.348
52.2282 10.938 0.338
52.2487 11.323 0.343
52.2692 11.354 0.344
52.2896 11.521 0.346
52.3101 11.271 0.343
52.3306 11.000 0.339
52.3510 11.719 0.349
52.3715 11.458 0.345
52.3919 11.177 0.341
52.4124 11.438 0.345
52.4329 11.740 0.350
52.4533 12.156 0.356
52.4738 12.188 0.356
52.4943 12.219 0.357
52.5147 11.958 0.353
52.5352 12.125 0.355
52.5557 11.885 0.352
52.5761 11.781 0.350
52.5966 11.479 0.346
52.6170 11.135 0.341
52.6375 11.542 0.347
52.6580 10.667 0.333
52.6784 11.063 0.339
52.6989 11.271 0.343
52.7194 10.354 0.328
52.7398 9.875 0.321
52.7603 10.729 0.334
52.7807 10.677 0.333
52.8012 10.927 0.337
52.8217 10.240 0.327
52.8421 10.125 0.325
52.8626 9.896 0.321
52.8831 10.229 0.326
52.9035 10.729 0.334
52.9240 9.823 0.320
52.9444 10.458 0.330
52.9649 10.438 0.330
52.9854 10.521 0.331
53.0058 10.115 0.325
53.0263 9.958 0.322
53.0468 10.406 0.329
53.0672 10.448 0.330
53.0877 10.760 0.335
53.1081 10.771 0.335
53.1286 10.802 0.335
53.1491 10.708 0.334
53.1695 10.167 0.325
53.1900 11.021 0.339
53.2105 10.281 0.327
53.2309 10.417 0.329
53.2514 10.583 0.332
53.2718 9.854 0.320
53.2923 10.354 0.328
53.3128 9.365 0.312
53.3332 10.417 0.329
53.3537 10.208 0.326
53.3742 10.021 0.323
53.3946 9.635 0.317
53.4151 10.021 0.323
53.4356 9.521 0.315
53.4560 9.250 0.310
53.4765 9.240 0.310
53.4969 9.677 0.317
53.5174 9.469 0.314
53.5379 9.875 0.321
53.5583 9.438 0.314
53.5788 9.719 0.318
53.5993 9.385 0.313
53.6197 9.646 0.317
53.6402 10.229 0.326
53.6606 9.188 0.309
53.6811 9.396 0.313
53.7016 9.656 0.317
53.7220 9.490 0.314
53.7425 9.313 0.311
53.7630 9.323 0.312
53.7834 9.542 0.315
53.8039 9.552 0.315
53.8243 9.823 0.320
53.8448 9.760 0.319
53.8653 10.229 0.326
53.8857 9.323 0.312
53.9062 9.500 0.315
53.9267 9.938 0.322
53.9471 9.479 0.314
53.9676 9.573 0.316
53.9880 9.542 0.315
54.0085 9.833 0.320
54.0290 9.760 0.319
54.0494 9.927 0.322
54.0699 10.771 0.335
54.0904 10.219 0.326
54.1108 10.646 0.333
54.1313 11.052 0.339
54.1517 11.094 0.340
54.1722 11.969 0.353
54.1927 12.208 0.357
54.2131 12.135 0.356
54.2336 12.063 0.354
54.2541 12.115 0.355
54.2745 11.385 0.344
54.2950 11.313 0.343
54.3155 10.990 0.338
54.3359 10.990 0.338
54.3564 10.677 0.333
54.3768 11.250 0.342
54.3973 11.354 0.344
54.4178 10.760 0.335
54.4382 10.438 0.330
54.4587 9.990 0.323
54.4792 9.729 0.318
54.4996 9.917 0.321
54.5201 9.885 0.321
54.5405 9.365 0.312
54.5610 9.990 0.323
54.5815 10.625 0.333
54.6019 10.010 0.323
54.6224 10.427 0.330
54.6429 9.698 0.318
54.6633 9.823 0.320
54.6838 9.542 0.315
54.7042 9.906 0.321
54.7247 10.021 0.323
54.7452 9.833 0.320
54.7656 10.167 0.325
54.7861 9.490 0.314
54.8066 9.698 0.318
54.8270 9.531 0.315
54.8475 9.688 0.318
54.8679 10.146 0.325
54.8884 9.708 0.318
54.9089 10.177 0.326
54.9293 10.438 0.330
54.9498 10.146 0.325
54.9703 10.125 0.325
54.9907 11.313 0.343
55.0112 11.729 0.350
55.0317 12.760 0.365
55.0521 13.417 0.374
55.0726 15.698 0.404
55.0930 17.042 0.421
55.1135 19.010 0.445
55.1340 23.135 0.491
55.1544 27.073 0.531
55.1749 31.281 0.571
55.1954 36.677 0.618
55.2158 39.573 0.642
55.2363 39.688 0.643
55.2567 33.302 0.589
55.2772 28.646 0.546
55.2977 26.677 0.527
55.3181 26.292 0.523
55.3386 26.146 0.522
55.3591 27.344 0.534
55.3795 27.302 0.533
55.4000 23.896 0.499
55.4204 20.333 0.460
55.4409 16.802 0.418
55.4614 15.604 0.403
55.4818 13.948 0.381
55.5023 13.323 0.373
55.5228 12.938 0.367
55.5432 11.667 0.349
55.5637 12.000 0.354
55.5841 11.542 0.347
55.6046 12.094 0.355
55.6251 11.417 0.345
55.6455 12.125 0.355
55.6660 11.365 0.344
55.6865 11.396 0.345
55.7069 11.583 0.347
55.7274 11.688 0.349
55.7478 12.448 0.360
55.7683 12.010 0.354
55.7888 12.198 0.356
55.8092 12.146 0.356
55.8297 12.833 0.366
55.8502 12.927 0.367
55.8706 12.583 0.362
55.8911 12.667 0.363
55.9116 14.323 0.386
55.9320 15.083 0.396
55.9525 15.729 0.405
55.9729 14.771 0.392
55.9934 14.344 0.387
56.0139 13.802 0.379
56.0343 14.208 0.385
56.0548 14.823 0.393
56.0753 15.031 0.396
56.0957 16.188 0.411
56.1162 16.365 0.413
56.1366 16.979 0.421
56.1571 17.010 0.421
56.1776 19.365 0.449
56.1980 21.156 0.469
56.2185 24.156 0.502
56.2390 25.615 0.517
56.2594 25.323 0.514
56.2799 23.604 0.496
56.3003 20.667 0.464
56.3208 18.281 0.436
56.3413 16.979 0.421
56.3617 17.333 0.425
56.3822 17.823 0.431
56.4027 18.115 0.434
56.4231 16.656 0.417
56.4436 14.781 0.392
56.4640 13.021 0.368
56.4845 12.177 0.356
56.5050 10.760 0.335
56.5254 10.188 0.326
56.5459 10.698 0.334
56.5664 9.188 0.309
56.5868 9.427 0.313
56.6073 9.573 0.316
56.6277 9.938 0.322
56.6482 9.802 0.320
56.6687 8.896 0.304
56.6891 9.750 0.319
56.7096 9.573 0.316
56.7301 8.969 0.306
56.7505 9.865 0.321
56.7710 9.375 0.313
56.7915 9.135 0.308
56.8119 9.510 0.315
56.8324 9.115 0.308
56.8528 8.552 0.298
56.8733 9.438 0.314
56.8938 8.906 0.305
56.9142 9.479 0.314
56.9347 9.438 0.314
56.9552 8.729 0.302
56.9756 8.406 0.296
56.9961 8.490 0.297
57.0165 8.281 0.294
57.0370 9.104 0.308
57.0575 8.531 0.298
57.0779 8.958 0.305
57.0984 9.135 0.308
57.1189 9.260 0.311
57.1393 8.802 0.303
57.1598 9.260 0.311
57.1802 9.031 0.307
57.2007 8.875 0.304
57.2212 9.365 0.312
57.2416 8.854 0.304
57.2621 8.875 0.304
57.2826 9.000 0.306
57.3030 8.750 0.302
57.3235 9.083 0.308
57.3439 8.573 0.299
57.3644 8.958 0.305
57.3849 9.021 0.307
57.4053 9.156 0.309
57.4258 9.229 0.310
57.4463 9.583 0.316
57.4667 9.177 0.309
57.4872 9.604 0.316
57.5076 9.240 0.310
57.5281 9.521 0.315
57.5486 9.375 0.313
57.5690 9.333 0.312
57.5895 9.365 0.312
57.6100 9.719 0.318
57.6304 9.604 0.316
57.6509 9.344 0.312
57.6714 9.667 0.317
57.6918 9.344 0.312
57.7123 8.948 0.305
57.7327 9.219 0.310
57.7532 9.625 0.317
57.7737 9.563 0.316
57.7941 9.760 0.319
57.8146 10.208 0.326
57.8351 10.115 0.325
57.8555 10.354 0.328
57.8760 9.969 0.322
57.8964 10.552 0.332
57.9169 11.885 0.352
57.9374 12.292 0.358
57.9578 13.010 0.368
57.9783 13.948 0.381
57.9988 14.677 0.391
58.0192 15.938 0.407
58.0397 16.458 0.414
58.0601 17.302 0.425
58.0806 18.448 0.438
58.1011 18.198 0.435
58.1215 17.406 0.426
58.1420 16.208 0.411
58.1625 16.792 0.418
58.1829 14.938 0.394
58.2034 15.229 0.398
58.2238 15.219 0.398
58.2443 14.396 0.387
58.2648 13.573 0.376
58.2852 12.667 0.363
58.3057 12.354 0.359
58.3262 11.146 0.341
58.3466 11.167 0.341
58.3671 10.854 0.336
58.3875 10.427 0.330
58.4080 9.938 0.322
58.4285 10.000 0.323
58.4489 10.375 0.329
58.4694 9.677 0.317
58.4899 9.385 0.313
58.5103 10.063 0.324
58.5308 9.885 0.321
58.5513 9.542 0.315
58.5717 9.615 0.316
58.5922 9.729 0.318
58.6126 9.750 0.319
58.6331 9.917 0.321
58.6536 9.969 0.322
58.6740 9.344 0.312
58.6945 9.240 0.310
58.7150 9.729 0.318
58.7354 9.219 0.310
58.7559 9.625 0.317
58.7763 9.458 0.314
58.7968 9.094 0.308
58.8173 8.802 0.303
58.8377 9.052 0.307
58.8582 9.021 0.307
58.8787 8.813 0.303
58.8991 8.906 0.305
58.9196 9.125 0.308
58.9400 9.177 0.309
58.9605 9.021 0.307
58.9810 9.271 0.311
59.0014 9.552 0.315
59.0219 10.094 0.324
59.0424 9.833 0.320
59.0628 9.521 0.315
59.0833 10.521 0.331
59.1037 11.021 0.339
59.1242 10.750 0.335
59.1447 11.177 0.341
59.1651 12.094 0.355
59.1856 12.615 0.362
59.2061 13.375 0.373
59.2265 14.583 0.390
59.2470 14.833 0.393
59.2675 16.510 0.415
59.2879 16.313 0.412
59.3084 15.885 0.407
59.3288 14.333 0.386
59.3493 13.729 0.378
59.3698 12.604 0.362
59.3902 12.938 0.367
59.4107 12.323 0.358
59.4312 13.385 0.373
59.4516 12.385 0.359
59.4721 11.417 0.345
59.4925 10.625 0.333
59.5130 10.438 0.330
59.5335 9.802 0.320
59.5539 9.604 0.316
59.5744 8.885 0.304
59.5949 8.875 0.304
59.6153 9.115 0.308
59.6358 8.771 0.302
59.6562 8.104 0.291
59.6767 8.604 0.299
59.6972 8.688 0.301
59.7176 8.792 0.303
59.7381 9.156 0.309
59.7586 9.021 0.307
59.7790 8.771 0.302
59.7995 9.438 0.314
59.8199 9.781 0.319
59.8404 9.396 0.313
59.8609 10.250 0.327
59.8813 11.635 0.348
59.9018 11.833 0.351
59.9223 13.250 0.372
59.9427 13.917 0.381
59.9632 14.469 0.388
59.9836 16.021 0.409
60.0041 14.990 0.395
60.0246 13.771 0.379
60.0450 12.510 0.361
60.0655 12.365 0.359
60.0860 12.667 0.363
60.1064 12.542 0.361
60.1269 12.156 0.356
60.1474 13.052 0.369
60.1678 12.229 0.357
60.1883 12.104 0.355
60.2087 10.177 0.326
60.2292 10.073 0.324
60.2497 8.500 0.298
60.2701 8.479 0.297
60.2906 8.844 0.304
60.3111 8.750 0.302
60.3315 8.448 0.297
60.3520 8.813 0.303
60.3724 8.417 0.296
60.3929 7.802 0.285
60.4134 7.490 0.279
60.4338 7.875 0.286
60.4543 7.302 0.276
60.4748 8.021 0.289
60.4952 7.698 0.283
60.5157 8.010 0.289
60.5361 8.354 0.295
60.5566 8.115 0.291
60.5771 7.813 0.285
60.5975 8.146 0.291
60.6180 7.750 0.284
60.6385 7.948 0.288
60.6589 7.448 0.279
60.6794 7.625 0.282
60.6998 7.844 0.286
60.7203 7.688 0.283
60.7408 7.448 0.279
60.7612 7.625 0.282
60.7817 7.948 0.288
60.8022 7.833 0.286
60.8226 7.594 0.281
60.8431 7.823 0.285
60.8635 7.521 0.280
60.8840 7.781 0.285
60.9045 8.042 0.289
60.9249 7.979 0.288
60.9454 7.865 0.286
60.9659 7.906 0.287
60.9863 7.510 0.280
61.0068 8.323 0.294
61.0273 8.188 0.292
61.0477 8.729 0.302
61.0682 8.198 0.292
61.0886 8.125 0.291
61.1091 7.604 0.281
61.1296 7.958 0.288
61.1500 7.750 0.284
61.1705 7.698 0.283
61.1910 8.083 0.290
61.2114 7.760 0.284
61.2319 7.333 0.276
61.2523 7.552 0.280
61.2728 7.510 0.280
61.2933 7.521 0.280
61.3137 7.854 0.286
61.3342 7.656 0.282
61.3547 7.302 0.276
61.3751 7.656 0.282
61.3956 7.969 0.288
61.4160 7.198 0.274
61.4365 7.156 0.273
61.4570 7.500 0.280
61.4774 7.302 0.276
61.4979 8.000 0.289
61.5184 7.458 0.279
61.5388 7.083 0.272
61.5593 7.875 0.286
61.5797 7.708 0.283
61.6002 7.469 0.279
61.6207 7.542 0.280
61.6411 7.625 0.282
61.6616 7.375 0.277
61.6821 7.969 0.288
61.7025 7.979 0.288
61.7230 7.635 0.282
61.7434 7.229 0.274
61.7639 7.021 0.270
61.7844 7.573 0.281
61.8048 7.333 0.276
61.8253 7.833 0.286
61.8458 7.750 0.284
61.8662 8.083 0.290
61.8867 7.354 0.277
61.9072 7.656 0.282
61.9276 7.479 0.279
61.9481 7.719 0.284
61.9685 7.594 0.281
61.9890 7.646 0.282
62.0095 7.542 0.280
62.0299 7.865 0.286
62.0504 7.698 0.283
62.0709 7.583 0.281
62.0913 8.302 0.294
62.1118 8.500 0.298
62.1322 8.281 0.294
62.1527 8.875 0.304
62.1732 8.875 0.304
62.1936 9.219 0.310
62.2141 9.302 0.311
62.2346 9.802 0.320
62.2550 10.500 0.331
62.2755 10.229 0.326
62.2959 9.729 0.318
62.3164 9.469 0.314
62.3369 8.813 0.303
62.3573 9.073 0.307
62.3778 8.510 0.298
62.3983 9.448 0.314
62.4187 8.604 0.299
62.4392 9.219 0.310
62.4596 8.781 0.302
62.4801 8.542 0.298
62.5006 7.823 0.285
62.5210 7.917 0.287
62.5415 7.813 0.285
62.5620 7.219 0.274
62.5824 7.427 0.278
62.6029 7.240 0.275
62.6233 7.188 0.274
62.6438 6.771 0.266
62.6643 7.646 0.282
62.6847 6.771 0.266
62.7052 7.563 0.281
62.7257 6.958 0.269
62.7461 6.958 0.269
62.7666 6.740 0.265
62.7871 7.365 0.277
62.8075 7.354 0.277
62.8280 7.292 0.276
62.8484 6.781 0.266
62.8689 7.104 0.272
62.8894 6.917 0.268
62.9098 7.271 0.275
62.9303 7.167 0.273
62.9508 6.917 0.268
62.9712 7.750 0.284
62.9917 7.104 0.272
63.0121 7.448 0.279
63.0326 7.271 0.275
63.0531 6.760 0.265
63.0735 6.969 0.269
63.0940 6.938 0.269
63.1145 6.948 0.269
63.1349 7.250 0.275
63.1554 7.385 0.277
63.1758 7.042 0.271
63.1963 7.375 0.277
63.2168 7.781 0.285
63.2372 7.688 0.283
63.2577 7.208 0.274
63.2782 7.875 0.286
63.2986 7.646 0.282
63.3191 7.906 0.287
63.3395 7.656 0.282
63.3600 7.594 0.281
63.3805 7.500 0.280
63.4009 8.260 0.293
63.4214 8.542 0.298
63.4419 8.448 0.297
63.4623 8.125 0.291
63.4828 9.052 0.307
63.5033 8.219 0.293
63.5237 8.458 0.297
63.5442 8.469 0.297
63.5646 8.167 0.292
63.5851 9.104 0.308
63.6056 8.927 0.305
63.6260 9.313 0.311
63.6465 9.469 0.314
63.6670 10.073 0.324
63.6874 10.688 0.334
63.7079 10.115 0.325
63.7283 10.313 0.328
63.7488 9.875 0.321
63.7693 9.969 0.322
63.7897 10.115 0.325
63.8102 9.969 0.322
63.8307 9.979 0.322
63.8511 10.375 0.329
63.8716 10.177 0.326
63.8920 10.000 0.323
63.9125 10.458 0.330
63.9330 10.698 0.334
63.9534 9.938 0.322
63.9739 10.010 0.323
63.9944 10.302 0.328
64.0148 10.000 0.323
64.0353 10.146 0.325
64.0557 10.208 0.326
64.0762 10.229 0.326
64.0967 11.042 0.339
64.1171 10.688 0.334
64.1376 10.729 0.334
64.1581 10.500 0.331
64.1785 10.552 0.332
64.1990 10.146 0.325
64.2194 9.490 0.314
64.2399 9.917 0.321
64.2604 9.917 0.321
64.2808 9.865 0.321
64.3013 9.448 0.314
64.3218 10.438 0.330
64.3422 9.927 0.322
64.3627 9.292 0.311
64.3832 9.646 0.317
64.4036 9.948 0.322
64.4241 10.281 0.327
64.4445 9.823 0.320
64.4650 9.969 0.322
64.4855 10.458 0.330
64.5059 10.271 0.327
64.5264 10.667 0.333
64.5469 11.417 0.345
64.5673 10.729 0.334
64.5878 12.135 0.356
64.6082 13.052 0.369
64.6287 14.365 0.387
64.6492 15.396 0.400
64.6696 17.156 0.423
64.6901 17.625 0.428
64.7106 18.323 0.437
64.7310 16.896 0.420
64.7515 15.208 0.398
64.7719 14.094 0.383
64.7924 13.073 0.369
64.8129 13.469 0.375
64.8333 12.802 0.365
64.8538 14.021 0.382
64.8743 13.990 0.382
64.8947 13.250 0.372
64.9152 13.010 0.368
64.9356 11.042 0.339
64.9561 10.313 0.328
64.9766 10.021 0.323
64.9970 9.521 0.315
65.0175 9.604 0.316
65.0380 8.594 0.299
65.0584 8.167 0.292
65.0789 8.615 0.300
65.0993 8.229 0.293
65.1198 8.188 0.292
65.1403 8.115 0.291
65.1607 7.833 0.286
65.1812 7.917 0.287
65.2017 7.927 0.287
65.2221 7.667 0.283
65.2426 7.990 0.288
65.2631 8.260 0.293
65.2835 8.083 0.290
65.3040 8.302 0.294
65.3244 7.844 0.286
65.3449 7.896 0.287
65.3654 7.927 0.287
65.3858 8.594 0.299
65.4063 8.000 0.289
65.4268 8.052 0.290
65.4472 8.406 0.296
65.4677 8.521 0.298
65.4881 8.260 0.293
65.5086 8.438 0.296
65.5291 8.781 0.302
65.5495 9.167 0.309
65.5700 9.531 0.315
65.5905 10.677 0.333
65.6109 10.583 0.332
65.6314 11.396 0.345
65.6518 12.010 0.354
65.6723 11.198 0.342
65.6928 9.948 0.322
65.7132 10.125 0.325
65.7337 10.115 0.325
65.7542 9.479 0.314
65.7746 9.604 0.316
65.7951 10.021 0.323
65.8155 9.219 0.310
65.8360 9.635 0.317
65.8565 9.094 0.308
65.8769 8.896 0.304
65.8974 8.854 0.304
65.9179 8.740 0.302
65.9383 8.740 0.302
65.9588 8.156 0.291
65.9792 8.125 0.291
65.9997 8.021 0.289
66.0202 7.865 0.286
66.0406 8.094 0.290
66.0611 8.198 0.292
66.0816 8.177 0.292
66.1020 8.042 0.289
66.1225 7.854 0.286
66.1430 7.844 0.286
66.1634 7.583 0.281
66.1839 8.021 0.289
66.2043 8.021 0.289
66.2248 8.344 0.295
66.2453 8.135 0.291
66.2657 7.906 0.287
66.2862 7.531 0.280
66.3067 7.708 0.283
66.3271 7.521 0.280
66.3476 8.031 0.289
66.3680 7.573 0.281
66.3885 8.125 0.291
66.4090 7.948 0.288
66.4294 7.667 0.283
66.4499 7.906 0.287
66.4704 7.438 0.278
66.4908 7.531 0.280
66.5113 7.917 0.287
66.5317 6.979 0.270
66.5522 7.125 0.272
66.5727 7.313 0.276
66.5931 7.573 0.281
66.6136 7.792 0.285
66.6341 7.698 0.283
66.6545 7.583 0.281
66.6750 6.698 0.264
66.6954 7.031 0.271
66.7159 7.156 0.273
66.7364 7.115 0.272
66.7568 7.469 0.279
66.7773 7.688 0.283
66.7978 7.323 0.276
66.8182 7.000 0.270
66.8387 7.500 0.280
66.8591 6.938 0.269
66.8796 8.104 0.291
66.9001 7.708 0.283
66.9205 7.927 0.287
66.9410 8.063 0.290
66.9615 8.146 0.291
66.9819 7.604 0.281
67.0024 7.500 0.280
67.0229 8.031 0.289
67.0433 8.052 0.290
67.0638 8.385 0.296
67.0842 9.021 0.307
67.1047 9.281 0.311
67.1252 9.365 0.312
67.1456 9.802 0.320
67.1661 10.021 0.323
67.1866 10.417 0.329
67.2070 11.385 0.344
67.2275 12.281 0.358
67.2479 13.875 0.380
67.2684 14.990 0.395
67.2889 15.740 0.405
67.3093 17.104 0.422
67.3298 17.208 0.423
67.3503 16.760 0.418
67.3707 15.760 0.405
67.3912 14.958 0.395
67.4116 13.833 0.380
67.4321 13.771 0.379
67.4526 13.281 0.372
67.4730 13.635 0.377
67.4935 12.813 0.365
67.5140 13.094 0.369
67.5344 12.563 0.362
67.5549 12.021 0.354
67.5753 11.948 0.353
67.5958 10.771 0.335
67.6163 10.458 0.330
67.6367 9.729 0.318
67.6572 9.292 0.311
67.6777 9.063 0.307
67.6981 9.135 0.308
67.7186 9.271 0.311
67.7391 9.521 0.315
67.7595 9.646 0.317
67.7800 8.833 0.303
67.8004 9.479 0.314
67.8209 8.781 0.302
67.8414 7.979 0.288
67.8618 8.229 0.293
67.8823 8.385 0.296
67.9028 8.240 0.293
67.9232 8.010 0.289
67.9437 8.333 0.295
67.9641 8.313 0.294
67.9846 8.333 0.295
68.0051 8.698 0.301
68.0255 8.552 0.298
68.0460 8.552 0.298
68.0665 8.344 0.295
68.0869 8.583 0.299
68.1074 8.010 0.289
68.1278 7.990 0.288
68.1483 8.052 0.290
68.1688 7.542 0.280
68.1892 8.104 0.291
68.2097 7.969 0.288
68.2302 8.240 0.293
68.2506 8.615 0.300
68.2711 8.302 0.294
68.2915 8.625 0.300
68.3120 9.115 0.308
68.3325 9.427 0.313
68.3529 10.010 0.323
68.3734 10.135 0.325
68.3939 11.010 0.339
68.4143 11.531 0.347
68.4348 11.313 0.343
68.4552 11.031 0.339
68.4757 10.167 0.325
68.4962 10.042 0.323
68.5166 9.146 0.309
68.5371 9.115 0.308
68.5576 8.865 0.304
68.5780 9.021 0.307
68.5985 9.063 0.307
68.6190 9.458 0.314
68.6394 9.063 0.307
68.6599 9.021 0.307
68.6803 8.208 0.292
68.7008 8.021 0.289
68.7213 7.292 0.276
68.7417 7.448 0.279
68.7622 7.729 0.284
68.7827 7.594 0.281
68.8031 7.104 0.272
68.8236 6.969 0.269
68.8440 7.771 0.285
68.8645 7.323 0.276
68.8850 7.135 0.273
68.9054 6.479 0.260
68.9259 7.417 0.278
68.9464 6.917 0.268
68.9668 8.010 0.289
68.9873 7.448 0.279
69.0077 6.948 0.269
69.0282 7.469 0.279
69.0487 7.813 0.285
69.0691 7.458 0.279
69.0896 7.948 0.288
69.1101 7.750 0.284
69.1305 7.969 0.288
69.1510 8.656 0.300
69.1714 8.427 0.296
69.1919 9.333 0.312
69.2124 9.635 0.317
69.2328 10.406 0.329
69.2533 11.115 0.340
69.2738 10.615 0.333
69.2942 12.063 0.354
69.3147 11.458 0.345
69.3351 10.656 0.333
69.3556 9.823 0.320
69.3761 9.760 0.319
69.3965 9.292 0.311
69.4170 9.125 0.308
69.4375 9.635 0.317
69.4579 9.583 0.316
69.4784 9.260 0.311
69.4989 9.458 0.314
69.5193 8.906 0.305
69.5398 8.188 0.292
69.5602 8.438 0.296
69.5807 7.479 0.279
69.6012 7.260 0.275
69.6216 6.563 0.261
69.6421 7.365 0.277
69.6626 6.667 0.264
69.6830 6.271 0.256
69.7035 6.865 0.267
69.7239 6.177 0.254
69.7444 6.979 0.270
69.7649 6.438 0.259
69.7853 6.083 0.252
69.8058 6.500 0.260
69.8263 6.031 0.251
69.8467 6.094 0.252
69.8672 5.958 0.249
69.8876 6.167 0.253
69.9081 6.583 0.262
69.9286 6.719 0.265
69.9490 6.313 0.256
69.9695 6.417 0.259
69.9900 6.396 0.258
70.0104 6.073 0.252
70.0309 6.344 0.257
70.0513 6.354 0.257
70.0718 6.479 0.260
70.0923 6.635 0.263
70.1127 6.531 0.261
70.1332 6.406 0.258
70.1537 6.375 0.258
70.1741 6.833 0.267
70.1946 6.823 0.267
70.2150 6.615 0.262
70.2355 6.833 0.267
70.2560 6.292 0.256
70.2764 6.240 0.255
70.2969 6.375 0.258
70.3174 6.865 0.267
70.3378 6.771 0.266
70.3583 6.490 0.260
70.3788 6.063 0.251
70.3992 6.469 0.260
70.4197 5.875 0.247
70.4401 6.552 0.261
70.4606 6.510 0.260
70.4811 6.500 0.260
70.5015 6.219 0.255
70.5220 6.146 0.253
70.5425 6.510 0.260
70.5629 6.802 0.266
70.5834 6.604 0.262
70.6038 6.865 0.267
70.6243 6.875 0.268
70.6448 6.188 0.254
70.6652 6.979 0.270
70.6857 7.198 0.274
70.7062 6.813 0.266
70.7266 6.938 0.269
70.7471 6.229 0.255
70.7675 6.688 0.264
70.7880 6.458 0.259
70.8085 6.156 0.253
70.8289 6.073 0.252
70.8494 6.292 0.256
70.8699 6.135 0.253
70.8903 6.104 0.252
70.9108 6.323 0.257
70.9312 6.271 0.256
70.9517 6.292 0.256
70.9722 5.802 0.246
70.9926 6.240 0.255
71.0131 6.021 0.250
71.0336 5.917 0.248
71.0540 6.406 0.258
71.0745 6.417 0.259
71.0949 5.802 0.246
71.1154 6.073 0.252
71.1359 6.063 0.251
71.1563 6.219 0.255
71.1768 6.052 0.251
71.1973 6.021 0.250
71.2177 5.917 0.248
71.2382 5.875 0.247
71.2587 6.094 0.252
71.2791 6.698 0.264
71.2996 6.427 0.259
71.3200 6.552 0.261
71.3405 7.135 0.273
71.3610 6.781 0.266
71.3814 6.167 0.253
71.4019 6.479 0.260
71.4224 6.177 0.254
71.4428 5.896 0.248
71.4633 6.146 0.253
71.4837 6.521 0.261
71.5042 6.219 0.255
71.5247 6.240 0.255
71.5451 6.302 0.256
71.5656 6.000 0.250
71.5861 6.063 0.251
71.6065 6.438 0.259
71.6270 6.042 0.251
71.6474 5.969 0.249
71.6679 5.750 0.245
71.6884 5.635 0.242
71.7088 6.063 0.251
71.7293 5.490 0.239
71.7498 5.719 0.244
71.7702 5.500 0.239
71.7907 5.417 0.238
71.8111 5.813 0.246
71.8316 5.542 0.240
71.8521 5.323 0.235
71.8725 5.427 0.238
71.8930 4.948 0.227
71.9135 5.469 0.239
71.9339 5.635 0.242
71.9544 5.427 0.238
71.9749 5.719 0.244
71.9953 5.510 0.240
72.0158 5.531 0.240
72.0362 5.375 0.237
72.0567 5.365 0.236
72.0772 5.354 0.236
72.0976 5.344 0.236
72.1181 5.573 0.241
72.1386 5.479 0.239
72.1590 5.479 0.239
72.1795 5.583 0.241
72.1999 5.510 0.240
72.2204 5.813 0.246
72.2409 5.458 0.238
72.2613 5.135 0.231
72.2818 5.573 0.241
72.3023 5.302 0.235
72.3227 5.344 0.236
72.3432 5.510 0.240
72.3636 5.479 0.239
72.3841 5.500 0.239
72.4046 5.563 0.241
72.4250 5.760 0.245
72.4455 5.896 0.248
72.4660 5.563 0.241
72.4864 5.510 0.240
72.5069 5.333 0.236
72.5273 5.208 0.233
72.5478 5.208 0.233
72.5683 5.510 0.240
72.5887 5.740 0.245
72.6092 5.438 0.238
72.6297 4.802 0.224
72.6501 5.625 0.242
72.6706 5.469 0.239
72.6910 5.927 0.248
72.7115 5.740 0.245
72.7320 5.833 0.247
72.7524 6.104 0.252
72.7729 5.719 0.244
72.7934 5.823 0.246
72.8138 5.667 0.243
72.8343 6.302 0.256
72.8548 6.323 0.257
72.8752 6.219 0.255
72.8957 6.125 0.253
72.9161 6.646 0.263
72.9366 7.240 0.275
72.9571 7.125 0.272
72.9775 6.615 0.262
72.9980 6.510 0.260
73.0185 6.479 0.260
73.0389 5.875 0.247
73.0594 6.375 0.258
73.0798 6.208 0.254
73.1003 6.292 0.256
73.1208 5.729 0.244
73.1412 6.083 0.252
73.1617 5.969 0.249
73.1822 5.875 0.247
73.2026 5.729 0.244
73.2231 5.969 0.249
73.2435 5.406 0.237
73.2640 5.354 0.236
73.2845 5.125 0.231
73.3049 5.042 0.229
73.3254 5.229 0.233
73.3459 5.021 0.229
73.3663 4.854 0.225
73.3868 5.573 0.241
73.4072 5.094 0.230
73.4277 5.292 0.235
73.4482 5.063 0.230
73.4686 5.073 0.230
73.4891 4.865 0.225
73.5096 5.042 0.229
73.5300 4.760 0.223
73.5505 5.094 0.230
73.5709 4.448 0.215
73.5914 4.938 0.227
73.6119 5.104 0.231
73.6323 4.958 0.227
73.6528 5.115 0.231
73.6733 4.833 0.224
73.6937 4.958 0.227
73.7142 4.656 0.220
73.7347 4.813 0.224
73.7551 5.260 0.234
73.7756 4.823 0.224
73.7960 5.000 0.228
73.8165 5.510 0.240
73.8370 5.406 0.237
73.8574 5.375 0.237
73.8779 5.427 0.238
73.8984 4.802 0.224
73.9188 5.125 0.231
73.9393 5.333 0.236
73.9597 5.063 0.230
73.9802 5.229 0.233
74.0007 5.094 0.230
74.0211 5.104 0.231
74.0416 5.302 0.235
74.0621 5.417 0.238
74.0825 5.708 0.244
74.1030 5.833 0.247
74.1234 5.490 0.239
74.1439 5.625 0.242
74.1644 5.615 0.242
74.1848 5.229 0.233
74.2053 5.177 0.232
74.2258 5.438 0.238
74.2462 5.240 0.234
74.2667 5.438 0.238
74.2871 5.219 0.233
74.3076 5.271 0.234
74.3281 5.500 0.239
74.3485 5.354 0.236
74.3690 5.208 0.233
74.3895 5.260 0.234
74.4099 5.021 0.229
74.4304 5.271 0.234
74.4508 4.854 0.225
74.4713 4.896 0.226
74.4918 5.135 0.231
74.5122 4.604 0.219
74.5327 5.094 0.230
74.5532 4.667 0.220
74.5736 4.802 0.224
74.5941 5.031 0.229
74.6146 4.667 0.220
74.6350 4.802 0.224
74.6555 5.188 0.232
74.6759 4.938 0.227
74.6964 5.354 0.236
74.7169 4.760 0.223
74.7373 4.927 0.227
74.7578 4.927 0.227
74.7783 4.875 0.225
74.7987 4.771 0.223
74.8192 4.958 0.227
74.8396 5.052 0.229
74.8601 4.448 0.215
74.8806 4.917 0.226
74.9010 4.615 0.219
74.9215 5.240 0.234
74.9420 5.010 0.228
74.9624 4.969 0.228
74.9829 4.906 0.226
75.0033 4.875 0.225
75.0238 5.042 0.229
75.0443 4.823 0.224
75.0647 4.771 0.223
75.0852 5.115 0.231
75.1057 5.260 0.234
75.1261 4.750 0.222
75.1466 5.156 0.232
75.1670 5.198 0.233
75.1875 5.417 0.238
75.2080 5.198 0.233
75.2284 5.313 0.235
75.2489 5.635 0.242
75.2694 5.229 0.233
75.2898 4.719 0.222
75.3103 4.885 0.226
75.3307 5.438 0.238
75.3512 4.771 0.223
75.3717 5.104 0.231
75.3921 4.677 0.221
75.4126 4.708 0.221
75.4331 5.094 0.230
75.4535 5.000 0.228
75.4740 4.875 0.225
75.4945 5.177 0.232
75.5149 5.229 0.233
75.5354 4.854 0.225
75.5558 5.354 0.236
75.5763 5.177 0.232
75.5968 5.021 0.229
75.6172 5.750 0.245
75.6377 5.427 0.238
75.6582 5.698 0.244
75.6786 5.646 0.243
75.6991 5.188 0.232
75.7195 5.667 0.243
75.7400 6.094 0.252
75.7605 5.781 0.245
75.7809 5.885 0.248
75.8014 6.021 0.250
75.8219 5.948 0.249
75.8423 6.135 0.253
75.8628 6.135 0.253
75.8832 6.458 0.259
75.9037 7.292 0.276
75.9242 6.896 0.268
75.9446 7.427 0.278
75.9651 7.813 0.285
75.9856 8.698 0.301
76.0060 8.490 0.297
76.0265 8.625 0.300
76.0469 8.073 0.290
76.0674 7.865 0.286
76.0879 7.906 0.287
76.1083 7.104 0.272
76.1288 7.094 0.272
76.1493 7.250 0.275
76.1697 6.813 0.266
76.1902 6.823 0.267
76.2106 6.604 0.262
76.2311 6.917 0.268
76.2516 7.146 0.273
76.2720 6.927 0.269
76.2925 6.521 0.261
76.3130 6.521 0.261
76.3334 5.802 0.246
76.3539 5.885 0.248
76.3744 6.125 0.253
76.3948 6.010 0.250
76.4153 5.500 0.239
76.4357 5.479 0.239
76.4562 5.208 0.233
76.4767 5.521 0.240
76.4971 5.094 0.230
76.5176 5.302 0.235
76.5381 5.177 0.232
76.5585 5.542 0.240
76.5790 5.448 0.238
76.5994 5.854 0.247
76.6199 5.135 0.231
76.6404 5.219 0.233
76.6608 4.833 0.224
76.6813 4.750 0.222
76.7018 5.125 0.231
76.7222 5.448 0.238
76.7427 4.563 0.218
76.7631 4.750 0.222
76.7836 5.042 0.229
76.8041 5.115 0.231
76.8245 5.188 0.232
76.8450 5.208 0.233
76.8655 5.125 0.231
76.8859 5.094 0.230
76.9064 5.063 0.230
76.9268 5.073 0.230
76.9473 5.333 0.236
76.9678 4.854 0.225
76.9882 4.677 0.221
77.0087 4.875 0.225
77.0292 4.969 0.228
77.0496 5.073 0.230
77.0701 5.177 0.232
77.0906 5.167 0.232
77.1110 4.563 0.218
77.1315 5.000 0.228
77.1519 5.292 0.235
77.1724 5.083 0.230
77.1929 5.125 0.231
77.2133 5.292 0.235
77.2338 5.021 0.229
77.2543 4.854 0.225
77.2747 5.563 0.241
77.2952 5.729 0.244
77.3156 5.615 0.242
77.3361 5.188 0.232
77.3566 4.896 0.226
77.3770 5.344 0.236
77.3975 5.406 0.237
77.4180 5.500 0.239
77.4384 5.594 0.241
77.4589 5.938 0.249
77.4793 6.167 0.253
77.4998 6.125 0.253
77.5203 5.802 0.246
77.5407 6.146 0.253
77.5612 6.208 0.254
77.5817 6.688 0.264
77.6021 6.729 0.265
77.6226 6.792 0.266
77.6430 6.531 0.261
77.6635 7.281 0.275
77.6840 6.917 0.268
77.7044 6.729 0.265
77.7249 6.740 0.265
77.7454 6.542 0.261
77.7658 6.333 0.257
77.7863 7.479 0.279
77.8067 7.188 0.274
77.8272 7.052 0.271
77.8477 7.073 0.271
77.8681 7.292 0.276
77.8886 7.073 0.271
77.9091 6.958 0.269
77.9295 7.010 0.270
77.9500 6.760 0.265
77.9705 6.125 0.253
77.9909 6.844 0.267
78.0114 6.500 0.260
78.0318 6.219 0.255
78.0523 6.719 0.265
78.0728 6.031 0.251
78.0932 6.521 0.261
78.1137 5.604 0.242
78.1342 5.906 0.248
78.1546 5.938 0.249
78.1751 6.031 0.251
78.1955 6.156 0.253
78.2160 5.896 0.248
78.2365 5.281 0.235
78.2569 5.688 0.243
78.2774 5.333 0.236
78.2979 5.615 0.242
78.3183 6.010 0.250
78.3388 5.740 0.245
78.3592 5.302 0.235
78.3797 5.458 0.238
78.4002 5.646 0.243
78.4206 6.302 0.256
78.4411 5.875 0.247
78.4616 5.875 0.247
78.4820 6.156 0.253
78.5025 5.823 0.246
78.5229 5.927 0.248
78.5434 5.958 0.249
78.5639 6.156 0.253
78.5843 6.625 0.263
78.6048 5.990 0.250
78.6253 6.219 0.255
78.6457 6.292 0.256
78.6662 6.365 0.257
78.6866 6.302 0.256
78.7071 6.208 0.254
78.7276 6.333 0.257
78.7480 6.396 0.258
78.7685 6.354 0.257
78.7890 6.667 0.264
78.8094 6.604 0.262
78.8299 6.667 0.264
78.8504 6.490 0.260
78.8708 6.260 0.255
78.8913 5.708 0.244
78.9117 6.094 0.252
78.9322 5.719 0.244
78.9527 5.948 0.249
78.9731 5.667 0.243
78.9936 6.083 0.252
79.0141 5.823 0.246
79.0345 5.833 0.247
79.0550 5.792 0.246
79.0754 5.896 0.248
79.0959 5.792 0.246
79.1164 5.438 0.238
79.1368 5.969 0.249
79.1573 5.771 0.245
79.1778 6.219 0.255
79.1982 5.865 0.247
79.2187 6.240 0.255
79.2391 5.563 0.241
79.2596 5.646 0.243
79.2801 5.656 0.243
79.3005 5.490 0.239
79.3210 6.052 0.251
79.3415 5.979 0.250
79.3619 5.854 0.247
79.3824 6.000 0.250
79.4028 5.719 0.244
79.4233 5.813 0.246
79.4438 6.333 0.257
79.4642 5.896 0.248
79.4847 5.740 0.245
79.5052 6.292 0.256
79.5256 5.958 0.249
79.5461 5.833 0.247
79.5665 6.500 0.260
79.5870 7.042 0.271
79.6075 6.979 0.270
79.6279 6.688 0.264
79.6484 6.708 0.264
79.6689 6.771 0.266
79.6893 7.354 0.277
79.7098 7.198 0.274
79.7303 6.521 0.261
79.7507 6.896 0.268
79.7712 6.542 0.261
79.7916 6.333 0.257
79.8121 6.073 0.252
79.8326 6.083 0.252
79.8530 6.177 0.254
79.8735 6.021 0.250
79.8940 6.635 0.263
79.9144 6.646 0.263
79.9349 6.469 0.260
79.9553 6.198 0.254
79.9758 6.083 0.252
79.9963 5.958 0.249
