'Id: "" Comment: "" Operator: "Lab Manager" Anode: "Cu" Scantype: "Locked Coupled" TimePerStep: "96" X: "0" Y: "0" Z: "0" 
5.0000 24.271 0.503
5.0205 24.021 0.500
5.0409 23.917 0.499
5.0614 24.750 0.508
5.0819 23.958 0.500
5.1023 24.469 0.505
5.1228 23.500 0.495
5.1432 24.719 0.507
5.1637 23.833 0.498
5.1842 23.750 0.497
5.2046 23.083 0.490
5.2251 22.979 0.489
5.2456 24.531 0.506
5.2660 22.958 0.489
5.2865 23.094 0.490
5.3069 23.281 0.492
5.3274 22.729 0.487
5.3479 23.042 0.490
5.3683 23.344 0.493
5.3888 22.573 0.485
5.4093 23.281 0.492
5.4297 22.313 0.482
5.4502 23.219 0.492
5.4706 22.677 0.486
5.4911 22.125 0.480
5.5116 22.708 0.486
5.5320 23.021 0.490
5.5525 22.156 0.480
5.5730 23.229 0.492
5.5934 22.313 0.482
5.6139 23.354 0.493
5.6343 22.375 0.483
5.6548 21.906 0.478
5.6753 23.990 0.500
5.6957 22.594 0.485
5.7162 22.531 0.484
5.7367 23.490 0.495
5.7571 23.865 0.499
5.7776 23.188 0.491
5.7980 23.385 0.494
5.8185 23.146 0.491
5.8390 23.521 0.495
5.8594 24.698 0.507
5.8799 25.354 0.514
5.9004 24.281 0.503
5.9208 24.906 0.509
5.9413 25.417 0.515
5.9618 25.698 0.517
5.9822 26.760 0.528
6.0027 27.844 0.539
6.0231 27.531 0.536
6.0436 28.604 0.546
6.0641 29.042 0.550
6.0845 30.229 0.561
6.1050 30.250 0.561
6.1255 30.177 0.561
6.1459 32.979 0.586
6.1664 31.250 0.571
6.1868 30.542 0.564
6.2073 31.719 0.575
6.2278 30.771 0.566
6.2482 30.771 0.566
6.2687 30.250 0.561
6.2892 30.396 0.563
6.3096 28.969 0.549
6.3301 28.563 0.545
6.3505 27.240 0.533
6.3710 25.281 0.513
6.3915 25.990 0.520
6.4119 25.760 0.518
6.4324 24.063 0.501
6.4529 23.448 0.494
6.4733 24.396 0.504
6.4938 23.063 0.490
6.5142 23.323 0.493
6.5347 22.469 0.484
6.5552 21.865 0.477
6.5756 23.385 0.494
6.5961 22.958 0.489
6.6166 22.677 0.486
6.6370 22.344 0.482
6.6575 22.073 0.480
6.6779 22.021 0.479
6.6984 21.510 0.473
6.7189 22.042 0.479
6.7393 21.385 0.472
6.7598 21.448 0.473
6.7803 21.323 0.471
6.8007 21.375 0.472
6.8212 21.042 0.468
6.8417 21.229 0.470
6.8621 21.219 0.470
6.8826 21.594 0.474
6.9030 20.927 0.467
6.9235 20.917 0.467
6.9440 21.292 0.471
6.9644 21.281 0.471
6.9849 21.250 0.470
7.0054 21.167 0.470
7.0258 20.323 0.460
7.0463 21.094 0.469
7.0667 21.229 0.470
7.0872 21.333 0.471
7.1077 20.729 0.465
7.1281 20.906 0.467
7.1486 21.042 0.468
7.1691 21.448 0.473
7.1895 21.427 0.472
7.2100 21.823 0.477
7.2304 20.938 0.467
7.2509 20.323 0.460
7.2714 21.083 0.469
7.2918 20.333 0.460
7.3123 21.208 0.470
7.3328 20.510 0.462
7.3532 21.260 0.471
7.3737 20.896 0.467
7.3941 20.313 0.460
7.4146 20.958 0.467
7.4351 20.167 0.458
7.4555 20.927 0.467
7.4760 20.948 0.467
7.4965 21.885 0.477
7.5169 21.188 0.470
7.5374 20.688 0.464
7.5579 21.479 0.473
7.5783 20.625 0.464
7.5988 20.635 0.464
7.6192 20.281 0.460
7.6397 21.115 0.469
7.6602 20.313 0.460
7.6806 20.260 0.459
7.7011 20.229 0.459
7.7216 20.969 0.467
7.7420 20.063 0.457
7.7625 20.646 0.464
7.7829 20.521 0.462
7.8034 21.094 0.469
7.8239 20.969 0.467
7.8443 21.542 0.474
7.8648 21.292 0.471
7.8853 21.323 0.471
7.9057 20.854 0.466
7.9262 21.125 0.469
7.9466 20.906 0.467
7.9671 21.688 0.475
7.9876 21.823 0.477
8.0080 21.365 0.472
8.0285 20.271 0.460
8.0490 20.458 0.462
8.0694 20.990 0.468
8.0899 21.344 0.472
8.1103 22.052 0.479
8.1308 21.208 0.470
8.1513 22.208 0.481
8.1717 22.219 0.481
8.1922 22.313 0.482
8.2127 21.865 0.477
8.2331 22.396 0.483
8.2536 22.292 0.482
8.2740 22.260 0.482
8.2945 21.385 0.472
8.3150 21.906 0.478
8.3354 22.594 0.485
8.3559 20.771 0.465
8.3764 21.938 0.478
8.3968 21.479 0.473
8.4173 20.969 0.467
8.4378 21.531 0.474
8.4582 21.156 0.469
8.4787 21.406 0.472
8.4991 20.281 0.460
8.5196 20.677 0.464
8.5401 22.198 0.481
8.5605 22.354 0.483
8.5810 21.490 0.473
8.6015 21.083 0.469
8.6219 21.896 0.478
8.6424 22.156 0.480
8.6628 21.740 0.476
8.6833 22.083 0.480
8.7038 22.969 0.489
8.7242 23.094 0.490
8.7447 23.604 0.496
8.7652 23.667 0.497
8.7856 24.406 0.504
8.8061 25.052 0.511
8.8265 25.073 0.511
8.8470 25.365 0.514
8.8675 27.229 0.533
8.8879 29.083 0.550
8.9084 30.365 0.562
8.9289 33.344 0.589
8.9493 36.563 0.617
8.9698 42.844 0.668
8.9902 52.365 0.739
9.0107 66.448 0.832
9.0312 82.510 0.927
9.0516 104.698 1.044
9.0721 114.521 1.092
9.0926 91.240 0.975
9.1130 62.656 0.808
9.1335 48.344 0.710
9.1539 45.594 0.689
9.1744 48.146 0.708
9.1949 55.510 0.760
9.2153 68.552 0.845
9.2358 87.292 0.954
9.2563 105.854 1.050
9.2767 106.438 1.053
9.2972 90.177 0.969
9.3177 75.208 0.885
9.3381 65.021 0.823
9.3586 61.573 0.801
9.3790 61.156 0.798
9.3995 60.198 0.792
9.4200 59.427 0.787
9.4404 61.750 0.802
9.4609 61.531 0.801
9.4814 62.563 0.807
9.5018 64.000 0.816
9.5223 64.594 0.820
9.5427 64.698 0.821
9.5632 65.542 0.826
9.5837 68.365 0.844
9.6041 68.563 0.845
9.6246 69.073 0.848
9.6451 70.573 0.857
9.6655 73.677 0.876
9.6860 77.021 0.896
9.7064 81.802 0.923
9.7269 84.906 0.940
9.7474 90.198 0.969
9.7678 106.052 1.051
9.7883 121.677 1.126
9.8088 146.646 1.236
9.8292 178.823 1.365
9.8497 201.385 1.448
9.8701 184.823 1.388
9.8906 138.083 1.199
9.9111 93.667 0.988
9.9315 73.875 0.877
9.9520 61.354 0.799
9.9725 54.073 0.751
9.9929 51.031 0.729
10.0134 47.198 0.701
10.0338 44.375 0.680
10.0543 42.865 0.668
10.0748 41.198 0.655
10.0952 39.656 0.643
10.1157 36.813 0.619
10.1362 35.792 0.611
10.1566 35.042 0.604
10.1771 34.375 0.598
10.1976 33.760 0.593
10.2180 32.958 0.586
10.2385 31.583 0.574
10.2589 30.542 0.564
10.2794 30.865 0.567
10.2999 30.240 0.561
10.3203 31.594 0.574
10.3408 30.469 0.563
10.3613 29.302 0.552
10.3817 28.302 0.543
10.4022 29.104 0.551
10.4226 28.125 0.541
10.4431 28.031 0.540
10.4636 28.688 0.547
10.4840 28.427 0.544
10.5045 27.667 0.537
10.5250 28.313 0.543
10.5454 28.302 0.543
10.5659 27.417 0.534
10.5863 25.896 0.519
10.6068 26.906 0.529
10.6273 27.406 0.534
10.6477 27.615 0.536
10.6682 27.250 0.533
10.6887 27.510 0.535
10.7091 27.073 0.531
10.7296 26.552 0.526
10.7500 26.250 0.523
10.7705 25.677 0.517
10.7910 24.958 0.510
10.8114 24.594 0.506
10.8319 23.719 0.497
10.8524 23.990 0.500
10.8728 24.063 0.501
10.8933 23.646 0.496
10.9137 22.740 0.487
10.9342 22.698 0.486
10.9547 22.281 0.482
10.9751 21.760 0.476
10.9956 21.688 0.475
11.0161 21.396 0.472
11.0365 21.542 0.474
11.0570 20.833 0.466
11.0775 21.031 0.468
11.0979 19.813 0.454
11.1184 21.042 0.468
11.1388 20.344 0.460
11.1593 18.990 0.445
11.1798 19.333 0.449
11.2002 19.479 0.450
11.2207 19.500 0.451
11.2412 18.292 0.437
11.2616 19.438 0.450
11.2821 18.927 0.444
11.3025 19.073 0.446
11.3230 18.365 0.437
11.3435 18.740 0.442
11.3639 18.625 0.440
11.3844 17.833 0.431
11.4049 18.365 0.437
11.4253 18.250 0.436
11.4458 18.156 0.435
11.4662 18.427 0.438
11.4867 17.844 0.431
11.5072 18.865 0.443
11.5276 17.375 0.425
11.5481 18.104 0.434
11.5686 18.750 0.442
11.5890 18.063 0.434
11.6095 18.167 0.435
11.6299 18.396 0.438
11.6504 17.521 0.427
11.6709 17.594 0.428
11.6913 17.260 0.424
11.7118 17.250 0.424
11.7323 17.177 0.423
11.7527 17.167 0.423
11.7732 17.521 0.427
11.7937 17.198 0.423
11.8141 16.958 0.420
11.8346 17.115 0.422
11.8550 17.083 0.422
11.8755 16.969 0.420
11.8960 16.469 0.414
11.9164 16.667 0.417
11.9369 16.573 0.415
11.9574 16.635 0.416
11.9778 16.344 0.413
11.9983 17.031 0.421
12.0187 16.052 0.409
12.0392 18.042 0.434
12.0597 17.115 0.422
12.0801 18.729 0.442
12.1006 18.656 0.441
12.1211 19.021 0.445
12.1415 19.729 0.453
12.1620 20.260 0.459
12.1824 21.104 0.469
12.2029 23.438 0.494
12.2234 23.542 0.495
12.2438 25.938 0.520
12.2643 25.896 0.519
12.2848 26.750 0.528
12.3052 27.031 0.531
12.3257 26.750 0.528
12.3461 27.500 0.535
12.3666 25.802 0.518
12.3871 25.104 0.511
12.4075 24.750 0.508
12.4280 24.646 0.507
12.4485 22.448 0.484
12.4689 21.323 0.471
12.4894 20.385 0.461
12.5098 19.625 0.452
12.5303 19.021 0.445
12.5508 19.042 0.445
12.5712 17.490 0.427
12.5917 16.865 0.419
12.6122 16.573 0.415
12.6326 15.385 0.400
12.6531 15.938 0.407
12.6736 15.385 0.400
12.6940 15.552 0.402
12.7145 14.979 0.395
12.7349 14.125 0.384
12.7554 14.896 0.394
12.7759 14.615 0.390
12.7963 14.604 0.390
12.8168 14.250 0.385
12.8373 14.104 0.383
12.8577 13.750 0.378
12.8782 13.115 0.370
12.8986 13.260 0.372
12.9191 13.552 0.376
12.9396 12.813 0.365
12.9600 13.177 0.370
12.9805 13.313 0.372
13.0010 13.531 0.375
13.0214 12.865 0.366
13.0419 14.063 0.383
13.0623 12.906 0.367
13.0828 12.635 0.363
13.1033 12.458 0.360
13.1237 12.583 0.362
13.1442 12.542 0.361
13.1647 12.469 0.360
13.1851 12.198 0.356
13.2056 12.635 0.363
13.2260 12.667 0.363
13.2465 12.135 0.356
13.2670 12.000 0.354
13.2874 13.010 0.368
13.3079 12.906 0.367
13.3284 11.854 0.351
13.3488 12.031 0.354
13.3693 11.865 0.352
13.3897 12.281 0.358
13.4102 12.510 0.361
13.4307 12.188 0.356
13.4511 11.802 0.351
13.4716 12.250 0.357
13.4921 12.583 0.362
13.5125 11.771 0.350
13.5330 11.906 0.352
13.5535 11.406 0.345
13.5739 11.667 0.349
13.5944 11.656 0.348
13.6148 11.781 0.350
13.6353 11.521 0.346
13.6558 11.688 0.349
13.6762 11.583 0.347
13.6967 11.219 0.342
13.7172 11.385 0.344
13.7376 11.667 0.349
13.7581 10.813 0.336
13.7785 11.292 0.343
13.7990 11.083 0.340
13.8195 11.802 0.351
13.8399 11.979 0.353
13.8604 11.938 0.353
13.8809 11.594 0.348
13.9013 10.885 0.337
13.9218 11.510 0.346
13.9422 10.813 0.336
13.9627 11.177 0.341
13.9832 11.896 0.352
14.0036 10.917 0.337
14.0241 11.271 0.343
14.0446 11.198 0.342
14.0650 11.406 0.345
14.0855 10.958 0.338
14.1059 11.365 0.344
14.1264 11.063 0.339
14.1469 11.396 0.345
14.1673 11.135 0.341
14.1878 10.281 0.327
14.2083 11.021 0.339
14.2287 11.073 0.340
14.2492 10.948 0.338
14.2696 10.938 0.338
14.2901 11.458 0.345
14.3106 11.188 0.341
14.3310 11.031 0.339
14.3515 10.615 0.333
14.3720 10.823 0.336
14.3924 10.833 0.336
14.4129 11.073 0.340
14.4334 10.490 0.331
14.4538 11.354 0.344
14.4743 11.156 0.341
14.4947 10.854 0.336
14.5152 10.542 0.331
14.5357 10.625 0.333
14.5561 11.146 0.341
14.5766 10.698 0.334
14.5971 10.479 0.330
14.6175 11.219 0.342
14.6380 10.802 0.335
14.6584 10.823 0.336
14.6789 10.875 0.337
14.6994 10.729 0.334
14.7198 9.969 0.322
14.7403 10.896 0.337
14.7608 10.271 0.327
14.7812 10.250 0.327
14.8017 10.469 0.330
14.8221 10.500 0.331
14.8426 10.219 0.326
14.8631 10.219 0.326
14.8835 10.260 0.327
14.9040 10.094 0.324
14.9245 10.823 0.336
14.9449 10.365 0.329
14.9654 10.750 0.335
14.9858 10.219 0.326
15.0063 10.656 0.333
15.0268 10.219 0.326
15.0472 10.281 0.327
15.0677 9.990 0.323
15.0882 10.063 0.324
15.1086 10.573 0.332
15.1291 10.302 0.328
15.1495 10.813 0.336
15.1700 10.948 0.338
15.1905 10.042 0.323
15.2109 10.708 0.334
15.2314 10.604 0.332
15.2519 10.531 0.331
15.2723 11.417 0.345
15.2928 11.781 0.350
15.3133 12.115 0.355
15.3337 12.125 0.355
15.3542 11.385 0.344
15.3746 11.990 0.353
15.3951 11.469 0.346
15.4156 11.146 0.341
15.4360 11.458 0.345
15.4565 10.708 0.334
15.4770 10.531 0.331
15.4974 11.125 0.340
15.5179 11.188 0.341
15.5383 11.823 0.351
15.5588 11.833 0.351
15.5793 11.563 0.347
15.5997 12.198 0.356
15.6202 13.438 0.374
15.6407 14.844 0.393
15.6611 18.740 0.442
15.6816 23.094 0.490
15.7020 31.760 0.575
15.7225 44.083 0.678
15.7430 51.271 0.731
15.7634 46.479 0.696
15.7839 34.688 0.601
15.8044 24.427 0.504
15.8248 16.323 0.412
15.8453 13.344 0.373
15.8657 12.615 0.362
15.8862 12.167 0.356
15.9067 11.219 0.342
15.9271 11.521 0.346
15.9476 11.510 0.346
15.9681 11.510 0.346
15.9885 10.448 0.330
16.0090 10.354 0.328
16.0295 10.729 0.334
16.0499 10.865 0.336
16.0704 9.750 0.319
16.0908 11.104 0.340
16.1113 10.604 0.332
16.1318 10.271 0.327
16.1522 10.583 0.332
16.1727 10.031 0.323
16.1932 10.594 0.332
16.2136 10.740 0.334
16.2341 10.573 0.332
16.2545 10.948 0.338
16.2750 10.635 0.333
16.2955 11.125 0.340
16.3159 11.583 0.347
16.3364 11.479 0.346
16.3569 11.219 0.342
16.3773 11.021 0.339
16.3978 11.500 0.346
16.4182 10.990 0.338
16.4387 11.354 0.344
16.4592 10.698 0.334
16.4796 10.802 0.335
16.5001 10.635 0.333
16.5206 11.406 0.345
16.5410 11.240 0.342
16.5615 11.250 0.342
16.5819 11.094 0.340
16.6024 11.531 0.347
16.6229 10.938 0.338
16.6433 10.781 0.335
16.6638 11.510 0.346
16.6843 11.302 0.343
16.7047 10.781 0.335
16.7252 11.208 0.342
16.7456 11.625 0.348
16.7661 10.938 0.338
16.7866 11.583 0.347
16.8070 10.802 0.335
16.8275 11.115 0.340
16.8480 11.365 0.344
16.8684 11.240 0.342
16.8889 11.260 0.342
16.9094 11.302 0.343
16.9298 11.469 0.346
16.9503 11.115 0.340
16.9707 11.229 0.342
16.9912 11.760 0.350
17.0117 11.146 0.341
17.0321 11.292 0.343
17.0526 11.906 0.352
17.0731 11.688 0.349
17.0935 11.094 0.340
17.1140 11.042 0.339
17.1344 11.979 0.353
17.1549 12.427 0.360
17.1754 12.344 0.359
17.1958 11.677 0.349
17.2163 12.135 0.356
17.2368 12.010 0.354
17.2572 11.969 0.353
17.2777 12.417 0.360
17.2981 11.948 0.353
17.3186 12.365 0.359
17.3391 12.417 0.360
17.3595 12.229 0.357
17.3800 12.979 0.368
17.4005 12.490 0.361
17.4209 12.844 0.366
17.4414 12.958 0.367
17.4618 13.500 0.375
17.4823 13.365 0.373
17.5028 13.271 0.372
17.5232 13.333 0.373
17.5437 14.240 0.385
17.5642 14.385 0.387
17.5846 14.073 0.383
17.6051 13.896 0.380
17.6255 14.979 0.395
17.6460 14.875 0.394
17.6665 15.260 0.399
17.6869 15.521 0.402
17.7074 16.438 0.414
17.7279 17.677 0.429
17.7483 19.729 0.453
17.7688 22.531 0.484
17.7893 24.042 0.500
17.8097 22.813 0.487
17.8302 21.125 0.469
17.8506 19.010 0.445
17.8711 18.042 0.434
17.8916 17.042 0.421
17.9120 17.104 0.422
17.9325 17.615 0.428
17.9530 17.719 0.430
17.9734 17.875 0.432
17.9939 17.031 0.421
18.0143 18.104 0.434
18.0348 17.573 0.428
18.0553 18.229 0.436
18.0757 18.521 0.439
18.0962 18.375 0.438
18.1167 18.271 0.436
18.1371 19.958 0.456
18.1576 18.531 0.439
18.1780 20.823 0.466
18.1985 22.031 0.479
18.2190 20.771 0.465
18.2394 20.188 0.459
18.2599 20.656 0.464
18.2804 20.365 0.461
18.3008 20.375 0.461
18.3213 19.677 0.453
18.3417 19.344 0.449
18.3622 20.167 0.458
18.3827 20.396 0.461
18.4031 21.354 0.472
18.4236 20.875 0.466
18.4441 21.448 0.473
18.4645 22.344 0.482
18.4850 24.969 0.510
18.5054 26.958 0.530
18.5259 29.573 0.555
18.5464 34.604 0.600
18.5668 41.406 0.657
18.5873 42.531 0.666
18.6078 39.177 0.639
18.6282 36.448 0.616
18.6487 33.344 0.589
18.6692 29.698 0.556
18.6896 27.698 0.537
18.7101 27.042 0.531
18.7305 26.177 0.522
18.7510 27.083 0.531
18.7715 27.396 0.534
18.7919 27.823 0.538
18.8124 31.729 0.575
18.8329 34.917 0.603
18.8533 38.010 0.629
18.8738 35.271 0.606
18.8942 30.677 0.565
18.9147 27.500 0.535
18.9352 23.615 0.496
18.9556 22.156 0.480
18.9761 22.292 0.482
18.9966 21.646 0.475
19.0170 20.271 0.460
19.0375 20.292 0.460
19.0579 20.063 0.457
19.0784 20.208 0.459
19.0989 19.719 0.453
19.1193 19.375 0.449
19.1398 19.938 0.456
19.1603 18.688 0.441
19.1807 19.000 0.445
19.2012 19.104 0.446
19.2216 19.573 0.452
19.2421 18.979 0.445
19.2626 18.979 0.445
19.2830 19.219 0.447
19.3035 19.167 0.447
19.3240 18.115 0.434
19.3444 18.854 0.443
19.3649 18.229 0.436
19.3853 18.583 0.440
19.4058 18.448 0.438
19.4263 18.521 0.439
19.4467 19.198 0.447
19.4672 19.156 0.447
19.4877 18.563 0.440
19.5081 19.396 0.449
19.5286 19.469 0.450
19.5491 19.510 0.451
19.5695 19.594 0.452
19.5900 21.490 0.473
19.6104 21.667 0.475
19.6309 22.052 0.479
19.6514 22.292 0.482
19.6718 24.156 0.502
19.6923 26.854 0.529
19.7128 29.958 0.559
19.7332 33.948 0.595
19.7537 41.125 0.655
19.7741 52.063 0.736
19.7946 52.635 0.740
19.8151 45.042 0.685
19.8355 39.406 0.641
19.8560 30.927 0.568
19.8765 25.854 0.519
19.8969 20.854 0.466
19.9174 20.177 0.458
19.9378 19.260 0.448
19.9583 17.979 0.433
19.9788 17.802 0.431
19.9992 16.677 0.417
20.0197 17.302 0.425
20.0402 16.781 0.418
20.0606 16.240 0.411
20.0811 16.823 0.419
20.1015 17.229 0.424
20.1220 16.833 0.419
20.1425 17.750 0.430
20.1629 17.969 0.433
20.1834 17.594 0.428
20.2039 18.729 0.442
20.2243 19.344 0.449
20.2448 19.448 0.450
20.2653 19.844 0.455
20.2857 19.833 0.455
20.3062 19.594 0.452
20.3266 20.208 0.459
20.3471 19.677 0.453
20.3676 20.573 0.463
20.3880 21.292 0.471
20.4085 21.458 0.473
20.4290 20.219 0.459
20.4494 20.510 0.462
20.4699 19.458 0.450
20.4903 18.948 0.444
20.5108 20.146 0.458
20.5313 18.333 0.437
20.5517 18.219 0.436
20.5722 16.917 0.420
20.5927 17.333 0.425
20.6131 16.052 0.409
20.6336 16.896 0.420
20.6540 15.177 0.398
20.6745 14.417 0.388
20.6950 15.094 0.397
20.7154 14.708 0.391
20.7359 14.063 0.383
20.7564 14.406 0.387
20.7768 13.990 0.382
20.7973 13.188 0.371
20.8177 13.302 0.372
20.8382 12.781 0.365
20.8587 12.156 0.356
20.8791 11.688 0.349
20.8996 12.031 0.354
20.9201 11.906 0.352
20.9405 12.010 0.354
20.9610 11.771 0.350
20.9814 11.583 0.347
21.0019 12.094 0.355
21.0224 11.271 0.343
21.0428 11.375 0.344
21.0633 11.927 0.352
21.0838 11.813 0.351
21.1042 11.313 0.343
21.1247 11.219 0.342
21.1452 10.583 0.332
21.1656 11.073 0.340
21.1861 10.781 0.335
21.2065 10.760 0.335
21.2270 11.031 0.339
21.2475 10.729 0.334
21.2679 10.990 0.338
21.2884 11.188 0.341
21.3089 10.427 0.330
21.3293 10.646 0.333
21.3498 11.271 0.343
21.3702 10.792 0.335
21.3907 11.271 0.343
21.4112 10.896 0.337
21.4316 11.292 0.343
21.4521 10.646 0.333
21.4726 10.990 0.338
21.4930 11.104 0.340
21.5135 10.781 0.335
21.5339 11.073 0.340
21.5544 10.281 0.327
21.5749 10.292 0.327
21.5953 11.521 0.346
21.6158 10.427 0.330
21.6363 10.750 0.335
21.6567 10.563 0.332
21.6772 10.573 0.332
21.6976 10.740 0.334
21.7181 11.167 0.341
21.7386 11.063 0.339
21.7590 10.688 0.334
21.7795 9.677 0.317
21.8000 10.688 0.334
21.8204 10.354 0.328
21.8409 9.667 0.317
21.8613 10.469 0.330
21.8818 10.729 0.334
21.9023 10.438 0.330
21.9227 10.781 0.335
21.9432 10.542 0.331
21.9637 11.583 0.347
21.9841 11.521 0.346
22.0046 12.344 0.359
22.0251 12.698 0.364
22.0455 12.521 0.361
22.0660 13.625 0.377
22.0864 13.865 0.380
22.1069 14.260 0.385
22.1274 15.021 0.396
22.1478 15.198 0.398
22.1683 15.896 0.407
22.1888 15.781 0.405
22.2092 14.646 0.391
22.2297 14.010 0.382
22.2501 13.896 0.380
22.2706 13.479 0.375
22.2911 12.302 0.358
22.3115 12.198 0.356
22.3320 12.667 0.363
22.3525 11.260 0.342
22.3729 11.156 0.341
22.3934 11.708 0.349
22.4138 11.719 0.349
22.4343 11.906 0.352
22.4548 11.552 0.347
22.4752 11.521 0.346
22.4957 12.125 0.355
22.5162 11.479 0.346
22.5366 11.594 0.348
22.5571 11.615 0.348
22.5775 12.302 0.358
22.5980 12.427 0.360
22.6185 12.354 0.359
22.6389 12.885 0.366
22.6594 12.677 0.363
22.6799 12.708 0.364
22.7003 12.365 0.359
22.7208 12.500 0.361
22.7412 12.250 0.357
22.7617 13.021 0.368
22.7822 14.146 0.384
22.8026 15.281 0.399
22.8231 18.833 0.443
22.8436 24.500 0.505
22.8640 30.688 0.565
22.8845 32.510 0.582
22.9050 28.469 0.545
22.9254 24.979 0.510
22.9459 21.854 0.477
22.9663 17.188 0.423
22.9868 14.302 0.386
23.0073 12.594 0.362
23.0277 11.635 0.348
23.0482 11.417 0.345
23.0687 11.375 0.344
23.0891 11.479 0.346
23.1096 11.302 0.343
23.1300 11.385 0.344
23.1505 11.177 0.341
23.1710 10.823 0.336
23.1914 10.552 0.332
23.2119 11.167 0.341
23.2324 10.604 0.332
23.2528 10.448 0.330
23.2733 10.656 0.333
23.2937 11.042 0.339
23.3142 11.104 0.340
23.3347 11.010 0.339
23.3551 11.031 0.339
23.3756 11.177 0.341
23.3961 10.906 0.337
23.4165 10.802 0.335
23.4370 11.354 0.344
23.4574 10.844 0.336
23.4779 11.188 0.341
23.4984 11.135 0.341
23.5188 11.229 0.342
23.5393 10.625 0.333
23.5598 11.323 0.343
23.5802 11.260 0.342
23.6007 10.927 0.337
23.6211 11.594 0.348
23.6416 11.833 0.351
23.6621 11.000 0.339
23.6825 10.917 0.337
23.7030 10.760 0.335
23.7235 10.010 0.323
23.7439 9.854 0.320
23.7644 10.313 0.328
23.7849 9.771 0.319
23.8053 9.865 0.321
23.8258 9.198 0.310
23.8462 8.760 0.302
23.8667 8.865 0.304
23.8872 9.365 0.312
23.9076 9.604 0.316
23.9281 9.667 0.317
23.9486 9.208 0.310
23.9690 9.125 0.308
23.9895 9.344 0.312
24.0099 9.479 0.314
24.0304 9.406 0.313
24.0509 9.438 0.314
24.0713 9.198 0.310
24.0918 9.177 0.309
24.1123 9.417 0.313
24.1327 10.021 0.323
24.1532 10.208 0.326
24.1736 10.917 0.337
24.1941 9.615 0.316
24.2146 10.281 0.327
24.2350 9.698 0.318
24.2555 8.990 0.306
24.2760 9.010 0.306
24.2964 8.708 0.301
24.3169 9.083 0.308
24.3373 8.146 0.291
24.3578 8.656 0.300
24.3783 8.365 0.295
24.3987 8.865 0.304
24.4192 8.438 0.296
24.4397 8.698 0.301
24.4601 9.156 0.309
24.4806 8.604 0.299
24.5011 9.250 0.310
24.5215 8.688 0.301
24.5420 9.396 0.313
24.5624 9.198 0.310
24.5829 9.844 0.320
24.6034 10.115 0.325
24.6238 11.521 0.346
24.6443 12.271 0.358
24.6648 12.646 0.363
24.6852 12.417 0.360
24.7057 11.563 0.347
24.7261 10.896 0.337
24.7466 10.219 0.326
24.7671 9.729 0.318
24.7875 9.313 0.311
24.8080 9.313 0.311
24.8285 9.677 0.317
24.8489 9.365 0.312
24.8694 9.500 0.315
24.8898 9.646 0.317
24.9103 10.021 0.323
24.9308 9.240 0.310
24.9512 9.260 0.311
24.9717 8.990 0.306
24.9922 9.385 0.313
25.0126 8.927 0.305
25.0331 8.958 0.305
25.0535 8.958 0.305
25.0740 9.177 0.309
25.0945 9.490 0.314
25.1149 8.885 0.304
25.1354 8.990 0.306
25.1559 8.490 0.297
25.1763 8.656 0.300
25.1968 8.646 0.300
25.2172 8.438 0.296
25.2377 8.521 0.298
25.2582 8.531 0.298
25.2786 8.615 0.300
25.2991 8.271 0.294
25.3196 8.333 0.295
25.3400 8.469 0.297
25.3605 8.781 0.302
25.3810 8.219 0.293
25.4014 8.604 0.299
25.4219 8.708 0.301
25.4423 9.146 0.309
25.4628 9.229 0.310
25.4833 10.698 0.334
25.5037 12.333 0.358
25.5242 15.063 0.396
25.5447 17.927 0.432
25.5651 19.385 0.449
25.5856 16.396 0.413
25.6060 14.990 0.395
25.6265 14.000 0.382
25.6470 12.240 0.357
25.6674 9.979 0.322
25.6879 9.313 0.311
25.7084 8.844 0.304
25.7288 8.385 0.296
25.7493 9.135 0.308
25.7697 8.427 0.296
25.7902 8.469 0.297
25.8107 8.469 0.297
25.8311 8.198 0.292
25.8516 8.365 0.295
25.8721 8.896 0.304
25.8925 7.760 0.284
25.9130 8.260 0.293
25.9334 7.979 0.288
25.9539 7.760 0.284
25.9744 7.344 0.277
25.9948 7.969 0.288
26.0153 8.250 0.293
26.0358 7.781 0.285
26.0562 7.771 0.285
26.0767 8.146 0.291
26.0971 7.760 0.284
26.1176 7.938 0.288
26.1381 7.771 0.285
26.1585 8.271 0.294
26.1790 8.021 0.289
26.1995 8.063 0.290
26.2199 7.896 0.287
26.2404 7.698 0.283
26.2609 7.990 0.288
26.2813 7.510 0.280
26.3018 8.063 0.290
26.3222 7.844 0.286
26.3427 8.146 0.291
26.3632 7.635 0.282
26.3836 8.083 0.290
26.4041 7.979 0.288
26.4246 7.771 0.285
26.4450 7.969 0.288
26.4655 7.385 0.277
26.4859 7.823 0.285
26.5064 7.656 0.282
26.5269 8.167 0.292
26.5473 8.167 0.292
26.5678 8.406 0.296
26.5883 7.990 0.288
26.6087 7.563 0.281
26.6292 8.219 0.293
26.6496 8.354 0.295
26.6701 8.083 0.290
26.6906 8.010 0.289
26.7110 7.927 0.287
26.7315 8.396 0.296
26.7520 7.740 0.284
26.7724 8.448 0.297
26.7929 7.844 0.286
26.8133 8.833 0.303
26.8338 8.156 0.291
26.8543 8.167 0.292
26.8747 8.104 0.291
26.8952 7.990 0.288
26.9157 8.250 0.293
26.9361 8.417 0.296
26.9566 8.479 0.297
26.9770 7.906 0.287
26.9975 8.635 0.300
27.0180 8.781 0.302
27.0384 8.396 0.296
27.0589 8.219 0.293
27.0794 8.115 0.291
27.0998 8.948 0.305
27.1203 8.698 0.301
27.1408 8.521 0.298
27.1612 8.969 0.306
27.1817 9.427 0.313
27.2021 9.958 0.322
27.2226 10.594 0.332
27.2431 9.896 0.321
27.2635 10.146 0.325
27.2840 9.938 0.322
27.3045 9.760 0.319
27.3249 8.990 0.306
27.3454 9.094 0.308
27.3658 10.229 0.326
27.3863 10.646 0.333
27.4068 12.115 0.355
27.4272 14.417 0.388
27.4477 15.323 0.400
27.4682 15.510 0.402
27.4886 13.510 0.375
27.5091 12.021 0.354
27.5295 11.917 0.352
27.5500 11.385 0.344
27.5705 9.615 0.316
27.5909 8.594 0.299
27.6114 8.146 0.291
27.6319 9.219 0.310
27.6523 8.375 0.295
27.6728 7.990 0.288
27.6932 7.990 0.288
27.7137 8.104 0.291
27.7342 7.708 0.283
27.7546 7.208 0.274
27.7751 8.219 0.293
27.7956 7.375 0.277
27.8160 8.271 0.294
27.8365 7.677 0.283
27.8569 7.490 0.279
27.8774 7.667 0.283
27.8979 7.510 0.280
27.9183 7.708 0.283
27.9388 8.021 0.289
27.9593 8.094 0.290
27.9797 7.698 0.283
28.0002 8.240 0.293
28.0207 7.969 0.288
28.0411 7.656 0.282
28.0616 7.771 0.285
28.0820 7.615 0.282
28.1025 8.177 0.292
28.1230 7.271 0.275
28.1434 7.531 0.280
28.1639 7.521 0.280
28.1844 7.740 0.284
28.2048 8.208 0.292
28.2253 7.750 0.284
28.2457 7.771 0.285
28.2662 7.167 0.273
28.2867 7.719 0.284
28.3071 7.552 0.280
28.3276 6.865 0.267
28.3481 7.760 0.284
28.3685 7.427 0.278
28.3890 7.771 0.285
28.4094 7.802 0.285
28.4299 7.198 0.274
28.4504 7.771 0.285
28.4708 7.479 0.279
28.4913 7.354 0.277
28.5118 7.667 0.283
28.5322 7.625 0.282
28.5527 7.073 0.271
28.5731 7.333 0.276
28.5936 7.458 0.279
28.6141 7.417 0.278
28.6345 7.896 0.287
28.6550 7.906 0.287
28.6755 7.729 0.284
28.6959 7.990 0.288
28.7164 8.229 0.293
28.7368 8.323 0.294
28.7573 7.969 0.288
28.7778 7.604 0.281
28.7982 7.406 0.278
28.8187 7.531 0.280
28.8392 7.177 0.273
28.8596 7.479 0.279
28.8801 7.906 0.287
28.9006 7.813 0.285
28.9210 7.302 0.276
28.9415 7.156 0.273
28.9619 7.031 0.271
28.9824 7.510 0.280
29.0029 7.365 0.277
29.0233 7.385 0.277
29.0438 7.135 0.273
29.0643 7.510 0.280
29.0847 7.281 0.275
29.1052 7.313 0.276
29.1256 7.073 0.271
29.1461 7.073 0.271
29.1666 7.031 0.271
29.1870 6.917 0.268
29.2075 6.781 0.266
29.2280 7.042 0.271
29.2484 7.260 0.275
29.2689 6.969 0.269
29.2893 7.156 0.273
29.3098 6.844 0.267
29.3303 7.146 0.273
29.3507 7.510 0.280
29.3712 7.365 0.277
29.3917 6.688 0.264
29.4121 7.125 0.272
29.4326 7.292 0.276
29.4530 7.458 0.279
29.4735 7.542 0.280
29.4940 7.667 0.283
29.5144 8.771 0.302
29.5349 8.677 0.301
29.5554 9.531 0.315
29.5758 8.844 0.304
29.5963 8.625 0.300
29.6168 8.292 0.294
29.6372 7.958 0.288
29.6577 7.354 0.277
29.6781 7.260 0.275
29.6986 7.385 0.277
29.7191 7.500 0.280
29.7395 6.563 0.261
29.7600 6.406 0.258
29.7805 6.375 0.258
29.8009 7.094 0.272
29.8214 7.188 0.274
29.8418 6.792 0.266
29.8623 7.135 0.273
29.8828 6.448 0.259
29.9032 6.667 0.264
29.9237 6.823 0.267
29.9442 7.177 0.273
29.9646 6.719 0.265
29.9851 6.052 0.251
30.0055 7.031 0.271
30.0260 6.823 0.267
30.0465 6.615 0.262
30.0669 6.792 0.266
30.0874 7.010 0.270
30.1079 6.615 0.262
30.1283 6.563 0.261
30.1488 6.354 0.257
30.1692 6.823 0.267
30.1897 6.719 0.265
30.2102 6.333 0.257
30.2306 6.604 0.262
30.2511 6.667 0.264
30.2716 6.854 0.267
30.2920 7.313 0.276
30.3125 6.281 0.256
30.3329 6.865 0.267
30.3534 7.052 0.271
30.3739 6.563 0.261
30.3943 6.938 0.269
30.4148 6.760 0.265
30.4353 7.125 0.272
30.4557 6.906 0.268
30.4762 6.760 0.265
30.4967 7.000 0.270
30.5171 6.917 0.268
30.5376 7.146 0.273
30.5580 7.667 0.283
30.5785 7.344 0.277
30.5990 7.083 0.272
30.6194 7.438 0.278
30.6399 7.208 0.274
30.6604 7.208 0.274
30.6808 7.906 0.287
30.7013 7.750 0.284
30.7217 7.281 0.275
30.7422 8.521 0.298
30.7627 8.292 0.294
30.7831 8.073 0.290
30.8036 7.813 0.285
30.8241 8.781 0.302
30.8445 8.740 0.302
30.8650 9.583 0.316
30.8854 10.042 0.323
30.9059 11.125 0.340
30.9264 12.813 0.365
30.9468 15.583 0.403
30.9673 19.156 0.447
30.9878 24.615 0.506
31.0082 29.854 0.558
31.0287 32.667 0.583
31.0491 31.969 0.577
31.0696 29.156 0.551
31.0901 28.146 0.541
31.1105 24.333 0.503
31.1310 20.781 0.465
31.1515 17.594 0.428
31.1719 14.521 0.389
31.1924 12.146 0.356
31.2128 10.813 0.336
31.2333 10.500 0.331
31.2538 10.167 0.325
31.2742 9.063 0.307
31.2947 8.677 0.301
31.3152 8.604 0.299
31.3356 8.813 0.303
31.3561 9.042 0.307
31.3766 8.948 0.305
31.3970 8.396 0.296
31.4175 8.229 0.293
31.4379 7.979 0.288
31.4584 7.760 0.284
31.4789 7.792 0.285
31.4993 7.573 0.281
31.5198 7.625 0.282
31.5403 7.333 0.276
31.5607 7.583 0.281
31.5812 7.115 0.272
31.6016 7.115 0.272
31.6221 7.031 0.271
31.6426 7.906 0.287
31.6630 7.229 0.274
31.6835 6.865 0.267
31.7040 7.125 0.272
31.7244 7.125 0.272
31.7449 7.885 0.287
31.7653 7.771 0.285
31.7858 8.385 0.296
31.8063 8.250 0.293
31.8267 8.479 0.297
31.8472 8.354 0.295
31.8677 7.823 0.285
31.8881 8.146 0.291
31.9086 7.521 0.280
31.9290 7.823 0.285
31.9495 7.271 0.275
31.9700 8.229 0.293
31.9904 7.563 0.281
32.0109 7.802 0.285
32.0314 8.250 0.293
32.0518 8.240 0.293
32.0723 9.167 0.309
32.0927 8.865 0.304
32.1132 10.021 0.323
32.1337 11.344 0.344
32.1541 14.458 0.388
32.1746 19.146 0.447
32.1951 20.927 0.467
32.2155 19.167 0.447
32.2360 15.542 0.402
32.2565 15.010 0.395
32.2769 15.365 0.400
32.2974 14.083 0.383
32.3178 11.604 0.348
32.3383 9.823 0.320
32.3588 10.313 0.328
32.3792 9.573 0.316
32.3997 9.792 0.319
32.4202 10.740 0.334
32.4406 10.521 0.331
32.4611 10.938 0.338
32.4815 11.229 0.342
32.5020 11.458 0.345
32.5225 12.156 0.356
32.5429 11.896 0.352
32.5634 13.302 0.372
32.5839 12.896 0.367
32.6043 11.885 0.352
32.6248 11.917 0.352
32.6452 11.250 0.342
32.6657 10.313 0.328
32.6862 9.771 0.319
32.7066 10.063 0.324
32.7271 9.115 0.308
32.7476 8.990 0.306
32.7680 8.833 0.303
32.7885 8.083 0.290
32.8089 8.792 0.303
32.8294 8.125 0.291
32.8499 8.396 0.296
32.8703 8.229 0.293
32.8908 8.740 0.302
32.9113 8.438 0.296
32.9317 8.000 0.289
32.9522 8.458 0.297
32.9726 7.948 0.288
32.9931 8.271 0.294
33.0136 7.969 0.288
33.0340 7.979 0.288
33.0545 7.677 0.283
33.0750 8.417 0.296
33.0954 8.448 0.297
33.1159 9.313 0.311
33.1364 10.104 0.324
33.1568 10.208 0.326
33.1773 9.094 0.308
33.1977 9.500 0.315
33.2182 9.229 0.310
33.2387 8.917 0.305
33.2591 8.698 0.301
33.2796 8.479 0.297
33.3001 8.760 0.302
33.3205 9.375 0.313
33.3410 10.323 0.328
33.3614 9.406 0.313
33.3819 9.365 0.312
33.4024 8.813 0.303
33.4228 8.594 0.299
33.4433 8.281 0.294
33.4638 8.604 0.299
33.4842 8.198 0.292
33.5047 7.198 0.274
33.5251 7.688 0.283
33.5456 7.281 0.275
33.5661 7.104 0.272
33.5865 7.156 0.273
33.6070 6.594 0.262
33.6275 7.083 0.272
33.6479 6.958 0.269
33.6684 6.188 0.254
33.6888 7.396 0.278
33.7093 7.063 0.271
33.7298 7.010 0.270
33.7502 7.146 0.273
33.7707 6.313 0.256
33.7912 6.771 0.266
33.8116 7.000 0.270
33.8321 7.156 0.273
33.8526 6.750 0.265
33.8730 7.021 0.270
33.8935 6.490 0.260
33.9139 6.927 0.269
33.9344 6.875 0.268
33.9549 6.250 0.255
33.9753 7.021 0.270
33.9958 7.531 0.280
34.0163 6.698 0.264
34.0367 7.135 0.273
34.0572 6.844 0.267
34.0776 8.240 0.293
34.0981 8.406 0.296
34.1186 8.385 0.296
34.1390 9.531 0.315
34.1595 11.167 0.341
34.1800 11.417 0.345
34.2004 12.708 0.364
34.2209 12.604 0.362
34.2413 11.344 0.344
34.2618 10.240 0.327
34.2823 10.094 0.324
34.3027 10.573 0.332
34.3232 9.635 0.317
34.3437 8.146 0.291
34.3641 7.760 0.284
34.3846 8.000 0.289
34.4050 7.698 0.283
34.4255 7.979 0.288
34.4460 7.094 0.272
34.4664 7.417 0.278
34.4869 7.781 0.285
34.5074 7.781 0.285
34.5278 7.604 0.281
34.5483 7.208 0.274
34.5687 7.552 0.280
34.5892 7.260 0.275
34.6097 7.156 0.273
34.6301 7.604 0.281
34.6506 7.646 0.282
34.6711 7.427 0.278
34.6915 8.000 0.289
34.7120 7.542 0.280
34.7325 7.813 0.285
34.7529 8.323 0.294
34.7734 8.031 0.289
34.7938 8.708 0.301
34.8143 9.000 0.306
34.8348 10.208 0.326
34.8552 11.063 0.339
34.8757 13.167 0.370
34.8962 16.948 0.420
34.9166 21.510 0.473
34.9371 23.979 0.500
34.9575 22.229 0.481
34.9780 16.896 0.420
34.9985 16.573 0.415
35.0189 16.875 0.419
35.0394 16.427 0.414
35.0599 12.927 0.367
35.0803 11.698 0.349
35.1008 10.073 0.324
35.1212 9.688 0.318
35.1417 8.656 0.300
35.1622 9.031 0.307
35.1826 8.823 0.303
35.2031 7.823 0.285
35.2236 8.677 0.301
35.2440 7.844 0.286
35.2645 8.094 0.290
35.2849 8.354 0.295
35.3054 7.833 0.286
35.3259 7.729 0.284
35.3463 7.219 0.274
35.3668 7.542 0.280
35.3873 7.417 0.278
35.4077 7.792 0.285
35.4282 7.719 0.284
35.4486 7.792 0.285
35.4691 7.885 0.287
35.4896 8.583 0.299
35.5100 8.500 0.298
35.5305 8.000 0.289
35.5510 8.344 0.295
35.5714 7.719 0.284
35.5919 8.042 0.289
35.6124 7.833 0.286
35.6328 7.510 0.280
35.6533 8.021 0.289
35.6737 7.781 0.285
35.6942 7.688 0.283
35.7147 7.229 0.274
35.7351 7.667 0.283
35.7556 7.802 0.285
35.7761 7.740 0.284
35.7965 8.083 0.290
35.8170 7.771 0.285
35.8374 9.083 0.308
35.8579 8.396 0.296
35.8784 8.719 0.301
35.8988 8.844 0.304
35.9193 9.188 0.309
35.9398 9.917 0.321
35.9602 10.042 0.323
35.9807 11.271 0.343
36.0011 12.083 0.355
36.0216 12.583 0.362
36.0421 13.406 0.374
36.0625 13.031 0.368
36.0830 14.135 0.384
36.1035 14.771 0.392
36.1239 15.083 0.396
36.1444 15.333 0.400
36.1648 15.323 0.400
36.1853 15.271 0.399
36.2058 15.813 0.406
36.2262 14.719 0.392
36.2467 15.656 0.404
36.2672 16.208 0.411
36.2876 16.000 0.408
36.3081 15.385 0.400
36.3285 14.958 0.395
36.3490 15.865 0.407
36.3695 16.083 0.409
36.3899 16.083 0.409
36.4104 16.927 0.420
36.4309 16.688 0.417
36.4513 16.500 0.415
36.4718 17.833 0.431
36.4923 18.115 0.434
36.5127 17.906 0.432
36.5332 18.104 0.434
36.5536 18.677 0.441
36.5741 19.740 0.453
36.5946 20.021 0.457
36.6150 18.438 0.438
36.6355 17.990 0.433
36.6560 18.073 0.434
36.6764 17.865 0.431
36.6969 17.385 0.426
36.7173 17.156 0.423
36.7378 15.958 0.408
36.7583 16.240 0.411
36.7787 15.708 0.405
36.7992 15.125 0.397
36.8197 15.344 0.400
36.8401 14.750 0.392
36.8606 15.719 0.405
36.8810 14.271 0.386
36.9015 14.542 0.389
36.9220 15.073 0.396
36.9424 15.438 0.401
36.9629 14.531 0.389
36.9834 14.927 0.394
37.0038 15.885 0.407
37.0243 15.917 0.407
37.0447 16.385 0.413
37.0652 16.240 0.411
37.0857 15.021 0.396
37.1061 15.167 0.397
37.1266 14.667 0.391
37.1471 14.948 0.395
37.1675 14.677 0.391
37.1880 14.458 0.388
37.2084 14.385 0.387
37.2289 14.542 0.389
37.2494 14.563 0.389
37.2698 12.729 0.364
37.2903 12.938 0.367
37.3108 12.354 0.359
37.3312 12.250 0.357
37.3517 12.552 0.362
37.3722 12.271 0.358
37.3926 11.490 0.346
37.4131 11.375 0.344
37.4335 11.500 0.346
37.4540 11.271 0.343
37.4745 11.750 0.350
37.4949 11.781 0.350
37.5154 11.417 0.345
37.5359 11.969 0.353
37.5563 12.427 0.360
37.5768 11.750 0.350
37.5972 11.885 0.352
37.6177 11.323 0.343
37.6382 10.927 0.337
37.6586 12.042 0.354
37.6791 11.500 0.346
37.6996 11.469 0.346
37.7200 11.406 0.345
37.7405 11.188 0.341
37.7609 11.771 0.350
37.7814 11.063 0.339
37.8019 10.969 0.338
37.8223 10.510 0.331
37.8428 10.656 0.333
37.8633 11.302 0.343
37.8837 11.021 0.339
37.9042 10.875 0.337
37.9246 11.542 0.347
37.9451 11.146 0.341
37.9656 11.823 0.351
37.9860 12.250 0.357
38.0065 12.135 0.356
38.0270 11.677 0.349
38.0474 11.854 0.351
38.0679 11.635 0.348
38.0884 11.917 0.352
38.1088 11.760 0.350
38.1293 11.208 0.342
38.1497 11.719 0.349
38.1702 11.563 0.347
38.1907 11.521 0.346
38.2111 12.104 0.355
38.2316 12.000 0.354
38.2521 12.031 0.354
38.2725 11.958 0.353
38.2930 11.917 0.352
38.3134 12.094 0.355
38.3339 11.219 0.342
38.3544 11.156 0.341
38.3748 11.573 0.347
38.3953 11.156 0.341
38.4158 11.344 0.344
38.4362 11.313 0.343
38.4567 10.667 0.333
38.4771 11.438 0.345
38.4976 11.490 0.346
38.5181 11.125 0.340
38.5385 11.125 0.340
38.5590 10.823 0.336
38.5795 10.802 0.335
38.5999 10.667 0.333
38.6204 10.052 0.324
38.6408 9.750 0.319
38.6613 10.000 0.323
38.6818 9.990 0.323
38.7022 10.198 0.326
38.7227 9.615 0.316
38.7432 10.208 0.326
38.7636 10.063 0.324
38.7841 9.750 0.319
38.8045 9.740 0.319
38.8250 9.656 0.317
38.8455 9.844 0.320
38.8659 9.531 0.315
38.8864 9.531 0.315
38.9069 9.875 0.321
38.9273 9.656 0.317
38.9478 8.885 0.304
38.9683 9.531 0.315
38.9887 9.323 0.312
39.0092 9.406 0.313
39.0296 9.656 0.317
39.0501 9.875 0.321
39.0706 9.875 0.321
39.0910 9.583 0.316
39.1115 9.458 0.314
39.1320 9.177 0.309
39.1524 9.188 0.309
39.1729 9.469 0.314
39.1933 8.823 0.303
39.2138 9.427 0.313
39.2343 9.073 0.307
39.2547 9.115 0.308
39.2752 9.531 0.315
39.2957 8.854 0.304
39.3161 9.240 0.310
39.3366 9.271 0.311
39.3570 8.729 0.302
39.3775 9.302 0.311
39.3980 9.333 0.312
39.4184 9.375 0.313
39.4389 9.000 0.306
39.4594 9.615 0.316
39.4798 8.833 0.303
39.5003 9.094 0.308
39.5207 8.333 0.295
39.5412 8.813 0.303
39.5617 9.167 0.309
39.5821 9.010 0.306
39.6026 9.333 0.312
39.6231 8.833 0.303
39.6435 9.406 0.313
39.6640 8.469 0.297
39.6844 9.375 0.313
39.7049 8.698 0.301
39.7254 9.313 0.311
39.7458 10.063 0.324
39.7663 10.188 0.326
39.7868 9.385 0.313
39.8072 9.000 0.306
39.8277 9.073 0.307
39.8482 9.094 0.308
39.8686 9.177 0.309
39.8891 9.469 0.314
39.9095 9.427 0.313
39.9300 9.115 0.308
39.9505 9.208 0.310
39.9709 8.885 0.304
39.9914 9.292 0.311
40.0119 9.333 0.312
40.0323 8.844 0.304
40.0528 8.646 0.300
40.0732 8.552 0.298
40.0937 9.250 0.310
40.1142 9.010 0.306
40.1346 8.854 0.304
40.1551 8.521 0.298
40.1756 9.115 0.308
40.1960 9.375 0.313
40.2165 9.688 0.318
40.2369 9.198 0.310
40.2574 8.083 0.290
40.2779 9.250 0.310
40.2983 10.115 0.325
40.3188 10.667 0.333
40.3393 9.844 0.320
40.3597 10.719 0.334
40.3802 9.333 0.312
40.4006 9.281 0.311
40.4211 9.094 0.308
40.4416 8.479 0.297
40.4620 8.833 0.303
40.4825 8.552 0.298
40.5030 8.458 0.297
40.5234 7.938 0.288
40.5439 7.927 0.287
40.5643 8.344 0.295
40.5848 8.510 0.298
40.6053 8.448 0.297
40.6257 8.938 0.305
40.6462 9.365 0.312
40.6667 9.771 0.319
40.6871 10.885 0.337
40.7076 11.563 0.347
40.7281 13.813 0.379
40.7485 16.958 0.420
40.7690 19.615 0.452
40.7894 19.104 0.446
40.8099 16.229 0.411
40.8304 13.385 0.373
40.8508 14.427 0.388
40.8713 14.156 0.384
40.8918 14.740 0.392
40.9122 12.583 0.362
40.9327 10.448 0.330
40.9531 9.375 0.313
40.9736 8.719 0.301
40.9941 8.688 0.301
41.0145 9.385 0.313
41.0350 9.010 0.306
41.0555 8.896 0.304
41.0759 8.563 0.299
41.0964 8.688 0.301
41.1168 8.802 0.303
41.1373 8.865 0.304
41.1578 9.073 0.307
41.1782 9.021 0.307
41.1987 9.469 0.314
41.2192 9.135 0.308
41.2396 10.042 0.323
41.2601 9.750 0.319
41.2805 9.167 0.309
41.3010 9.010 0.306
41.3215 9.354 0.312
41.3419 8.563 0.299
41.3624 9.396 0.313
41.3829 9.271 0.311
41.4033 8.500 0.298
41.4238 8.323 0.294
41.4442 8.646 0.300
41.4647 7.813 0.285
41.4852 8.156 0.291
41.5056 8.552 0.298
41.5261 8.250 0.293
41.5466 8.448 0.297
41.5670 8.156 0.291
41.5875 7.958 0.288
41.6080 7.990 0.288
41.6284 8.729 0.302
41.6489 8.500 0.298
41.6693 7.771 0.285
41.6898 8.396 0.296
41.7103 8.760 0.302
41.7307 8.552 0.298
41.7512 8.156 0.291
41.7717 9.208 0.310
41.7921 9.813 0.320
41.8126 10.208 0.326
41.8330 11.958 0.353
41.8535 13.563 0.376
41.8740 13.510 0.375
41.8944 12.594 0.362
41.9149 11.385 0.344
41.9354 10.583 0.332
41.9558 11.875 0.352
41.9763 10.771 0.335
41.9967 9.927 0.322
42.0172 9.208 0.310
42.0377 8.563 0.299
42.0581 8.448 0.297
42.0786 8.115 0.291
42.0991 7.500 0.280
42.1195 8.083 0.290
42.1400 8.323 0.294
42.1604 8.646 0.300
42.1809 8.177 0.292
42.2014 8.417 0.296
42.2218 8.844 0.304
42.2423 8.438 0.296
42.2628 8.333 0.295
42.2832 9.021 0.307
42.3037 8.750 0.302
42.3242 9.469 0.314
42.3446 9.563 0.316
42.3651 9.073 0.307
42.3855 8.646 0.300
42.4060 9.208 0.310
42.4265 10.208 0.326
42.4469 9.583 0.316
42.4674 9.854 0.320
42.4879 9.927 0.322
42.5083 9.781 0.319
42.5288 10.177 0.326
42.5492 9.073 0.307
42.5697 9.240 0.310
42.5902 9.885 0.321
42.6106 9.615 0.316
42.6311 9.958 0.322
42.6516 9.490 0.314
42.6720 10.115 0.325
42.6925 9.292 0.311
42.7129 9.333 0.312
42.7334 9.375 0.313
42.7539 9.656 0.317
42.7743 9.625 0.317
42.7948 9.375 0.313
42.8153 9.635 0.317
42.8357 8.927 0.305
42.8562 8.802 0.303
42.8766 9.000 0.306
42.8971 8.688 0.301
42.9176 8.938 0.305
42.9380 9.594 0.316
42.9585 9.010 0.306
42.9790 8.604 0.299
42.9994 8.385 0.296
43.0199 8.635 0.300
43.0403 8.677 0.301
43.0608 8.052 0.290
43.0813 8.208 0.292
43.1017 8.042 0.289
43.1222 8.188 0.292
43.1427 8.427 0.296
43.1631 8.604 0.299
43.1836 8.542 0.298
43.2041 8.500 0.298
43.2245 8.406 0.296
43.2450 8.208 0.292
43.2654 8.688 0.301
43.2859 9.385 0.313
43.3064 8.604 0.299
43.3268 9.177 0.309
43.3473 9.083 0.308
43.3678 8.917 0.305
43.3882 8.927 0.305
43.4087 8.563 0.299
43.4291 9.677 0.317
43.4496 9.354 0.312
43.4701 9.167 0.309
43.4905 9.073 0.307
43.5110 9.781 0.319
43.5315 9.573 0.316
43.5519 10.042 0.323
43.5724 10.313 0.328
43.5928 9.906 0.321
43.6133 10.938 0.338
43.6338 10.792 0.335
43.6542 10.365 0.329
43.6747 9.875 0.321
43.6952 10.490 0.331
43.7156 10.313 0.328
43.7361 10.208 0.326
43.7565 9.740 0.319
43.7770 10.115 0.325
43.7975 10.510 0.331
43.8179 9.917 0.321
43.8384 10.646 0.333
43.8589 9.990 0.323
43.8793 10.229 0.326
43.8998 9.656 0.317
43.9202 8.917 0.305
43.9407 9.188 0.309
43.9612 9.375 0.313
43.9816 9.302 0.311
44.0021 8.771 0.302
44.0226 8.250 0.293
44.0430 8.385 0.296
44.0635 8.604 0.299
44.0840 8.552 0.298
44.1044 8.083 0.290
44.1249 7.833 0.286
44.1453 8.271 0.294
44.1658 7.708 0.283
44.1863 7.969 0.288
44.2067 8.115 0.291
44.2272 8.083 0.290
44.2477 8.000 0.289
44.2681 8.646 0.300
44.2886 8.313 0.294
44.3090 7.875 0.286
44.3295 7.927 0.287
44.3500 8.021 0.289
44.3704 7.792 0.285
44.3909 7.594 0.281
44.4114 7.375 0.277
44.4318 8.021 0.289
44.4523 8.344 0.295
44.4727 7.771 0.285
44.4932 8.083 0.290
44.5137 7.292 0.276
44.5341 7.875 0.286
44.5546 7.375 0.277
44.5751 7.333 0.276
44.5955 7.469 0.279
44.6160 7.510 0.280
44.6364 7.604 0.281
44.6569 7.542 0.280
44.6774 7.333 0.276
44.6978 7.542 0.280
44.7183 7.510 0.280
44.7388 7.260 0.275
44.7592 7.146 0.273
44.7797 7.802 0.285
44.8001 7.490 0.279
44.8206 7.906 0.287
44.8411 7.531 0.280
44.8615 7.750 0.284
44.8820 7.760 0.284
44.9025 7.708 0.283
44.9229 7.510 0.280
44.9434 7.125 0.272
44.9639 7.396 0.278
44.9843 7.771 0.285
45.0048 7.969 0.288
45.0252 7.427 0.278
45.0457 7.750 0.284
45.0662 7.167 0.273
45.0866 7.010 0.270
45.1071 8.063 0.290
45.1276 7.552 0.280
45.1480 7.385 0.277
45.1685 8.135 0.291
45.1889 7.875 0.286
45.2094 8.479 0.297
45.2299 8.104 0.291
45.2503 7.469 0.279
45.2708 7.760 0.284
45.2913 7.750 0.284
45.3117 7.781 0.285
45.3322 8.063 0.290
45.3526 7.500 0.280
45.3731 7.010 0.270
45.3936 7.385 0.277
45.4140 7.177 0.273
45.4345 7.802 0.285
45.4550 7.104 0.272
45.4754 7.552 0.280
45.4959 7.188 0.274
45.5163 6.990 0.270
45.5368 7.073 0.271
45.5573 6.792 0.266
45.5777 7.521 0.280
45.5982 6.917 0.268
45.6187 6.917 0.268
45.6391 6.938 0.269
45.6596 7.365 0.277
45.6800 7.010 0.270
45.7005 7.469 0.279
45.7210 7.021 0.270
45.7414 6.760 0.265
45.7619 7.333 0.276
45.7824 7.156 0.273
45.8028 7.031 0.271
45.8233 7.000 0.270
45.8438 7.281 0.275
45.8642 7.313 0.276
45.8847 7.323 0.276
45.9051 7.563 0.281
45.9256 7.625 0.282
45.9461 7.760 0.284
45.9665 7.250 0.275
45.9870 6.844 0.267
46.0075 7.438 0.278
46.0279 7.260 0.275
46.0484 7.115 0.272
46.0688 6.594 0.262
46.0893 6.875 0.268
46.1098 6.427 0.259
46.1302 6.844 0.267
46.1507 6.771 0.266
46.1712 6.635 0.263
46.1916 6.802 0.266
46.2121 6.615 0.262
46.2325 7.146 0.273
46.2530 7.000 0.270
46.2735 6.604 0.262
46.2939 6.448 0.259
46.3144 6.781 0.266
46.3349 7.146 0.273
46.3553 7.042 0.271
46.3758 7.240 0.275
46.3962 6.844 0.267
46.4167 6.792 0.266
46.4372 7.156 0.273
46.4576 7.438 0.278
46.4781 7.563 0.281
46.4986 7.073 0.271
46.5190 8.375 0.295
46.5395 8.885 0.304
46.5600 9.042 0.307
46.5804 9.417 0.313
46.6009 10.198 0.326
46.6213 10.063 0.324
46.6418 8.938 0.305
46.6623 9.042 0.307
46.6827 8.542 0.298
46.7032 8.229 0.293
46.7237 9.635 0.317
46.7441 9.146 0.309
46.7646 8.344 0.295
46.7850 8.167 0.292
46.8055 7.531 0.280
46.8260 7.542 0.280
46.8464 7.385 0.277
46.8669 7.281 0.275
46.8874 7.479 0.279
46.9078 7.323 0.276
46.9283 6.521 0.261
46.9487 6.396 0.258
46.9692 7.031 0.271
46.9897 6.635 0.263
47.0101 6.938 0.269
47.0306 6.573 0.262
47.0511 5.979 0.250
47.0715 6.948 0.269
47.0920 6.823 0.267
47.1124 7.281 0.275
47.1329 6.760 0.265
47.1534 6.896 0.268
47.1738 6.802 0.266
47.1943 6.708 0.264
47.2148 6.427 0.259
47.2352 6.510 0.260
47.2557 6.698 0.264
47.2761 7.240 0.275
47.2966 6.604 0.262
47.3171 7.021 0.270
47.3375 6.313 0.256
47.3580 6.500 0.260
47.3785 7.198 0.274
47.3989 6.417 0.259
47.4194 6.854 0.267
47.4399 6.771 0.266
47.4603 7.229 0.274
47.4808 7.010 0.270
47.5012 7.063 0.271
47.5217 6.781 0.266
47.5422 7.885 0.287
47.5626 7.792 0.285
47.5831 7.500 0.280
47.6036 7.417 0.278
47.6240 7.479 0.279
47.6445 7.813 0.285
47.6649 8.073 0.290
47.6854 7.927 0.287
47.7059 7.646 0.282
47.7263 8.229 0.293
47.7468 7.969 0.288
47.7673 7.292 0.276
47.7877 7.406 0.278
47.8082 7.813 0.285
47.8286 7.292 0.276
47.8491 7.010 0.270
47.8696 7.000 0.270
47.8900 6.990 0.270
47.9105 7.104 0.272
47.9310 6.469 0.260
47.9514 7.073 0.271
47.9719 6.750 0.265
47.9923 6.521 0.261
48.0128 6.490 0.260
48.0333 6.438 0.259
48.0537 6.427 0.259
48.0742 6.844 0.267
48.0947 6.385 0.258
48.1151 6.615 0.262
48.1356 6.354 0.257
48.1560 6.938 0.269
48.1765 6.740 0.265
48.1970 6.719 0.265
48.2174 6.198 0.254
48.2379 6.458 0.259
48.2584 6.135 0.253
48.2788 6.542 0.261
48.2993 6.365 0.257
48.3198 6.813 0.266
48.3402 6.906 0.268
48.3607 6.844 0.267
48.3811 6.823 0.267
48.4016 6.917 0.268
48.4221 7.073 0.271
48.4425 7.073 0.271
48.4630 6.563 0.261
48.4835 7.354 0.277
48.5039 7.125 0.272
48.5244 7.271 0.275
48.5448 6.938 0.269
48.5653 6.948 0.269
48.5858 6.948 0.269
48.6062 6.865 0.267
48.6267 6.615 0.262
48.6472 6.510 0.260
48.6676 6.313 0.256
48.6881 6.448 0.259
48.7085 6.771 0.266
48.7290 6.958 0.269
48.7495 6.760 0.265
48.7699 6.427 0.259
48.7904 5.708 0.244
48.8109 6.583 0.262
48.8313 6.104 0.252
48.8518 6.521 0.261
48.8722 6.177 0.254
48.8927 6.000 0.250
48.9132 5.948 0.249
48.9336 6.208 0.254
48.9541 6.469 0.260
48.9746 6.625 0.263
48.9950 6.063 0.251
49.0155 6.406 0.258
49.0359 7.104 0.272
49.0564 7.677 0.283
49.0769 8.271 0.294
49.0973 7.854 0.286
49.1178 7.135 0.273
49.1383 7.260 0.275
49.1587 7.188 0.274
49.1792 7.594 0.281
49.1997 7.406 0.278
49.2201 7.573 0.281
49.2406 7.229 0.274
49.2610 7.021 0.270
49.2815 7.698 0.283
49.3020 7.677 0.283
49.3224 8.031 0.289
49.3429 7.396 0.278
49.3634 7.500 0.280
49.3838 7.083 0.272
49.4043 7.000 0.270
49.4247 7.031 0.271
49.4452 6.917 0.268
49.4657 7.771 0.285
49.4861 7.750 0.284
49.5066 8.042 0.289
49.5271 7.490 0.279
49.5475 7.500 0.280
49.5680 7.729 0.284
49.5884 8.021 0.289
49.6089 7.219 0.274
49.6294 7.094 0.272
49.6498 7.375 0.277
49.6703 7.927 0.287
49.6908 7.760 0.284
49.7112 8.198 0.292
49.7317 8.604 0.299
49.7521 8.844 0.304
49.7726 9.031 0.307
49.7931 8.583 0.299
49.8135 8.750 0.302
49.8340 7.969 0.288
49.8545 8.646 0.300
49.8749 8.313 0.294
49.8954 8.115 0.291
49.9158 8.906 0.305
49.9363 8.615 0.300
49.9568 8.313 0.294
49.9772 8.385 0.296
49.9977 7.781 0.285
50.0182 7.844 0.286
50.0386 7.802 0.285
50.0591 7.646 0.282
50.0796 7.583 0.281
50.1000 7.844 0.286
50.1205 7.781 0.285
50.1409 7.896 0.287
50.1614 7.469 0.279
50.1819 8.031 0.289
50.2023 8.135 0.291
50.2228 7.188 0.274
50.2433 8.323 0.294
50.2637 8.417 0.296
50.2842 8.333 0.295
50.3046 8.729 0.302
50.3251 7.896 0.287
50.3456 7.729 0.284
50.3660 7.792 0.285
50.3865 8.104 0.291
50.4070 7.385 0.277
50.4274 7.635 0.282
50.4479 7.927 0.287
50.4683 7.094 0.272
50.4888 8.135 0.291
50.5093 7.771 0.285
50.5297 8.021 0.289
50.5502 7.854 0.286
50.5707 8.052 0.290
50.5911 7.885 0.287
50.6116 7.406 0.278
50.6320 7.594 0.281
50.6525 7.031 0.271
50.6730 7.677 0.283
50.6934 6.969 0.269
50.7139 7.219 0.274
50.7344 7.531 0.280
50.7548 6.813 0.266
50.7753 6.698 0.264
50.7958 6.938 0.269
50.8162 7.083 0.272
50.8367 7.229 0.274
50.8571 7.375 0.277
50.8776 7.125 0.272
50.8981 7.354 0.277
50.9185 7.354 0.277
50.9390 7.250 0.275
50.9595 7.292 0.276
50.9799 7.250 0.275
51.0004 7.573 0.281
51.0208 7.427 0.278
51.0413 6.906 0.268
51.0618 6.844 0.267
51.0822 6.927 0.269
51.1027 6.938 0.269
51.1232 6.750 0.265
51.1436 6.469 0.260
51.1641 6.250 0.255
51.1845 6.417 0.259
51.2050 7.021 0.270
51.2255 6.448 0.259
51.2459 6.875 0.268
51.2664 6.875 0.268
51.2869 6.396 0.258
51.3073 6.552 0.261
51.3278 5.760 0.245
51.3482 6.042 0.251
51.3687 6.167 0.253
51.3892 5.771 0.245
51.4096 6.094 0.252
51.4301 5.938 0.249
51.4506 6.208 0.254
51.4710 5.979 0.250
51.4915 6.188 0.254
51.5119 6.198 0.254
51.5324 6.406 0.258
51.5529 5.958 0.249
51.5733 6.438 0.259
51.5938 6.708 0.264
51.6143 6.938 0.269
51.6347 6.979 0.270
51.6552 6.625 0.263
51.6757 6.729 0.265
51.6961 6.135 0.253
51.7166 6.188 0.254
51.7370 6.250 0.255
51.7575 6.271 0.256
51.7780 6.427 0.259
51.7984 6.583 0.262
51.8189 6.208 0.254
51.8394 6.490 0.260
51.8598 6.042 0.251
51.8803 6.115 0.252
51.9007 6.708 0.264
51.9212 6.417 0.259
51.9417 6.292 0.256
51.9621 6.052 0.251
51.9826 6.438 0.259
52.0031 6.240 0.255
52.0235 5.271 0.234
52.0440 6.031 0.251
52.0644 6.250 0.255
52.0849 5.510 0.240
52.1054 5.469 0.239
52.1258 5.615 0.242
52.1463 5.198 0.233
52.1668 5.719 0.244
52.1872 5.271 0.234
52.2077 5.719 0.244
52.2281 5.531 0.240
52.2486 5.375 0.237
52.2691 5.563 0.241
52.2895 5.740 0.245
52.3100 5.677 0.243
52.3305 5.375 0.237
52.3509 5.375 0.237
52.3714 5.813 0.246
52.3918 5.260 0.234
52.4123 5.563 0.241
52.4328 5.083 0.230
52.4532 5.292 0.235
52.4737 5.417 0.238
52.4942 5.542 0.240
52.5146 5.104 0.231
52.5351 5.146 0.232
52.5556 4.917 0.226
52.5760 5.406 0.237
52.5965 4.771 0.223
52.6169 4.969 0.228
52.6374 5.010 0.228
52.6579 5.031 0.229
52.6783 5.313 0.235
52.6988 5.208 0.233
52.7193 5.083 0.230
52.7397 4.698 0.221
52.7602 5.385 0.237
52.7806 5.042 0.229
52.8011 5.229 0.233
52.8216 4.906 0.226
52.8420 4.771 0.223
52.8625 5.073 0.230
52.8830 5.000 0.228
52.9034 4.771 0.223
52.9239 5.177 0.232
52.9443 5.188 0.232
52.9648 5.104 0.231
52.9853 5.740 0.245
53.0057 5.198 0.233
53.0262 5.573 0.241
53.0467 5.583 0.241
53.0671 4.938 0.227
53.0876 4.698 0.221
53.1080 5.500 0.239
53.1285 5.510 0.240
53.1490 5.490 0.239
53.1694 5.563 0.241
53.1899 5.604 0.242
53.2104 5.073 0.230
53.2308 5.260 0.234
53.2513 4.875 0.225
53.2717 5.250 0.234
53.2922 5.271 0.234
53.3127 4.885 0.226
53.3331 5.438 0.238
53.3536 4.979 0.228
53.3741 4.844 0.225
53.3945 4.917 0.226
53.4150 5.646 0.243
53.4355 5.438 0.238
53.4559 5.552 0.240
53.4764 5.260 0.234
53.4968 5.271 0.234
53.5173 5.063 0.230
53.5378 5.188 0.232
53.5582 4.813 0.224
53.5787 5.146 0.232
53.5992 4.938 0.227
53.6196 5.271 0.234
53.6401 5.323 0.235
53.6605 5.885 0.248
53.6810 5.948 0.249
53.7015 5.667 0.243
53.7219 5.688 0.243
53.7424 5.375 0.237
53.7629 5.188 0.232
53.7833 5.427 0.238
53.8038 5.938 0.249
53.8242 5.542 0.240
53.8447 5.479 0.239
53.8652 5.031 0.229
53.8856 5.219 0.233
53.9061 5.271 0.234
53.9266 4.813 0.224
53.9470 4.969 0.228
53.9675 4.740 0.222
53.9879 4.677 0.221
54.0084 4.802 0.224
54.0289 4.969 0.228
54.0493 4.792 0.223
54.0698 4.917 0.226
54.0903 4.531 0.217
54.1107 4.906 0.226
54.1312 4.896 0.226
54.1516 4.990 0.228
54.1721 4.813 0.224
54.1926 4.917 0.226
54.2130 5.000 0.228
54.2335 4.719 0.222
54.2540 4.490 0.216
54.2744 4.698 0.221
54.2949 5.354 0.236
54.3154 4.885 0.226
54.3358 5.281 0.235
54.3563 4.740 0.222
54.3767 5.167 0.232
54.3972 4.854 0.225
54.4177 5.146 0.232
54.4381 5.125 0.231
54.4586 5.281 0.235
54.4791 5.125 0.231
54.4995 4.948 0.227
54.5200 6.302 0.256
54.5404 6.188 0.254
54.5609 5.833 0.247
54.5814 5.563 0.241
54.6018 5.385 0.237
54.6223 5.469 0.239
54.6428 5.656 0.243
54.6632 5.813 0.246
54.6837 5.219 0.233
54.7041 5.958 0.249
54.7246 5.156 0.232
54.7451 5.260 0.234
54.7655 5.198 0.233
54.7860 5.438 0.238
54.8065 5.052 0.229
54.8269 5.115 0.231
54.8474 5.240 0.234
54.8678 4.823 0.224
54.8883 5.292 0.235
54.9088 5.146 0.232
54.9292 5.625 0.242
54.9497 6.073 0.252
54.9702 6.260 0.255
54.9906 7.031 0.271
55.0111 7.115 0.272
55.0316 7.156 0.273
55.0520 9.292 0.311
55.0725 10.031 0.323
55.0929 10.063 0.324
55.1134 10.365 0.329
55.1339 10.281 0.327
55.1543 11.052 0.339
55.1748 11.948 0.353
55.1953 12.833 0.366
55.2157 12.948 0.367
55.2362 12.302 0.358
55.2566 12.292 0.358
55.2771 10.823 0.336
55.2976 10.479 0.330
55.3180 10.271 0.327
55.3385 9.167 0.309
55.3590 9.000 0.306
55.3794 8.510 0.298
55.3999 7.927 0.287
55.4203 7.708 0.283
55.4408 7.083 0.272
55.4613 6.344 0.257
55.4817 5.823 0.246
55.5022 5.979 0.250
55.5227 5.510 0.240
55.5431 5.906 0.248
55.5636 5.385 0.237
55.5840 5.302 0.235
55.6045 4.979 0.228
55.6250 5.313 0.235
55.6454 5.135 0.231
55.6659 5.563 0.241
55.6864 5.698 0.244
55.7068 5.510 0.240
55.7273 5.510 0.240
55.7477 5.625 0.242
55.7682 5.177 0.232
55.7887 5.240 0.234
55.8091 5.115 0.231
55.8296 5.375 0.237
55.8501 5.875 0.247
55.8705 5.417 0.238
55.8910 5.552 0.240
55.9115 6.073 0.252
55.9319 5.552 0.240
55.9524 5.625 0.242
55.9728 5.708 0.244
55.9933 5.688 0.243
56.0138 6.094 0.252
56.0342 6.146 0.253
56.0547 6.573 0.262
56.0752 7.115 0.272
56.0956 7.260 0.275
56.1161 7.146 0.273
56.1365 7.958 0.288
56.1570 8.458 0.297
56.1775 8.323 0.294
56.1979 8.375 0.295
56.2184 8.188 0.292
56.2389 7.448 0.279
56.2593 7.323 0.276
56.2798 7.313 0.276
56.3002 7.677 0.283
56.3207 7.354 0.277
56.3412 7.104 0.272
56.3616 6.740 0.265
56.3821 7.083 0.272
56.4026 5.948 0.249
56.4230 5.906 0.248
56.4435 5.469 0.239
56.4639 5.542 0.240
56.4844 5.396 0.237
56.5049 4.938 0.227
56.5253 5.583 0.241
56.5458 5.500 0.239
56.5663 5.854 0.247
56.5867 5.417 0.238
56.6072 5.479 0.239
56.6276 6.063 0.251
56.6481 6.375 0.258
56.6686 6.458 0.259
56.6890 6.625 0.263
56.7095 7.021 0.270
56.7300 5.510 0.240
56.7504 5.146 0.232
56.7709 5.458 0.238
56.7914 5.854 0.247
56.8118 5.438 0.238
56.8323 5.167 0.232
56.8527 5.094 0.230
56.8732 5.344 0.236
56.8937 4.844 0.225
56.9141 4.542 0.218
56.9346 4.771 0.223
56.9551 4.510 0.217
56.9755 4.354 0.213
56.9960 4.396 0.214
57.0164 3.990 0.204
57.0369 4.156 0.208
57.0574 4.458 0.216
57.0778 4.240 0.210
57.0983 4.552 0.218
57.1188 4.698 0.221
57.1392 4.354 0.213
57.1597 4.531 0.217
57.1801 4.885 0.226
57.2006 4.927 0.227
57.2211 4.135 0.208
57.2415 4.781 0.223
57.2620 4.583 0.219
57.2825 4.521 0.217
57.3029 4.823 0.224
57.3234 4.563 0.218
57.3438 5.083 0.230
57.3643 4.573 0.218
57.3848 4.823 0.224
57.4052 5.135 0.231
57.4257 4.813 0.224
57.4462 4.948 0.227
57.4666 4.844 0.225
57.4871 4.958 0.227
57.5075 5.427 0.238
57.5280 5.177 0.232
57.5485 5.448 0.238
57.5689 5.354 0.236
57.5894 4.969 0.228
57.6099 5.375 0.237
57.6303 5.135 0.231
57.6508 4.781 0.223
57.6713 5.104 0.231
57.6917 5.063 0.230
57.7122 5.219 0.233
57.7326 4.938 0.227
57.7531 5.135 0.231
57.7736 5.333 0.236
57.7940 5.583 0.241
57.8145 5.000 0.228
57.8350 4.865 0.225
57.8554 5.792 0.246
57.8759 5.219 0.233
57.8963 5.271 0.234
57.9168 5.667 0.243
57.9373 5.469 0.239
57.9577 5.031 0.229
57.9782 5.927 0.248
57.9987 5.885 0.248
58.0191 5.510 0.240
58.0396 5.271 0.234
58.0600 5.875 0.247
58.0805 5.115 0.231
58.1010 5.260 0.234
58.1214 5.417 0.238
58.1419 5.271 0.234
58.1624 5.521 0.240
58.1828 5.615 0.242
58.2033 5.333 0.236
58.2237 5.396 0.237
58.2442 5.271 0.234
58.2647 5.563 0.241
58.2851 5.365 0.236
58.3056 5.104 0.231
58.3261 4.948 0.227
58.3465 5.104 0.231
58.3670 5.073 0.230
58.3874 5.479 0.239
58.4079 5.458 0.238
58.4284 5.094 0.230
58.4488 5.969 0.249
58.4693 5.969 0.249
58.4898 5.958 0.249
58.5102 5.750 0.245
58.5307 5.604 0.242
58.5512 5.552 0.240
58.5716 5.167 0.232
58.5921 5.156 0.232
58.6125 5.396 0.237
58.6330 5.167 0.232
58.6535 5.281 0.235
58.6739 5.573 0.241
58.6944 5.042 0.229
58.7149 5.635 0.242
58.7353 4.729 0.222
58.7558 4.833 0.224
58.7762 5.615 0.242
58.7967 5.438 0.238
58.8172 5.427 0.238
58.8376 5.729 0.244
58.8581 5.344 0.236
58.8786 5.323 0.235
58.8990 5.385 0.237
58.9195 5.552 0.240
58.9399 5.063 0.230
58.9604 5.083 0.230
58.9809 5.240 0.234
59.0013 4.969 0.228
59.0218 4.990 0.228
59.0423 5.604 0.242
59.0627 5.323 0.235
59.0832 5.583 0.241
59.1036 5.156 0.232
59.1241 5.667 0.243
59.1446 5.385 0.237
59.1650 5.104 0.231
59.1855 5.198 0.233
59.2060 5.219 0.233
59.2264 5.177 0.232
59.2469 4.927 0.227
59.2674 4.771 0.223
59.2878 5.125 0.231
59.3083 4.521 0.217
59.3287 4.521 0.217
59.3492 4.750 0.222
59.3697 4.906 0.226
59.3901 4.125 0.207
59.4106 4.323 0.212
59.4311 4.573 0.218
59.4515 4.344 0.213
59.4720 4.385 0.214
59.4924 4.198 0.209
59.5129 4.417 0.214
59.5334 4.604 0.219
59.5538 3.948 0.203
59.5743 4.365 0.213
59.5948 4.000 0.204
59.6152 4.229 0.210
59.6357 4.302 0.212
59.6561 4.229 0.210
59.6766 4.552 0.218
59.6971 4.260 0.211
59.7175 4.333 0.212
59.7380 4.271 0.211
59.7585 4.427 0.215
59.7789 4.510 0.217
59.7994 4.365 0.213
59.8198 4.667 0.220
59.8403 4.792 0.223
59.8608 5.052 0.229
59.8812 4.375 0.213
59.9017 4.438 0.215
59.9222 4.417 0.214
59.9426 4.469 0.216
59.9631 4.615 0.219
59.9835 4.510 0.217
60.0040 4.104 0.207
60.0245 4.323 0.212
60.0449 4.865 0.225
60.0654 4.052 0.205
60.0859 4.292 0.211
60.1063 4.083 0.206
60.1268 4.177 0.209
60.1473 4.229 0.210
60.1677 4.229 0.210
60.1882 4.313 0.212
60.2086 4.156 0.208
60.2291 4.229 0.210
60.2496 4.125 0.207
60.2700 4.490 0.216
60.2905 4.260 0.211
60.3110 4.698 0.221
60.3314 4.323 0.212
60.3519 4.344 0.213
60.3723 4.240 0.210
60.3928 4.083 0.206
60.4133 4.438 0.215
60.4337 4.135 0.208
60.4542 4.333 0.212
60.4747 4.156 0.208
60.4951 4.188 0.209
60.5156 4.354 0.213
60.5360 3.708 0.197
60.5565 4.000 0.204
60.5770 4.302 0.212
60.5974 4.375 0.213
60.6179 3.719 0.197
60.6384 4.417 0.214
60.6588 3.979 0.204
60.6793 3.979 0.204
60.6997 4.104 0.207
60.7202 4.458 0.216
60.7407 4.719 0.222
60.7611 4.698 0.221
60.7816 4.531 0.217
60.8021 3.927 0.202
60.8225 4.542 0.218
60.8430 4.323 0.212
60.8634 4.458 0.216
60.8839 4.292 0.211
60.9044 4.417 0.214
60.9248 4.354 0.213
60.9453 4.406 0.214
60.9658 4.260 0.211
60.9862 4.781 0.223
61.0067 4.750 0.222
61.0272 4.635 0.220
61.0476 4.479 0.216
61.0681 4.010 0.204
61.0885 3.917 0.202
61.1090 4.406 0.214
61.1295 4.271 0.211
61.1499 4.208 0.209
61.1704 4.281 0.211
61.1909 3.906 0.202
61.2113 3.979 0.204
61.2318 4.375 0.213
61.2522 4.167 0.208
61.2727 4.354 0.213
61.2932 4.198 0.209
61.3136 4.427 0.215
61.3341 4.625 0.219
61.3546 4.688 0.221
61.3750 5.354 0.236
61.3955 4.479 0.216
61.4159 4.500 0.217
61.4364 3.781 0.198
61.4569 3.729 0.197
61.4773 4.365 0.213
61.4978 4.563 0.218
61.5183 4.219 0.210
61.5387 4.302 0.212
61.5592 4.271 0.211
61.5796 4.125 0.207
61.6001 4.073 0.206
61.6206 3.698 0.196
61.6410 3.417 0.189
61.6615 3.875 0.201
61.6820 3.531 0.192
61.7024 3.896 0.201
61.7229 3.521 0.192
61.7433 3.698 0.196
61.7638 3.667 0.195
61.7843 3.698 0.196
61.8047 3.552 0.192
61.8252 3.656 0.195
61.8457 3.708 0.197
61.8661 3.813 0.199
61.8866 3.823 0.200
61.9071 4.240 0.210
61.9275 4.000 0.204
61.9480 4.021 0.205
61.9684 4.031 0.205
61.9889 3.833 0.200
62.0094 3.604 0.194
62.0298 3.917 0.202
62.0503 4.021 0.205
62.0708 4.188 0.209
62.0912 3.781 0.198
62.1117 4.365 0.213
62.1321 3.906 0.202
62.1526 4.010 0.204
62.1731 4.000 0.204
62.1935 3.990 0.204
62.2140 3.677 0.196
62.2345 4.052 0.205
62.2549 3.823 0.200
62.2754 3.823 0.200
62.2958 3.573 0.193
62.3163 3.719 0.197
62.3368 3.396 0.188
62.3572 3.688 0.196
62.3777 3.365 0.187
62.3982 3.708 0.197
62.4186 3.885 0.201
62.4391 3.938 0.203
62.4595 3.646 0.195
62.4800 3.750 0.198
62.5005 3.688 0.196
62.5209 3.740 0.197
62.5414 3.615 0.194
62.5619 3.958 0.203
62.5823 3.604 0.194
62.6028 3.865 0.201
62.6232 3.052 0.178
62.6437 3.677 0.196
62.6642 3.188 0.182
62.6846 3.604 0.194
62.7051 3.292 0.185
62.7256 3.469 0.190
62.7460 3.698 0.196
62.7665 3.865 0.201
62.7870 3.354 0.187
62.8074 3.646 0.195
62.8279 3.469 0.190
62.8483 3.667 0.195
62.8688 3.885 0.201
62.8893 3.823 0.200
62.9097 3.677 0.196
62.9302 3.490 0.191
62.9507 3.792 0.199
62.9711 3.802 0.199
62.9916 3.729 0.197
63.0120 3.667 0.195
63.0325 4.010 0.204
63.0530 4.125 0.207
63.0734 3.458 0.190
63.0939 3.677 0.196
63.1144 3.615 0.194
63.1348 3.604 0.194
63.1553 3.844 0.200
63.1757 3.563 0.193
63.1962 3.667 0.195
63.2167 4.094 0.207
63.2371 4.010 0.204
63.2576 4.000 0.204
63.2781 3.865 0.201
63.2985 3.906 0.202
63.3190 4.177 0.209
63.3394 3.917 0.202
63.3599 3.875 0.201
63.3804 3.938 0.203
63.4008 4.219 0.210
63.4213 4.563 0.218
63.4418 4.708 0.221
63.4622 4.188 0.209
63.4827 4.510 0.217
63.5032 4.500 0.217
63.5236 4.365 0.213
63.5441 4.656 0.220
63.5645 4.917 0.226
63.5850 4.771 0.223
63.6055 4.635 0.220
63.6259 4.740 0.222
63.6464 4.458 0.216
63.6669 5.135 0.231
63.6873 4.531 0.217
63.7078 4.510 0.217
63.7282 4.604 0.219
63.7487 4.896 0.226
63.7692 4.427 0.215
63.7896 4.583 0.219
63.8101 5.198 0.233
63.8306 4.844 0.225
63.8510 4.823 0.224
63.8715 4.896 0.226
63.8919 4.635 0.220
63.9124 4.469 0.216
63.9329 4.750 0.222
63.9533 5.146 0.232
63.9738 4.542 0.218
63.9943 4.208 0.209
64.0147 4.396 0.214
64.0352 4.438 0.215
64.0556 4.490 0.216
64.0761 4.292 0.211
64.0966 4.479 0.216
64.1170 4.031 0.205
64.1375 4.146 0.208
64.1580 4.167 0.208
64.1784 4.938 0.227
64.1989 4.250 0.210
64.2193 4.365 0.213
64.2398 4.500 0.217
64.2603 4.406 0.214
64.2807 4.010 0.204
64.3012 3.844 0.200
64.3217 4.458 0.216
64.3421 4.073 0.206
64.3626 4.323 0.212
64.3831 4.510 0.217
64.4035 3.969 0.203
64.4240 4.229 0.210
64.4444 4.406 0.214
64.4649 4.354 0.213
64.4854 4.427 0.215
64.5058 4.531 0.217
64.5263 4.635 0.220
64.5468 4.667 0.220
64.5672 4.698 0.221
64.5877 5.156 0.232
64.6081 5.250 0.234
64.6286 5.531 0.240
64.6491 5.417 0.238
64.6695 5.750 0.245
64.6900 5.688 0.243
64.7105 5.792 0.246
64.7309 5.396 0.237
64.7514 5.313 0.235
64.7718 5.177 0.232
64.7923 5.229 0.233
64.8128 4.958 0.227
64.8332 5.271 0.234
64.8537 5.063 0.230
64.8742 4.594 0.219
64.8946 4.521 0.217
64.9151 4.646 0.220
64.9355 3.896 0.201
64.9560 4.667 0.220
64.9765 4.250 0.210
64.9969 4.406 0.214
65.0174 4.063 0.206
65.0379 4.208 0.209
65.0583 3.823 0.200
65.0788 4.167 0.208
65.0992 3.948 0.203
65.1197 4.083 0.206
65.1402 4.250 0.210
65.1606 3.823 0.200
65.1811 4.031 0.205
65.2016 4.177 0.209
65.2220 4.094 0.207
65.2425 3.875 0.201
65.2630 4.167 0.208
65.2834 4.052 0.205
65.3039 3.854 0.200
65.3243 3.875 0.201
65.3448 3.823 0.200
65.3653 3.781 0.198
65.3857 4.135 0.208
65.4062 4.490 0.216
65.4267 4.302 0.212
65.4471 4.021 0.205
65.4676 4.333 0.212
65.4880 4.115 0.207
65.5085 4.667 0.220
65.5290 4.531 0.217
65.5494 4.677 0.221
65.5699 4.615 0.219
65.5904 4.510 0.217
65.6108 4.583 0.219
65.6313 4.604 0.219
65.6517 4.438 0.215
65.6722 4.188 0.209
65.6927 4.073 0.206
65.7131 4.052 0.205
65.7336 4.365 0.213
65.7541 4.542 0.218
65.7745 4.729 0.222
65.7950 4.135 0.208
65.8154 4.063 0.206
65.8359 4.396 0.214
65.8564 4.125 0.207
65.8768 4.448 0.215
65.8973 3.750 0.198
65.9178 4.333 0.212
65.9382 4.250 0.210
65.9587 4.406 0.214
65.9791 3.979 0.204
65.9996 3.635 0.195
66.0201 3.969 0.203
66.0405 3.740 0.197
66.0610 4.250 0.210
66.0815 4.302 0.212
66.1019 3.885 0.201
66.1224 3.729 0.197
66.1429 3.979 0.204
66.1633 3.917 0.202
66.1838 3.917 0.202
66.2042 4.385 0.214
66.2247 4.021 0.205
66.2452 4.135 0.208
66.2656 3.750 0.198
66.2861 4.219 0.210
66.3066 3.813 0.199
66.3270 3.750 0.198
66.3475 3.771 0.198
66.3679 3.802 0.199
66.3884 3.740 0.197
66.4089 3.958 0.203
66.4293 4.083 0.206
66.4498 4.042 0.205
66.4703 3.917 0.202
66.4907 3.938 0.203
66.5112 3.917 0.202
66.5316 3.979 0.204
66.5521 3.865 0.201
66.5726 3.885 0.201
66.5930 3.646 0.195
66.6135 3.771 0.198
66.6340 3.646 0.195
66.6544 3.958 0.203
66.6749 3.771 0.198
66.6953 3.406 0.188
66.7158 3.958 0.203
66.7363 3.719 0.197
66.7567 3.635 0.195
66.7772 3.667 0.195
66.7977 3.938 0.203
66.8181 3.854 0.200
66.8386 3.729 0.197
66.8590 3.490 0.191
66.8795 3.656 0.195
66.9000 4.167 0.208
66.9204 4.260 0.211
66.9409 4.396 0.214
66.9614 4.125 0.207
66.9818 4.594 0.219
67.0023 4.594 0.219
67.0228 4.052 0.205
67.0432 4.427 0.215
67.0637 4.448 0.215
67.0841 4.813 0.224
67.1046 4.917 0.226
67.1251 5.031 0.229
67.1455 4.938 0.227
67.1660 4.760 0.223
67.1865 4.896 0.226
67.2069 4.958 0.227
67.2274 4.823 0.224
67.2478 4.823 0.224
67.2683 4.458 0.216
67.2888 4.833 0.224
67.3092 4.813 0.224
67.3297 4.354 0.213
67.3502 4.510 0.217
67.3706 4.740 0.222
67.3911 4.417 0.214
67.4115 4.583 0.219
67.4320 4.354 0.213
67.4525 4.385 0.214
67.4729 4.125 0.207
67.4934 3.906 0.202
67.5139 4.323 0.212
67.5343 4.115 0.207
67.5548 4.573 0.218
67.5752 4.333 0.212
67.5957 4.198 0.209
67.6162 4.510 0.217
67.6366 4.521 0.217
67.6571 4.042 0.205
67.6776 4.385 0.214
67.6980 4.188 0.209
67.7185 3.802 0.199
67.7389 3.688 0.196
67.7594 4.531 0.217
67.7799 4.563 0.218
67.8003 4.271 0.211
67.8208 3.979 0.204
67.8413 4.125 0.207
67.8617 4.188 0.209
67.8822 4.177 0.209
67.9027 4.750 0.222
67.9231 4.302 0.212
67.9436 4.375 0.213
67.9640 4.552 0.218
67.9845 4.156 0.208
68.0050 4.271 0.211
68.0254 4.240 0.210
68.0459 4.458 0.216
68.0664 4.542 0.218
68.0868 4.385 0.214
68.1073 4.031 0.205
68.1277 4.552 0.218
68.1482 4.135 0.208
68.1687 4.083 0.206
68.1891 3.927 0.202
68.2096 4.260 0.211
68.2301 4.323 0.212
68.2505 4.688 0.221
68.2710 4.198 0.209
68.2914 4.177 0.209
68.3119 4.073 0.206
68.3324 3.979 0.204
68.3528 4.042 0.205
68.3733 4.229 0.210
68.3938 4.052 0.205
68.4142 3.875 0.201
68.4347 3.823 0.200
68.4551 4.031 0.205
68.4756 3.948 0.203
68.4961 3.771 0.198
68.5165 3.875 0.201
68.5370 4.396 0.214
68.5575 3.688 0.196
68.5779 3.896 0.201
68.5984 3.677 0.196
68.6189 3.760 0.198
68.6393 3.667 0.195
68.6598 3.823 0.200
68.6802 3.313 0.186
68.7007 3.781 0.198
68.7212 3.552 0.192
68.7416 3.479 0.190
68.7621 3.594 0.193
68.7826 3.458 0.190
68.8030 3.698 0.196
68.8235 3.573 0.193
68.8439 3.604 0.194
68.8644 3.573 0.193
68.8849 3.427 0.189
68.9053 3.281 0.185
68.9258 3.958 0.203
68.9463 3.813 0.199
68.9667 3.656 0.195
68.9872 3.656 0.195
69.0076 3.708 0.197
69.0281 3.573 0.193
69.0486 3.906 0.202
69.0690 3.760 0.198
69.0895 3.635 0.195
69.1100 4.156 0.208
69.1304 3.760 0.198
69.1509 3.833 0.200
69.1713 3.635 0.195
69.1918 3.844 0.200
69.2123 3.813 0.199
69.2327 3.948 0.203
69.2532 3.448 0.190
69.2737 3.490 0.191
69.2941 3.625 0.194
69.3146 3.667 0.195
69.3350 3.156 0.181
69.3555 3.302 0.185
69.3760 3.740 0.197
69.3964 3.250 0.184
69.4169 3.344 0.187
69.4374 3.375 0.188
69.4578 3.396 0.188
69.4783 3.438 0.189
69.4988 3.552 0.192
69.5192 3.240 0.184
69.5397 3.458 0.190
69.5601 3.521 0.192
69.5806 3.354 0.187
69.6011 3.625 0.194
69.6215 3.344 0.187
69.6420 3.188 0.182
69.6625 3.500 0.191
69.6829 3.281 0.185
69.7034 3.281 0.185
69.7238 3.458 0.190
69.7443 3.135 0.181
69.7648 3.292 0.185
69.7852 3.385 0.188
69.8057 3.417 0.189
69.8262 3.281 0.185
69.8466 3.594 0.193
69.8671 3.260 0.184
69.8875 3.219 0.183
69.9080 3.500 0.191
69.9285 3.104 0.180
69.9489 3.010 0.177
69.9694 3.135 0.181
69.9899 3.323 0.186
70.0103 3.510 0.191
70.0308 3.094 0.180
70.0512 3.750 0.198
70.0717 3.396 0.188
70.0922 3.396 0.188
70.1126 2.948 0.175
70.1331 3.490 0.191
70.1536 3.729 0.197
70.1740 3.510 0.191
70.1945 3.760 0.198
70.2149 3.448 0.190
70.2354 3.656 0.195
70.2559 3.354 0.187
70.2763 3.365 0.187
70.2968 3.417 0.189
70.3173 3.521 0.192
70.3377 3.177 0.182
70.3582 3.292 0.185
70.3787 3.188 0.182
70.3991 3.115 0.180
70.4196 3.302 0.185
70.4400 3.396 0.188
70.4605 3.281 0.185
70.4810 3.146 0.181
70.5014 3.188 0.182
70.5219 3.083 0.179
70.5424 3.031 0.178
70.5628 3.240 0.184
70.5833 3.448 0.190
70.6037 3.250 0.184
70.6242 3.271 0.185
70.6447 3.344 0.187
70.6651 2.938 0.175
70.6856 3.292 0.185
70.7061 3.135 0.181
70.7265 3.104 0.180
70.7470 3.167 0.182
70.7674 3.500 0.191
70.7879 3.219 0.183
70.8084 3.458 0.190
70.8288 3.229 0.183
70.8493 3.302 0.185
70.8698 2.979 0.176
70.8902 3.052 0.178
70.9107 3.000 0.177
70.9311 3.073 0.179
70.9516 2.854 0.172
70.9721 2.927 0.175
70.9925 3.385 0.188
71.0130 3.292 0.185
71.0335 3.094 0.180
71.0539 3.063 0.179
71.0744 2.938 0.175
71.0948 2.875 0.173
71.1153 3.073 0.179
71.1358 2.542 0.163
71.1562 2.813 0.171
71.1767 2.771 0.170
71.1972 2.813 0.171
71.2176 2.990 0.176
71.2381 3.000 0.177
71.2586 3.063 0.179
71.2790 2.969 0.176
71.2995 2.917 0.174
71.3199 3.021 0.177
71.3404 3.083 0.179
71.3609 3.229 0.183
71.3813 2.854 0.172
71.4018 3.063 0.179
71.4223 2.802 0.171
71.4427 2.823 0.171
71.4632 2.875 0.173
71.4836 3.344 0.187
71.5041 3.198 0.183
71.5246 2.573 0.164
71.5450 2.958 0.176
71.5655 3.427 0.189
71.5860 3.510 0.191
71.6064 2.917 0.174
71.6269 3.167 0.182
71.6473 2.844 0.172
71.6678 3.125 0.180
71.6883 2.927 0.175
71.7087 3.229 0.183
71.7292 3.219 0.183
71.7497 3.115 0.180
71.7701 2.979 0.176
71.7906 2.771 0.170
71.8110 3.010 0.177
71.8315 2.917 0.174
71.8520 2.917 0.174
71.8724 2.875 0.173
71.8929 3.167 0.182
71.9134 2.938 0.175
71.9338 3.021 0.177
71.9543 3.125 0.180
71.9747 3.177 0.182
71.9952 2.875 0.173
72.0157 3.188 0.182
72.0361 3.083 0.179
72.0566 2.990 0.176
72.0771 3.167 0.182
72.0975 3.156 0.181
72.1180 3.229 0.183
72.1385 3.188 0.182
72.1589 3.521 0.192
72.1794 3.542 0.192
72.1998 3.188 0.182
72.2203 3.271 0.185
72.2408 3.052 0.178
72.2612 3.146 0.181
72.2817 3.115 0.180
72.3022 3.438 0.189
72.3226 2.958 0.176
72.3431 3.250 0.184
72.3635 3.042 0.178
72.3840 2.719 0.168
72.4045 3.063 0.179
72.4249 2.531 0.162
72.4454 2.844 0.172
72.4659 2.688 0.167
72.4863 3.052 0.178
72.5068 2.667 0.167
72.5272 2.594 0.164
72.5477 2.740 0.169
72.5682 2.896 0.174
72.5886 2.792 0.171
72.6091 2.927 0.175
72.6296 2.948 0.175
72.6500 2.802 0.171
72.6705 3.010 0.177
72.6909 2.969 0.176
72.7114 2.958 0.176
72.7319 2.719 0.168
72.7523 2.958 0.176
72.7728 2.958 0.176
72.7933 2.427 0.159
72.8137 2.750 0.169
72.8342 2.573 0.164
72.8547 3.094 0.180
72.8751 2.729 0.169
72.8956 3.031 0.178
72.9160 3.031 0.178
72.9365 2.688 0.167
72.9570 2.667 0.167
72.9774 3.031 0.178
72.9979 2.948 0.175
73.0184 2.865 0.173
73.0388 2.781 0.170
73.0593 2.906 0.174
73.0797 2.563 0.163
73.1002 2.385 0.158
73.1207 2.594 0.164
73.1411 2.500 0.161
73.1616 2.479 0.161
73.1821 2.458 0.160
73.2025 2.531 0.162
73.2230 2.750 0.169
73.2434 2.594 0.164
73.2639 2.729 0.169
73.2844 2.667 0.167
73.3048 2.979 0.176
73.3253 2.854 0.172
73.3458 2.771 0.170
73.3662 2.740 0.169
73.3867 2.573 0.164
73.4071 2.875 0.173
73.4276 2.552 0.163
73.4481 2.510 0.162
73.4685 2.417 0.159
73.4890 2.667 0.167
73.5095 2.510 0.162
73.5299 2.542 0.163
73.5504 2.594 0.164
73.5708 2.708 0.168
73.5913 2.667 0.167
73.6118 2.865 0.173
73.6322 2.667 0.167
73.6527 2.854 0.172
73.6732 2.531 0.162
73.6936 2.625 0.165
73.7141 2.479 0.161
73.7346 2.604 0.165
73.7550 2.667 0.167
73.7755 2.771 0.170
73.7959 2.896 0.174
73.8164 2.594 0.164
73.8369 2.604 0.165
73.8573 2.635 0.166
73.8778 2.781 0.170
73.8983 3.146 0.181
73.9187 2.948 0.175
73.9392 2.885 0.173
73.9596 2.958 0.176
73.9801 2.833 0.172
74.0006 2.990 0.176
74.0210 2.823 0.171
74.0415 2.594 0.164
74.0620 3.000 0.177
74.0824 3.146 0.181
74.1029 2.948 0.175
74.1233 2.979 0.176
74.1438 2.885 0.173
74.1643 2.615 0.165
74.1847 2.833 0.172
74.2052 2.750 0.169
74.2257 2.479 0.161
74.2461 2.688 0.167
74.2666 2.260 0.153
74.2870 2.865 0.173
74.3075 2.781 0.170
74.3280 2.479 0.161
74.3484 2.583 0.164
74.3689 2.615 0.165
74.3894 2.875 0.173
74.4098 2.448 0.160
74.4303 2.833 0.172
74.4507 2.635 0.166
74.4712 2.698 0.168
74.4917 2.500 0.161
74.5121 2.760 0.170
74.5326 2.406 0.158
74.5531 2.479 0.161
74.5735 2.510 0.162
74.5940 2.479 0.161
74.6145 2.677 0.167
74.6349 2.406 0.158
74.6554 2.510 0.162
74.6758 2.521 0.162
74.6963 2.729 0.169
74.7168 2.427 0.159
74.7372 2.271 0.154
74.7577 2.281 0.154
74.7782 2.531 0.162
74.7986 2.667 0.167
74.8191 2.583 0.164
74.8395 2.813 0.171
74.8600 2.771 0.170
74.8805 2.583 0.164
74.9009 2.583 0.164
74.9214 2.667 0.167
74.9419 2.469 0.160
74.9623 2.750 0.169
74.9828 2.667 0.167
75.0032 2.740 0.169
75.0237 3.260 0.184
75.0442 2.667 0.167
75.0646 2.813 0.171
75.0851 2.875 0.173
75.1056 2.823 0.171
75.1260 2.781 0.170
75.1465 2.438 0.159
75.1669 2.500 0.161
75.1874 2.958 0.176
75.2079 2.865 0.173
75.2283 2.729 0.169
75.2488 2.875 0.173
75.2693 2.667 0.167
75.2897 2.760 0.170
75.3102 2.667 0.167
75.3306 3.000 0.177
75.3511 3.021 0.177
75.3716 2.729 0.169
75.3920 2.750 0.169
75.4125 2.698 0.168
75.4330 2.656 0.166
75.4534 2.688 0.167
75.4739 2.698 0.168
75.4944 2.781 0.170
75.5148 2.635 0.166
75.5353 2.833 0.172
75.5557 3.104 0.180
75.5762 2.865 0.173
75.5967 3.115 0.180
75.6171 3.188 0.182
75.6376 2.708 0.168
75.6581 2.927 0.175
75.6785 3.073 0.179
75.6990 3.031 0.178
75.7194 3.260 0.184
75.7399 3.219 0.183
75.7604 3.271 0.185
75.7808 3.271 0.185
75.8013 3.292 0.185
75.8218 3.479 0.190
75.8422 3.427 0.189
75.8627 2.969 0.176
75.8831 3.188 0.182
75.9036 3.052 0.178
75.9241 2.917 0.174
75.9445 2.958 0.176
75.9650 2.969 0.176
75.9855 3.208 0.183
76.0059 3.365 0.187
76.0264 3.208 0.183
76.0468 3.479 0.190
76.0673 2.927 0.175
76.0878 3.010 0.177
76.1082 3.385 0.188
76.1287 2.948 0.175
76.1492 2.719 0.168
76.1696 3.094 0.180
76.1901 2.948 0.175
76.2105 2.781 0.170
76.2310 3.010 0.177
76.2515 2.833 0.172
76.2719 2.750 0.169
76.2924 2.531 0.162
76.3129 2.760 0.170
76.3333 2.927 0.175
76.3538 2.708 0.168
76.3743 2.823 0.171
76.3947 2.688 0.167
76.4152 2.885 0.173
76.4356 2.688 0.167
76.4561 2.604 0.165
76.4766 2.917 0.174
76.4970 2.792 0.171
76.5175 3.125 0.180
76.5380 2.552 0.163
76.5584 3.010 0.177
76.5789 2.573 0.164
76.5993 2.656 0.166
76.6198 2.792 0.171
76.6403 2.917 0.174
76.6607 3.021 0.177
76.6812 2.677 0.167
76.7017 2.781 0.170
76.7221 2.917 0.174
76.7426 2.604 0.165
76.7630 2.563 0.163
76.7835 2.500 0.161
76.8040 2.385 0.158
76.8244 2.781 0.170
76.8449 2.677 0.167
76.8654 2.438 0.159
76.8858 2.563 0.163
76.9063 2.708 0.168
76.9267 2.771 0.170
76.9472 2.646 0.166
76.9677 2.833 0.172
76.9881 3.010 0.177
77.0086 2.552 0.163
77.0291 3.052 0.178
77.0495 2.594 0.164
77.0700 3.031 0.178
77.0905 2.771 0.170
77.1109 2.604 0.165
77.1314 2.885 0.173
77.1518 2.854 0.172
77.1723 2.854 0.172
77.1928 2.802 0.171
77.2132 2.823 0.171
77.2337 2.729 0.169
77.2542 2.771 0.170
77.2746 2.771 0.170
77.2951 2.729 0.169
77.3155 2.885 0.173
77.3360 2.906 0.174
77.3565 2.938 0.175
77.3769 3.031 0.178
77.3974 2.656 0.166
77.4179 2.677 0.167
77.4383 2.625 0.165
77.4588 2.823 0.171
77.4792 2.875 0.173
77.4997 2.646 0.166
77.5202 2.729 0.169
77.5406 2.760 0.170
77.5611 3.229 0.183
77.5816 2.865 0.173
77.6020 2.896 0.174
77.6225 2.625 0.165
77.6429 2.833 0.172
77.6634 2.885 0.173
77.6839 2.833 0.172
77.7043 3.146 0.181
77.7248 3.198 0.183
77.7453 3.323 0.186
77.7657 3.229 0.183
77.7862 3.125 0.180
77.8066 3.313 0.186
77.8271 3.021 0.177
77.8476 3.313 0.186
77.8680 3.344 0.187
77.8885 2.854 0.172
77.9090 2.802 0.171
77.9294 2.927 0.175
77.9499 3.313 0.186
77.9704 2.979 0.176
77.9908 3.104 0.180
78.0113 2.844 0.172
78.0317 3.021 0.177
78.0522 2.979 0.176
78.0727 2.802 0.171
78.0931 3.156 0.181
78.1136 2.750 0.169
78.1341 2.719 0.168
78.1545 3.052 0.178
78.1750 2.865 0.173
78.1954 2.531 0.162
78.2159 2.625 0.165
78.2364 2.750 0.169
78.2568 3.073 0.179
78.2773 3.083 0.179
78.2978 3.000 0.177
78.3182 2.552 0.163
78.3387 2.917 0.174
78.3591 2.833 0.172
78.3796 2.885 0.173
78.4001 3.177 0.182
78.4205 2.906 0.174
78.4410 2.979 0.176
78.4615 2.865 0.173
78.4819 2.813 0.171
78.5024 3.125 0.180
78.5228 2.708 0.168
78.5433 2.875 0.173
78.5638 3.010 0.177
78.5842 2.646 0.166
78.6047 2.781 0.170
78.6252 2.781 0.170
78.6456 2.875 0.173
78.6661 2.563 0.163
78.6865 2.646 0.166
78.7070 3.104 0.180
78.7275 2.865 0.173
78.7479 2.917 0.174
78.7684 2.833 0.172
78.7889 2.719 0.168
78.8093 2.906 0.174
78.8298 2.875 0.173
78.8503 2.833 0.172
78.8707 3.094 0.180
78.8912 2.927 0.175
78.9116 2.990 0.176
78.9321 2.677 0.167
78.9526 2.875 0.173
78.9730 2.667 0.167
78.9935 2.750 0.169
79.0140 2.635 0.166
79.0344 2.719 0.168
79.0549 2.969 0.176
79.0753 3.042 0.178
79.0958 3.302 0.185
79.1163 2.521 0.162
79.1367 2.677 0.167
79.1572 3.000 0.177
79.1777 3.125 0.180
79.1981 3.052 0.178
79.2186 2.729 0.169
79.2390 2.823 0.171
79.2595 2.698 0.168
79.2800 2.823 0.171
79.3004 2.979 0.176
79.3209 2.958 0.176
79.3414 2.875 0.173
79.3618 3.031 0.178
79.3823 2.990 0.176
79.4027 2.833 0.172
79.4232 2.844 0.172
79.4437 2.823 0.171
79.4641 3.021 0.177
79.4846 3.156 0.181
79.5051 2.875 0.173
79.5255 3.156 0.181
79.5460 3.000 0.177
79.5664 2.990 0.176
79.5869 2.885 0.173
79.6074 3.031 0.178
79.6278 2.781 0.170
79.6483 2.865 0.173
79.6688 2.948 0.175
79.6892 2.844 0.172
79.7097 2.677 0.167
79.7302 2.927 0.175
79.7506 2.896 0.174
79.7711 3.313 0.186
79.7915 2.844 0.172
79.8120 2.833 0.172
79.8325 2.719 0.168
79.8529 2.698 0.168
79.8734 2.813 0.171
79.8939 2.771 0.170
79.9143 2.635 0.166
79.9348 2.896 0.174
79.9552 2.792 0.171
79.9757 2.771 0.170
79.9962 2.875 0.173
