'Id: "" Comment: "" Operator: "Lab Manager" Anode: "Cu" Scantype: "Locked Coupled" TimePerStep: "96" X: "0" Y: "0" Z: "0" 
5.0000 28.010 0.540
5.0205 29.385 0.553
5.0409 29.583 0.555
5.0614 27.604 0.536
5.0819 29.000 0.550
5.1023 28.365 0.544
5.1228 28.208 0.542
5.1432 27.792 0.538
5.1637 27.688 0.537
5.1842 27.969 0.540
5.2046 28.396 0.544
5.2251 27.688 0.537
5.2456 27.500 0.535
5.2660 27.417 0.534
5.2865 27.604 0.536
5.3069 26.646 0.527
5.3274 26.896 0.529
5.3479 27.531 0.536
5.3683 27.469 0.535
5.3888 27.125 0.532
5.4093 26.656 0.527
5.4297 27.083 0.531
5.4502 27.479 0.535
5.4706 27.729 0.537
5.4911 27.490 0.535
5.5116 25.760 0.518
5.5320 27.073 0.531
5.5525 26.510 0.525
5.5730 26.417 0.525
5.5934 25.604 0.516
5.6139 25.990 0.520
5.6343 26.448 0.525
5.6548 25.865 0.519
5.6753 25.938 0.520
5.6957 25.073 0.511
5.7162 26.781 0.528
5.7367 26.625 0.527
5.7571 25.844 0.519
5.7776 25.875 0.519
5.7980 26.354 0.524
5.8185 26.333 0.524
5.8390 26.708 0.527
5.8594 26.250 0.523
5.8799 26.125 0.522
5.9004 25.354 0.514
5.9208 26.438 0.525
5.9413 26.010 0.521
5.9618 26.125 0.522
5.9822 26.698 0.527
6.0027 25.771 0.518
6.0231 25.781 0.518
6.0436 25.135 0.512
6.0641 25.906 0.519
6.0845 26.844 0.529
6.1050 25.458 0.515
6.1255 25.250 0.513
6.1459 25.594 0.516
6.1664 25.646 0.517
6.1868 25.531 0.516
6.2073 25.750 0.518
6.2278 26.542 0.526
6.2482 25.833 0.519
6.2687 26.271 0.523
6.2892 26.281 0.523
6.3096 26.063 0.521
6.3301 26.146 0.522
6.3505 25.969 0.520
6.3710 25.656 0.517
6.3915 25.583 0.516
6.4119 26.479 0.525
6.4324 26.427 0.525
6.4529 26.615 0.527
6.4733 26.354 0.524
6.4938 26.740 0.528
6.5142 28.469 0.545
6.5347 28.417 0.544
6.5552 30.771 0.566
6.5756 32.646 0.583
6.5961 36.646 0.618
6.6166 42.771 0.667
6.6370 48.500 0.711
6.6575 45.104 0.685
6.6779 35.781 0.611
6.6984 30.104 0.560
6.7189 27.781 0.538
6.7393 27.292 0.533
6.7598 26.854 0.529
6.7803 26.656 0.527
6.8007 26.417 0.525
6.8212 25.948 0.520
6.8417 27.375 0.534
6.8621 26.156 0.522
6.8826 25.896 0.519
6.9030 25.667 0.517
6.9235 25.927 0.520
6.9440 25.813 0.519
6.9644 26.677 0.527
6.9849 26.063 0.521
7.0054 26.010 0.521
7.0258 25.073 0.511
7.0463 25.729 0.518
7.0667 26.375 0.524
7.0872 25.677 0.517
7.1077 26.302 0.523
7.1281 25.656 0.517
7.1486 26.375 0.524
7.1691 26.510 0.525
7.1895 26.219 0.523
7.2100 25.979 0.520
7.2304 26.375 0.524
7.2509 25.813 0.519
7.2714 25.875 0.519
7.2918 25.698 0.517
7.3123 24.719 0.507
7.3328 25.635 0.517
7.3532 26.146 0.522
7.3737 27.219 0.532
7.3941 26.010 0.521
7.4146 26.750 0.528
7.4351 25.750 0.518
7.4555 26.635 0.527
7.4760 25.667 0.517
7.4965 26.448 0.525
7.5169 26.969 0.530
7.5374 26.188 0.522
7.5579 27.073 0.531
7.5783 25.833 0.519
7.5988 25.396 0.514
7.6192 26.667 0.527
7.6397 26.583 0.526
7.6602 26.031 0.521
7.6806 26.552 0.526
7.7011 26.135 0.522
7.7216 25.156 0.512
7.7420 26.458 0.525
7.7625 26.865 0.529
7.7829 25.948 0.520
7.8034 26.479 0.525
7.8239 27.323 0.533
7.8443 27.167 0.532
7.8648 27.104 0.531
7.8853 28.073 0.541
7.9057 26.510 0.525
7.9262 27.302 0.533
7.9466 27.490 0.535
7.9671 26.938 0.530
7.9876 27.198 0.532
8.0080 26.406 0.524
8.0285 27.938 0.539
8.0490 27.979 0.540
8.0694 27.427 0.535
8.0899 27.104 0.531
8.1103 28.240 0.542
8.1308 28.292 0.543
8.1513 28.198 0.542
8.1717 29.010 0.550
8.1922 28.906 0.549
8.2127 28.750 0.547
8.2331 27.406 0.534
8.2536 27.750 0.538
8.2740 27.625 0.536
8.2945 28.427 0.544
8.3150 27.563 0.536
8.3354 27.615 0.536
8.3559 27.552 0.536
8.3764 27.708 0.537
8.3968 28.021 0.540
8.4173 28.375 0.544
8.4378 28.729 0.547
8.4582 28.406 0.544
8.4787 28.281 0.543
8.4991 28.396 0.544
8.5196 28.177 0.542
8.5401 28.573 0.546
8.5605 28.083 0.541
8.5810 28.802 0.548
8.6015 28.219 0.542
8.6219 28.208 0.542
8.6424 28.500 0.545
8.6628 29.521 0.555
8.6833 29.771 0.557
8.7038 31.375 0.572
8.7242 30.792 0.566
8.7447 30.667 0.565
8.7652 30.302 0.562
8.7856 31.885 0.576
8.8061 32.938 0.586
8.8265 31.938 0.577
8.8470 33.656 0.592
8.8675 35.906 0.612
8.8879 36.719 0.618
8.9084 37.344 0.624
8.9289 40.042 0.646
8.9493 43.771 0.675
8.9698 48.948 0.714
8.9902 53.854 0.749
9.0107 64.438 0.819
9.0312 74.677 0.882
9.0516 83.552 0.933
9.0721 84.510 0.938
9.0926 76.490 0.893
9.1130 67.250 0.837
9.1335 59.313 0.786
9.1539 58.167 0.778
9.1744 57.677 0.775
9.1949 61.698 0.802
9.2153 65.552 0.826
9.2358 69.250 0.849
9.2563 70.521 0.857
9.2767 73.240 0.873
9.2972 75.865 0.889
9.3177 74.958 0.884
9.3381 76.521 0.893
9.3586 77.917 0.901
9.3790 80.135 0.914
9.3995 80.573 0.916
9.4200 82.396 0.926
9.4404 89.156 0.964
9.4609 89.688 0.967
9.4814 92.563 0.982
9.5018 96.667 1.003
9.5223 98.740 1.014
9.5427 102.417 1.033
9.5632 106.781 1.055
9.5837 110.594 1.073
9.6041 115.656 1.098
9.6246 121.354 1.124
9.6451 130.688 1.167
9.6655 136.854 1.194
9.6860 152.833 1.262
9.7064 166.458 1.317
9.7269 189.167 1.404
9.7474 222.615 1.523
9.7678 266.083 1.665
9.7883 330.406 1.855
9.8088 405.448 2.055
9.8292 452.240 2.170
9.8497 394.260 2.027
9.8701 279.729 1.707
9.8906 185.458 1.390
9.9111 130.771 1.167
9.9315 100.458 1.023
9.9520 84.990 0.941
9.9725 77.208 0.897
9.9929 70.344 0.856
10.0134 66.281 0.831
10.0338 60.656 0.795
10.0543 58.063 0.778
10.0748 55.615 0.761
10.0952 52.979 0.743
10.1157 50.354 0.724
10.1362 46.531 0.696
10.1566 43.813 0.676
10.1771 44.302 0.679
10.1976 44.208 0.679
10.2180 42.396 0.665
10.2385 41.500 0.657
10.2589 41.219 0.655
10.2794 40.177 0.647
10.2999 38.552 0.634
10.3203 39.406 0.641
10.3408 38.969 0.637
10.3613 38.729 0.635
10.3817 35.865 0.611
10.4022 37.188 0.622
10.4226 36.250 0.614
10.4431 36.490 0.617
10.4636 35.813 0.611
10.4840 35.729 0.610
10.5045 35.292 0.606
10.5250 34.500 0.599
10.5454 35.563 0.609
10.5659 34.948 0.603
10.5863 33.948 0.595
10.6068 33.677 0.592
10.6273 33.135 0.588
10.6477 33.156 0.588
10.6682 31.719 0.575
10.6887 31.833 0.576
10.7091 31.083 0.569
10.7296 32.927 0.586
10.7500 31.563 0.573
10.7705 32.219 0.579
10.7910 31.615 0.574
10.8114 31.260 0.571
10.8319 30.906 0.567
10.8524 31.219 0.570
10.8728 30.292 0.562
10.8933 30.938 0.568
10.9137 30.760 0.566
10.9342 30.260 0.561
10.9547 30.271 0.562
10.9751 28.063 0.541
10.9956 27.979 0.540
11.0161 28.594 0.546
11.0365 28.563 0.545
11.0570 28.167 0.542
11.0775 28.323 0.543
11.0979 28.385 0.544
11.1184 27.250 0.533
11.1388 27.885 0.539
11.1593 27.760 0.538
11.1798 26.823 0.529
11.2002 26.583 0.526
11.2207 27.281 0.533
11.2412 26.844 0.529
11.2616 25.646 0.517
11.2821 25.958 0.520
11.3025 25.833 0.519
11.3230 25.615 0.517
11.3435 26.042 0.521
11.3639 26.125 0.522
11.3844 25.292 0.513
11.4049 25.188 0.512
11.4253 24.510 0.505
11.4458 25.083 0.511
11.4662 25.219 0.513
11.4867 24.750 0.508
11.5072 25.208 0.512
11.5276 25.042 0.511
11.5481 25.271 0.513
11.5686 26.375 0.524
11.5890 27.406 0.534
11.6095 28.146 0.541
11.6299 29.135 0.551
11.6504 28.729 0.547
11.6709 27.906 0.539
11.6913 26.969 0.530
11.7118 25.354 0.514
11.7323 24.708 0.507
11.7527 23.750 0.497
11.7732 23.406 0.494
11.7937 22.583 0.485
11.8141 23.813 0.498
11.8346 22.573 0.485
11.8550 22.042 0.479
11.8755 21.604 0.474
11.8960 21.271 0.471
11.9164 21.615 0.475
11.9369 21.677 0.475
11.9574 20.729 0.465
11.9778 20.813 0.466
11.9983 21.229 0.470
12.0187 20.344 0.460
12.0392 19.854 0.455
12.0597 20.323 0.460
12.0801 20.021 0.457
12.1006 19.229 0.448
12.1211 19.896 0.455
12.1415 20.208 0.459
12.1620 20.167 0.458
12.1824 19.281 0.448
12.2029 19.333 0.449
12.2234 20.156 0.458
12.2438 20.188 0.459
12.2643 19.740 0.453
12.2848 19.510 0.451
12.3052 19.615 0.452
12.3257 19.146 0.447
12.3461 19.625 0.452
12.3666 18.271 0.436
12.3871 18.948 0.444
12.4075 18.260 0.436
12.4280 18.438 0.438
12.4485 18.427 0.438
12.4689 17.802 0.431
12.4894 19.021 0.445
12.5098 18.354 0.437
12.5303 17.302 0.425
12.5508 17.781 0.430
12.5712 17.875 0.432
12.5917 17.573 0.428
12.6122 17.208 0.423
12.6326 16.510 0.415
12.6531 18.135 0.435
12.6736 16.958 0.420
12.6940 17.104 0.422
12.7145 16.917 0.420
12.7349 16.802 0.418
12.7554 17.042 0.421
12.7759 16.281 0.412
12.7963 16.948 0.420
12.8168 16.792 0.418
12.8373 15.979 0.408
12.8577 16.250 0.411
12.8782 15.771 0.405
12.8986 15.927 0.407
12.9191 15.969 0.408
12.9396 15.500 0.402
12.9600 16.542 0.415
12.9805 15.854 0.406
13.0010 16.375 0.413
13.0214 15.813 0.406
13.0419 16.740 0.418
13.0623 16.427 0.414
13.0828 16.833 0.419
13.1033 15.979 0.408
13.1237 15.000 0.395
13.1442 15.667 0.404
13.1647 15.302 0.399
13.1851 14.844 0.393
13.2056 15.406 0.401
13.2260 15.396 0.400
13.2465 16.104 0.410
13.2670 16.156 0.410
13.2874 17.677 0.429
13.3079 19.135 0.446
13.3284 19.385 0.449
13.3488 17.573 0.428
13.3693 16.115 0.410
13.3897 14.427 0.388
13.4102 13.958 0.381
13.4307 14.542 0.389
13.4511 13.531 0.375
13.4716 14.167 0.384
13.4921 13.938 0.381
13.5125 13.958 0.381
13.5330 14.042 0.382
13.5535 14.219 0.385
13.5739 13.500 0.375
13.5944 13.938 0.381
13.6148 14.177 0.384
13.6353 14.083 0.383
13.6558 13.260 0.372
13.6762 13.563 0.376
13.6967 13.042 0.369
13.7172 13.552 0.376
13.7376 13.635 0.377
13.7581 13.188 0.371
13.7785 13.042 0.369
13.7990 13.396 0.374
13.8195 13.177 0.370
13.8399 13.365 0.373
13.8604 13.594 0.376
13.8809 13.125 0.370
13.9013 12.729 0.364
13.9218 12.927 0.367
13.9422 13.188 0.371
13.9627 13.344 0.373
13.9832 13.688 0.378
14.0036 13.094 0.369
14.0241 13.844 0.380
14.0446 13.781 0.379
14.0650 13.219 0.371
14.0855 12.240 0.357
14.1059 12.615 0.362
14.1264 12.438 0.360
14.1469 12.813 0.365
14.1673 12.719 0.364
14.1878 12.469 0.360
14.2083 12.625 0.363
14.2287 13.156 0.370
14.2492 12.208 0.357
14.2696 12.813 0.365
14.2901 12.000 0.354
14.3106 11.688 0.349
14.3310 12.521 0.361
14.3515 12.229 0.357
14.3720 11.854 0.351
14.3924 12.375 0.359
14.4129 12.490 0.361
14.4334 11.698 0.349
14.4538 12.250 0.357
14.4743 12.167 0.356
14.4947 11.594 0.348
14.5152 11.719 0.349
14.5357 11.906 0.352
14.5561 11.896 0.352
14.5766 11.896 0.352
14.5971 11.938 0.353
14.6175 11.875 0.352
14.6380 11.927 0.352
14.6584 11.594 0.348
14.6789 11.635 0.348
14.6994 12.125 0.355
14.7198 11.563 0.347
14.7403 11.365 0.344
14.7608 11.198 0.342
14.7812 11.729 0.350
14.8017 12.396 0.359
14.8221 11.698 0.349
14.8426 12.146 0.356
14.8631 11.708 0.349
14.8835 11.865 0.352
14.9040 11.969 0.353
14.9245 11.646 0.348
14.9449 11.115 0.340
14.9654 12.292 0.358
14.9858 11.250 0.342
15.0063 11.667 0.349
15.0268 12.073 0.355
15.0472 11.188 0.341
15.0677 11.531 0.347
15.0882 11.917 0.352
15.1086 11.167 0.341
15.1291 11.938 0.353
15.1495 10.854 0.336
15.1700 11.688 0.349
15.1905 11.510 0.346
15.2109 11.615 0.348
15.2314 11.615 0.348
15.2519 11.115 0.340
15.2723 11.979 0.353
15.2928 12.385 0.359
15.3133 11.313 0.343
15.3337 12.375 0.359
15.3542 11.698 0.349
15.3746 12.073 0.355
15.3951 11.135 0.341
15.4156 12.313 0.358
15.4360 11.802 0.351
15.4565 11.938 0.353
15.4770 11.708 0.349
15.4974 12.500 0.361
15.5179 12.677 0.363
15.5383 12.021 0.354
15.5588 13.198 0.371
15.5793 12.656 0.363
15.5997 13.146 0.370
15.6202 13.917 0.381
15.6407 14.969 0.395
15.6611 17.448 0.426
15.6816 20.604 0.463
15.7020 24.063 0.501
15.7225 30.083 0.560
15.7430 33.427 0.590
15.7634 33.771 0.593
15.7839 30.281 0.562
15.8044 24.250 0.503
15.8248 19.135 0.446
15.8453 16.094 0.409
15.8657 14.240 0.385
15.8862 12.823 0.365
15.9067 13.010 0.368
15.9271 12.229 0.357
15.9476 12.156 0.356
15.9681 11.844 0.351
15.9885 11.500 0.346
16.0090 11.708 0.349
16.0295 11.073 0.340
16.0499 10.802 0.335
16.0704 10.208 0.326
16.0908 10.208 0.326
16.1113 11.135 0.341
16.1318 10.885 0.337
16.1522 10.490 0.331
16.1727 10.802 0.335
16.1932 10.906 0.337
16.2136 10.875 0.337
16.2341 10.885 0.337
16.2545 10.750 0.335
16.2750 10.688 0.334
16.2955 10.594 0.332
16.3159 10.625 0.333
16.3364 10.938 0.338
16.3569 10.854 0.336
16.3773 10.771 0.335
16.3978 10.573 0.332
16.4182 10.323 0.328
16.4387 10.646 0.333
16.4592 10.198 0.326
16.4796 10.563 0.332
16.5001 10.813 0.336
16.5206 10.313 0.328
16.5410 10.344 0.328
16.5615 10.708 0.334
16.5819 10.896 0.337
16.6024 10.740 0.334
16.6229 9.938 0.322
16.6433 10.615 0.333
16.6638 11.135 0.341
16.6843 10.667 0.333
16.7047 11.656 0.348
16.7252 11.510 0.346
16.7456 10.313 0.328
16.7661 10.500 0.331
16.7866 10.521 0.331
16.8070 10.813 0.336
16.8275 10.781 0.335
16.8480 10.313 0.328
16.8684 11.260 0.342
16.8889 11.260 0.342
16.9094 10.823 0.336
16.9298 10.240 0.327
16.9503 9.896 0.321
16.9707 10.958 0.338
16.9912 10.719 0.334
17.0117 10.760 0.335
17.0321 10.917 0.337
17.0526 10.635 0.333
17.0731 11.177 0.341
17.0935 11.281 0.343
17.1140 11.188 0.341
17.1344 10.917 0.337
17.1549 10.313 0.328
17.1754 11.250 0.342
17.1958 11.073 0.340
17.2163 11.781 0.350
17.2368 11.229 0.342
17.2572 11.573 0.347
17.2777 11.615 0.348
17.2981 11.750 0.350
17.3186 11.052 0.339
17.3391 11.396 0.345
17.3595 12.229 0.357
17.3800 11.781 0.350
17.4005 12.260 0.357
17.4209 12.708 0.364
17.4414 12.177 0.356
17.4618 12.677 0.363
17.4823 12.469 0.360
17.5028 11.833 0.351
17.5232 12.688 0.364
17.5437 13.198 0.371
17.5642 13.292 0.372
17.5846 13.500 0.375
17.6051 14.104 0.383
17.6255 13.146 0.370
17.6460 14.219 0.385
17.6665 14.917 0.394
17.6869 15.250 0.399
17.7074 16.198 0.411
17.7279 17.438 0.426
17.7483 19.354 0.449
17.7688 19.583 0.452
17.7893 21.708 0.476
17.8097 21.760 0.476
17.8302 21.385 0.472
17.8506 22.438 0.483
17.8711 20.990 0.468
17.8916 20.969 0.467
17.9120 20.552 0.463
17.9325 20.625 0.464
17.9530 21.938 0.478
17.9734 22.792 0.487
17.9939 23.688 0.497
18.0143 25.344 0.514
18.0348 26.760 0.528
18.0553 27.177 0.532
18.0757 28.896 0.549
18.0962 29.719 0.556
18.1167 30.740 0.566
18.1371 32.979 0.586
18.1576 35.469 0.608
18.1780 38.625 0.634
18.1985 40.698 0.651
18.2190 42.135 0.663
18.2394 43.833 0.676
18.2599 44.438 0.680
18.2804 43.844 0.676
18.3008 42.354 0.664
18.3213 43.146 0.670
18.3417 40.813 0.652
18.3622 40.708 0.651
18.3827 40.104 0.646
18.4031 38.656 0.635
18.4236 38.135 0.630
18.4441 37.646 0.626
18.4645 36.948 0.620
18.4850 37.563 0.626
18.5054 36.688 0.618
18.5259 37.729 0.627
18.5464 37.000 0.621
18.5668 38.552 0.634
18.5873 36.875 0.620
18.6078 37.031 0.621
18.6282 34.844 0.602
18.6487 34.021 0.595
18.6692 33.490 0.591
18.6896 32.365 0.581
18.7101 32.948 0.586
18.7305 32.740 0.584
18.7510 32.188 0.579
18.7715 31.854 0.576
18.7919 32.917 0.586
18.8124 33.313 0.589
18.8329 35.542 0.608
18.8533 36.646 0.618
18.8738 37.188 0.622
18.8942 36.229 0.614
18.9147 33.583 0.591
18.9352 31.198 0.570
18.9556 28.844 0.548
18.9761 27.094 0.531
18.9966 26.417 0.525
19.0170 25.427 0.515
19.0375 24.552 0.506
19.0579 24.938 0.510
19.0784 22.990 0.489
19.0989 23.563 0.495
19.1193 24.510 0.505
19.1398 23.615 0.496
19.1603 23.542 0.495
19.1807 23.385 0.494
19.2012 22.802 0.487
19.2216 23.635 0.496
19.2421 24.094 0.501
19.2626 24.344 0.504
19.2830 24.354 0.504
19.3035 23.854 0.498
19.3240 23.698 0.497
19.3444 23.406 0.494
19.3649 25.385 0.514
19.3853 24.844 0.509
19.4058 25.063 0.511
19.4263 25.740 0.518
19.4467 26.948 0.530
19.4672 27.042 0.531
19.4877 27.115 0.531
19.5081 29.385 0.553
19.5286 30.042 0.559
19.5491 30.719 0.566
19.5695 32.646 0.583
19.5900 33.208 0.588
19.6104 35.833 0.611
19.6309 37.313 0.623
19.6514 41.667 0.659
19.6718 46.750 0.698
19.6923 55.167 0.758
19.7128 68.021 0.842
19.7332 87.063 0.952
19.7537 112.073 1.080
19.7741 124.135 1.137
19.7946 106.063 1.051
19.8151 84.875 0.940
19.8355 65.875 0.828
19.8560 45.438 0.688
19.8765 32.156 0.579
19.8969 27.021 0.531
19.9174 24.990 0.510
19.9378 23.396 0.494
19.9583 22.385 0.483
19.9788 22.844 0.488
19.9992 22.292 0.482
20.0197 22.479 0.484
20.0402 23.010 0.490
20.0606 21.594 0.474
20.0811 21.292 0.471
20.1015 22.427 0.483
20.1220 22.594 0.485
20.1425 23.875 0.499
20.1629 24.521 0.505
20.1834 26.177 0.522
20.2039 27.990 0.540
20.2243 29.375 0.553
20.2448 29.958 0.559
20.2653 30.313 0.562
20.2857 31.031 0.569
20.3062 29.875 0.558
20.3266 28.594 0.546
20.3471 29.802 0.557
20.3676 28.063 0.541
20.3880 26.573 0.526
20.4085 26.656 0.527
20.4290 27.083 0.531
20.4494 26.563 0.526
20.4699 27.094 0.531
20.4903 25.198 0.512
20.5108 23.771 0.498
20.5313 22.104 0.480
20.5517 20.990 0.468
20.5722 20.938 0.467
20.5927 19.240 0.448
20.6131 18.219 0.436
20.6336 18.167 0.435
20.6540 15.563 0.403
20.6745 16.010 0.408
20.6950 15.167 0.397
20.7154 14.979 0.395
20.7359 16.156 0.410
20.7564 14.896 0.394
20.7768 14.313 0.386
20.7973 13.729 0.378
20.8177 14.115 0.383
20.8382 13.677 0.377
20.8587 12.990 0.368
20.8791 13.052 0.369
20.8996 13.208 0.371
20.9201 13.167 0.370
20.9405 13.365 0.373
20.9610 13.000 0.368
20.9814 12.385 0.359
21.0019 12.563 0.362
21.0224 12.865 0.366
21.0428 12.073 0.355
21.0633 13.115 0.370
21.0838 12.083 0.355
21.1042 12.021 0.354
21.1247 12.698 0.364
21.1452 12.156 0.356
21.1656 11.969 0.353
21.1861 12.010 0.354
21.2065 12.427 0.360
21.2270 11.313 0.343
21.2475 11.604 0.348
21.2679 12.063 0.354
21.2884 11.958 0.353
21.3089 12.240 0.357
21.3293 11.250 0.342
21.3498 11.385 0.344
21.3702 11.615 0.348
21.3907 10.938 0.338
21.4112 11.563 0.347
21.4316 11.979 0.353
21.4521 11.677 0.349
21.4726 11.260 0.342
21.4930 11.198 0.342
21.5135 11.198 0.342
21.5339 11.969 0.353
21.5544 11.313 0.343
21.5749 11.458 0.345
21.5953 11.563 0.347
21.6158 11.271 0.343
21.6363 11.740 0.350
21.6567 11.594 0.348
21.6772 11.531 0.347
21.6976 11.615 0.348
21.7181 11.583 0.347
21.7386 11.875 0.352
21.7590 11.344 0.344
21.7795 12.052 0.354
21.8000 11.469 0.346
21.8204 12.115 0.355
21.8409 11.625 0.348
21.8613 11.771 0.350
21.8818 11.656 0.348
21.9023 12.219 0.357
21.9227 12.229 0.357
21.9432 13.156 0.370
21.9637 12.771 0.365
21.9841 13.208 0.371
22.0046 13.375 0.373
22.0251 14.490 0.389
22.0455 16.260 0.412
22.0660 17.865 0.431
22.0864 22.219 0.481
22.1069 27.354 0.534
22.1274 31.854 0.576
22.1478 32.969 0.586
22.1683 28.531 0.545
22.1888 26.042 0.521
22.2092 23.552 0.495
22.2297 20.396 0.461
22.2501 17.760 0.430
22.2706 17.302 0.425
22.2911 15.625 0.403
22.3115 15.188 0.398
22.3320 15.000 0.395
22.3525 14.125 0.384
22.3729 14.490 0.389
22.3934 14.833 0.393
22.4138 13.969 0.381
22.4343 13.844 0.380
22.4548 12.594 0.362
22.4752 13.021 0.368
22.4957 12.802 0.365
22.5162 12.906 0.367
22.5366 12.906 0.367
22.5571 13.031 0.368
22.5775 12.917 0.367
22.5980 13.615 0.377
22.6185 13.771 0.379
22.6389 12.354 0.359
22.6594 13.344 0.373
22.6799 12.927 0.367
22.7003 12.844 0.366
22.7208 13.146 0.370
22.7412 12.646 0.363
22.7617 13.635 0.377
22.7822 14.094 0.383
22.8026 14.344 0.387
22.8231 15.615 0.403
22.8436 18.521 0.439
22.8640 21.281 0.471
22.8845 23.625 0.496
22.9050 25.760 0.518
22.9254 25.917 0.520
22.9459 23.677 0.497
22.9663 21.833 0.477
22.9868 19.521 0.451
23.0073 17.698 0.429
23.0277 15.083 0.396
23.0482 14.594 0.390
23.0687 13.625 0.377
23.0891 13.104 0.369
23.1096 12.813 0.365
23.1300 12.344 0.359
23.1505 12.885 0.366
23.1710 12.500 0.361
23.1914 12.292 0.358
23.2119 12.354 0.359
23.2324 12.146 0.356
23.2528 11.875 0.352
23.2733 11.479 0.346
23.2937 12.760 0.365
23.3142 12.542 0.361
23.3347 12.427 0.360
23.3551 12.313 0.358
23.3756 12.052 0.354
23.3961 12.656 0.363
23.4165 13.083 0.369
23.4370 12.844 0.366
23.4574 12.844 0.366
23.4779 13.323 0.373
23.4984 12.875 0.366
23.5188 12.656 0.363
23.5393 12.688 0.364
23.5598 12.698 0.364
23.5802 12.135 0.356
23.6007 13.198 0.371
23.6211 11.938 0.353
23.6416 11.760 0.350
23.6621 10.833 0.336
23.6825 10.688 0.334
23.7030 10.625 0.333
23.7235 9.740 0.319
23.7439 10.125 0.325
23.7644 9.948 0.322
23.7849 9.677 0.317
23.8053 10.458 0.330
23.8258 8.927 0.305
23.8462 9.448 0.314
23.8667 9.688 0.318
23.8872 9.781 0.319
23.9076 9.115 0.308
23.9281 9.240 0.310
23.9486 9.458 0.314
23.9690 9.552 0.315
23.9895 9.740 0.319
24.0099 9.354 0.312
24.0304 9.156 0.309
24.0509 9.615 0.316
24.0713 9.625 0.317
24.0918 9.469 0.314
24.1123 9.583 0.316
24.1327 9.802 0.320
24.1532 9.938 0.322
24.1736 10.365 0.329
24.1941 10.521 0.331
24.2146 10.833 0.336
24.2350 10.948 0.338
24.2555 10.563 0.332
24.2760 10.458 0.330
24.2964 10.604 0.332
24.3169 10.396 0.329
24.3373 10.281 0.327
24.3578 9.844 0.320
24.3783 9.740 0.319
24.3987 9.542 0.315
24.4192 9.167 0.309
24.4397 8.781 0.302
24.4601 8.448 0.297
24.4806 9.073 0.307
24.5011 8.552 0.298
24.5215 8.771 0.302
24.5420 9.354 0.312
24.5624 9.510 0.315
24.5829 9.292 0.311
24.6034 9.604 0.316
24.6238 9.813 0.320
24.6443 10.438 0.330
24.6648 10.417 0.329
24.6852 11.771 0.350
24.7057 11.802 0.351
24.7261 11.156 0.341
24.7466 10.667 0.333
24.7671 10.698 0.334
24.7875 9.281 0.311
24.8080 9.271 0.311
24.8285 9.000 0.306
24.8489 8.781 0.302
24.8694 9.333 0.312
24.8898 9.844 0.320
24.9103 9.615 0.316
24.9308 9.979 0.322
24.9512 9.740 0.319
24.9717 10.292 0.327
24.9922 10.448 0.330
25.0126 9.854 0.320
25.0331 9.969 0.322
25.0535 9.813 0.320
25.0740 9.344 0.312
25.0945 9.177 0.309
25.1149 8.500 0.298
25.1354 8.219 0.293
25.1559 8.063 0.290
25.1763 8.188 0.292
25.1968 7.594 0.281
25.2172 8.229 0.293
25.2377 8.292 0.294
25.2582 8.646 0.300
25.2786 7.781 0.285
25.2991 8.156 0.291
25.3196 8.583 0.299
25.3400 8.302 0.294
25.3605 9.000 0.306
25.3810 9.594 0.316
25.4014 8.135 0.291
25.4219 8.781 0.302
25.4423 8.677 0.301
25.4628 9.229 0.310
25.4833 10.115 0.325
25.5037 10.708 0.334
25.5242 11.719 0.349
25.5447 13.229 0.371
25.5651 14.333 0.386
25.5856 15.146 0.397
25.6060 15.656 0.404
25.6265 13.583 0.376
25.6470 13.250 0.372
25.6674 11.771 0.350
25.6879 12.250 0.357
25.7084 10.281 0.327
25.7288 9.458 0.314
25.7493 9.469 0.314
25.7697 8.667 0.300
25.7902 8.583 0.299
25.8107 8.490 0.297
25.8311 7.948 0.288
25.8516 8.365 0.295
25.8721 8.375 0.295
25.8925 8.594 0.299
25.9130 8.344 0.295
25.9334 8.771 0.302
25.9539 8.198 0.292
25.9744 8.438 0.296
25.9948 8.521 0.298
26.0153 8.813 0.303
26.0358 8.594 0.299
26.0562 8.333 0.295
26.0767 8.792 0.303
26.0971 8.948 0.305
26.1176 8.750 0.302
26.1381 9.271 0.311
26.1585 9.740 0.319
26.1790 8.792 0.303
26.1995 9.552 0.315
26.2199 9.198 0.310
26.2404 9.146 0.309
26.2609 8.583 0.299
26.2813 9.281 0.311
26.3018 8.740 0.302
26.3222 9.094 0.308
26.3427 8.635 0.300
26.3632 8.969 0.306
26.3836 8.573 0.299
26.4041 9.000 0.306
26.4246 9.135 0.308
26.4450 8.875 0.304
26.4655 9.229 0.310
26.4859 8.896 0.304
26.5064 9.563 0.316
26.5269 9.250 0.310
26.5473 9.260 0.311
26.5678 8.844 0.304
26.5883 9.167 0.309
26.6087 8.646 0.300
26.6292 8.927 0.305
26.6496 8.708 0.301
26.6701 8.500 0.298
26.6906 8.896 0.304
26.7110 9.479 0.314
26.7315 8.979 0.306
26.7520 9.031 0.307
26.7724 9.323 0.312
26.7929 8.938 0.305
26.8133 9.510 0.315
26.8338 9.198 0.310
26.8543 9.500 0.315
26.8747 9.667 0.317
26.8952 9.302 0.311
26.9157 9.708 0.318
26.9361 9.156 0.309
26.9566 9.344 0.312
26.9770 9.896 0.321
26.9975 9.990 0.323
27.0180 10.021 0.323
27.0384 9.802 0.320
27.0589 10.115 0.325
27.0794 9.813 0.320
27.0998 10.125 0.325
27.1203 10.521 0.331
27.1408 10.063 0.324
27.1612 10.208 0.326
27.1817 9.896 0.321
27.2021 9.667 0.317
27.2226 9.188 0.309
27.2431 9.646 0.317
27.2635 9.708 0.318
27.2840 8.927 0.305
27.3045 9.250 0.310
27.3249 9.438 0.314
27.3454 10.021 0.323
27.3658 8.896 0.304
27.3863 9.698 0.318
27.4068 10.281 0.327
27.4272 10.583 0.332
27.4477 11.583 0.347
27.4682 12.167 0.356
27.4886 12.406 0.359
27.5091 12.552 0.362
27.5295 11.292 0.343
27.5500 11.823 0.351
27.5705 10.354 0.328
27.5909 10.281 0.327
27.6114 9.625 0.317
27.6319 8.906 0.305
27.6523 9.156 0.309
27.6728 8.938 0.305
27.6932 9.615 0.316
27.7137 9.292 0.311
27.7342 9.031 0.307
27.7546 8.177 0.292
27.7751 9.458 0.314
27.7956 9.156 0.309
27.8160 9.052 0.307
27.8365 8.698 0.301
27.8569 8.844 0.304
27.8774 9.573 0.316
27.8979 8.854 0.304
27.9183 9.021 0.307
27.9388 8.958 0.305
27.9593 8.906 0.305
27.9797 9.083 0.308
28.0002 8.927 0.305
28.0207 8.677 0.301
28.0411 8.490 0.297
28.0616 8.417 0.296
28.0820 8.073 0.290
28.1025 8.198 0.292
28.1230 7.885 0.287
28.1434 8.427 0.296
28.1639 8.406 0.296
28.1844 8.167 0.292
28.2048 7.573 0.281
28.2253 7.865 0.286
28.2457 8.313 0.294
28.2662 8.375 0.295
28.2867 8.073 0.290
28.3071 7.750 0.284
28.3276 8.000 0.289
28.3481 8.375 0.295
28.3685 7.573 0.281
28.3890 7.469 0.279
28.4094 7.865 0.286
28.4299 7.750 0.284
28.4504 7.667 0.283
28.4708 7.740 0.284
28.4913 7.698 0.283
28.5118 7.448 0.279
28.5322 7.635 0.282
28.5527 7.615 0.282
28.5731 7.563 0.281
28.5936 7.760 0.284
28.6141 8.031 0.289
28.6345 7.563 0.281
28.6550 7.260 0.275
28.6755 7.938 0.288
28.6959 8.063 0.290
28.7164 7.354 0.277
28.7368 7.552 0.280
28.7573 7.323 0.276
28.7778 7.615 0.282
28.7982 7.844 0.286
28.8187 7.323 0.276
28.8392 7.740 0.284
28.8596 7.365 0.277
28.8801 7.229 0.274
28.9006 7.281 0.275
28.9210 7.385 0.277
28.9415 7.135 0.273
28.9619 7.333 0.276
28.9824 7.240 0.275
29.0029 7.167 0.273
29.0233 6.875 0.268
29.0438 7.063 0.271
29.0643 7.292 0.276
29.0847 7.073 0.271
29.1052 7.260 0.275
29.1256 7.146 0.273
29.1461 7.427 0.278
29.1666 7.813 0.285
29.1870 8.010 0.289
29.2075 8.229 0.293
29.2280 8.479 0.297
29.2484 8.823 0.303
29.2689 10.219 0.326
29.2893 11.896 0.352
29.3098 13.479 0.375
29.3303 12.927 0.367
29.3507 11.323 0.343
29.3712 10.719 0.334
29.3917 10.250 0.327
29.4121 9.542 0.315
29.4326 8.010 0.289
29.4530 7.792 0.285
29.4735 7.677 0.283
29.4940 7.385 0.277
29.5144 7.677 0.283
29.5349 7.521 0.280
29.5554 7.521 0.280
29.5758 7.604 0.281
29.5963 7.865 0.286
29.6168 8.052 0.290
29.6372 8.490 0.297
29.6577 8.438 0.296
29.6781 7.854 0.286
29.6986 7.729 0.284
29.7191 7.229 0.274
29.7395 7.344 0.277
29.7600 6.750 0.265
29.7805 7.104 0.272
29.8009 6.875 0.268
29.8214 7.552 0.280
29.8418 6.885 0.268
29.8623 6.990 0.270
29.8828 7.219 0.274
29.9032 6.677 0.264
29.9237 6.479 0.260
29.9442 6.417 0.259
29.9646 6.427 0.259
29.9851 6.177 0.254
30.0055 6.865 0.267
30.0260 6.990 0.270
30.0465 6.260 0.255
30.0669 6.271 0.256
30.0874 6.281 0.256
30.1079 6.406 0.258
30.1283 6.385 0.258
30.1488 6.813 0.266
30.1692 6.490 0.260
30.1897 7.042 0.271
30.2102 6.323 0.257
30.2306 6.469 0.260
30.2511 6.292 0.256
30.2716 6.688 0.264
30.2920 6.229 0.255
30.3125 6.719 0.265
30.3329 6.792 0.266
30.3534 6.458 0.259
30.3739 6.844 0.267
30.3943 6.323 0.257
30.4148 6.406 0.258
30.4353 5.667 0.243
30.4557 6.635 0.263
30.4762 6.448 0.259
30.4967 6.490 0.260
30.5171 6.646 0.263
30.5376 6.979 0.270
30.5580 6.625 0.263
30.5785 6.813 0.266
30.5990 6.854 0.267
30.6194 6.510 0.260
30.6399 6.323 0.257
30.6604 6.885 0.268
30.6808 7.333 0.276
30.7013 6.969 0.269
30.7217 7.563 0.281
30.7422 7.448 0.279
30.7627 7.375 0.277
30.7831 7.865 0.286
30.8036 8.104 0.291
30.8241 8.823 0.303
30.8445 8.823 0.303
30.8650 9.792 0.319
30.8854 11.688 0.349
30.9059 14.385 0.387
30.9264 19.542 0.451
30.9468 31.104 0.569
30.9673 43.531 0.673
30.9878 48.823 0.713
31.0082 46.823 0.698
31.0287 40.833 0.652
31.0491 37.125 0.622
31.0696 32.469 0.582
31.0901 28.083 0.541
31.1105 21.250 0.470
31.1310 15.635 0.404
31.1515 12.990 0.368
31.1719 11.063 0.339
31.1924 10.344 0.328
31.2128 9.354 0.312
31.2333 8.740 0.302
31.2538 8.979 0.306
31.2742 9.313 0.311
31.2947 8.188 0.292
31.3152 7.698 0.283
31.3356 7.563 0.281
31.3561 8.177 0.292
31.3766 7.594 0.281
31.3970 7.000 0.270
31.4175 7.240 0.275
31.4379 7.073 0.271
31.4584 7.823 0.285
31.4789 7.354 0.277
31.4993 7.552 0.280
31.5198 7.479 0.279
31.5403 6.875 0.268
31.5607 7.063 0.271
31.5812 7.531 0.280
31.6016 6.823 0.267
31.6221 6.969 0.269
31.6426 6.896 0.268
31.6630 7.302 0.276
31.6835 7.448 0.279
31.7040 7.260 0.275
31.7244 7.323 0.276
31.7449 6.875 0.268
31.7653 7.771 0.285
31.7858 8.063 0.290
31.8063 8.271 0.294
31.8267 8.427 0.296
31.8472 8.510 0.298
31.8677 8.875 0.304
31.8881 8.677 0.301
31.9086 8.854 0.304
31.9290 8.771 0.302
31.9495 8.719 0.301
31.9700 8.313 0.294
31.9904 8.958 0.305
32.0109 8.708 0.301
32.0314 8.646 0.300
32.0518 9.333 0.312
32.0723 9.833 0.320
32.0927 9.344 0.312
32.1132 9.417 0.313
32.1337 9.771 0.319
32.1541 11.458 0.345
32.1746 12.260 0.357
32.1951 13.813 0.379
32.2155 15.135 0.397
32.2360 17.000 0.421
32.2565 17.063 0.422
32.2769 17.365 0.425
32.2974 15.885 0.407
32.3178 15.438 0.401
32.3383 14.406 0.387
32.3588 13.896 0.380
32.3792 14.240 0.385
32.3997 13.656 0.377
32.4202 14.406 0.387
32.4406 14.656 0.391
32.4611 15.042 0.396
32.4815 16.198 0.411
32.5020 16.708 0.417
32.5225 17.552 0.428
32.5429 19.500 0.451
32.5634 19.833 0.455
32.5839 19.625 0.452
32.6043 16.938 0.420
32.6248 15.094 0.397
32.6452 14.479 0.388
32.6657 13.292 0.372
32.6862 11.969 0.353
32.7066 10.635 0.333
32.7271 9.385 0.313
32.7476 9.844 0.320
32.7680 8.677 0.301
32.7885 9.135 0.308
32.8089 8.240 0.293
32.8294 8.313 0.294
32.8499 8.333 0.295
32.8703 7.615 0.282
32.8908 7.698 0.283
32.9113 7.448 0.279
32.9317 7.813 0.285
32.9522 7.813 0.285
32.9726 7.865 0.286
32.9931 7.729 0.284
33.0136 8.354 0.295
33.0340 8.094 0.290
33.0545 7.865 0.286
33.0750 7.604 0.281
33.0954 8.677 0.301
33.1159 7.750 0.284
33.1364 8.656 0.300
33.1568 8.813 0.303
33.1773 8.896 0.304
33.1977 8.427 0.296
33.2182 8.313 0.294
33.2387 8.354 0.295
33.2591 8.479 0.297
33.2796 8.219 0.293
33.3001 8.177 0.292
33.3205 7.510 0.280
33.3410 8.073 0.290
33.3614 7.927 0.287
33.3819 7.917 0.287
33.4024 8.583 0.299
33.4228 8.010 0.289
33.4433 8.219 0.293
33.4638 7.792 0.285
33.4842 7.625 0.282
33.5047 6.667 0.264
33.5251 7.333 0.276
33.5456 7.313 0.276
33.5661 6.958 0.269
33.5865 6.552 0.261
33.6070 6.385 0.258
33.6275 7.135 0.273
33.6479 6.260 0.255
33.6684 6.635 0.263
33.6888 6.573 0.262
33.7093 6.677 0.264
33.7298 6.667 0.264
33.7502 6.271 0.256
33.7707 6.438 0.259
33.7912 6.688 0.264
33.8116 6.781 0.266
33.8321 6.563 0.261
33.8526 6.646 0.263
33.8730 6.167 0.253
33.8935 6.427 0.259
33.9139 6.802 0.266
33.9344 6.365 0.257
33.9549 6.385 0.258
33.9753 5.917 0.248
33.9958 6.833 0.267
34.0163 6.604 0.262
34.0367 6.833 0.267
34.0572 6.740 0.265
34.0776 6.792 0.266
34.0981 6.896 0.268
34.1186 7.302 0.276
34.1390 7.375 0.277
34.1595 7.698 0.283
34.1800 7.958 0.288
34.2004 8.823 0.303
34.2209 9.979 0.322
34.2413 10.542 0.331
34.2618 9.792 0.319
34.2823 11.094 0.340
34.3027 9.438 0.314
34.3232 9.167 0.309
34.3437 8.990 0.306
34.3641 8.656 0.300
34.3846 7.792 0.285
34.4050 7.385 0.277
34.4255 7.302 0.276
34.4460 6.865 0.267
34.4664 6.698 0.264
34.4869 7.052 0.271
34.5074 6.365 0.257
34.5278 6.813 0.266
34.5483 6.438 0.259
34.5687 6.531 0.261
34.5892 6.615 0.262
34.6097 6.969 0.269
34.6301 6.708 0.264
34.6506 6.667 0.264
34.6711 6.948 0.269
34.6915 6.896 0.268
34.7120 6.677 0.264
34.7325 7.115 0.272
34.7529 6.729 0.265
34.7734 7.156 0.273
34.7938 7.771 0.285
34.8143 8.063 0.290
34.8348 8.219 0.293
34.8552 8.208 0.292
34.8757 9.135 0.308
34.8962 10.427 0.330
34.9166 10.854 0.336
34.9371 11.896 0.352
34.9575 14.198 0.385
34.9780 15.385 0.400
34.9985 15.906 0.407
35.0189 16.115 0.410
35.0394 15.177 0.398
35.0599 15.031 0.396
35.0803 13.438 0.374
35.1008 12.302 0.358
35.1212 11.229 0.342
35.1417 10.833 0.336
35.1622 8.813 0.303
35.1826 8.313 0.294
35.2031 8.667 0.300
35.2236 8.167 0.292
35.2440 7.917 0.287
35.2645 7.323 0.276
35.2849 7.885 0.287
35.3054 6.833 0.267
35.3259 7.927 0.287
35.3463 7.583 0.281
35.3668 7.417 0.278
35.3873 8.000 0.289
35.4077 6.969 0.269
35.4282 7.854 0.286
35.4486 7.635 0.282
35.4691 7.625 0.282
35.4896 7.771 0.285
35.5100 7.896 0.287
35.5305 7.990 0.288
35.5510 7.719 0.284
35.5714 7.438 0.278
35.5919 7.333 0.276
35.6124 8.021 0.289
35.6328 7.781 0.285
35.6533 8.188 0.292
35.6737 8.000 0.289
35.6942 7.823 0.285
35.7147 7.458 0.279
35.7351 8.208 0.292
35.7556 9.031 0.307
35.7761 8.458 0.297
35.7965 8.344 0.295
35.8170 8.167 0.292
35.8374 9.250 0.310
35.8579 9.188 0.309
35.8784 9.229 0.310
35.8988 10.313 0.328
35.9193 11.188 0.341
35.9398 11.344 0.344
35.9602 12.094 0.355
35.9807 12.240 0.357
36.0011 12.438 0.360
36.0216 13.938 0.381
36.0421 15.958 0.408
36.0625 16.635 0.416
36.0830 18.583 0.440
36.1035 18.604 0.440
36.1239 19.396 0.449
36.1444 18.917 0.444
36.1648 18.510 0.439
36.1853 18.771 0.442
36.2058 18.719 0.442
36.2262 17.781 0.430
36.2467 17.990 0.433
36.2672 17.396 0.426
36.2876 17.063 0.422
36.3081 18.125 0.435
36.3285 18.781 0.442
36.3490 19.052 0.445
36.3695 19.417 0.450
36.3899 20.615 0.463
36.4104 21.771 0.476
36.4309 21.219 0.470
36.4513 22.885 0.488
36.4718 23.625 0.496
36.4923 23.521 0.495
36.5127 26.042 0.521
36.5332 27.385 0.534
36.5536 28.542 0.545
36.5741 27.896 0.539
36.5946 25.667 0.517
36.6150 24.531 0.506
36.6355 23.500 0.495
36.6560 24.635 0.507
36.6764 22.406 0.483
36.6969 21.667 0.475
36.7173 20.042 0.457
36.7378 19.552 0.451
36.7583 19.229 0.448
36.7787 19.698 0.453
36.7992 18.667 0.441
36.8197 18.990 0.445
36.8401 19.021 0.445
36.8606 18.708 0.441
36.8810 20.198 0.459
36.9015 20.021 0.457
36.9220 20.583 0.463
36.9424 21.948 0.478
36.9629 23.656 0.496
36.9834 25.823 0.519
37.0038 29.177 0.551
37.0243 29.917 0.558
37.0447 27.615 0.536
37.0652 23.792 0.498
37.0857 21.531 0.474
37.1061 22.271 0.482
37.1266 22.073 0.480
37.1471 18.729 0.442
37.1675 17.188 0.423
37.1880 14.969 0.395
37.2084 14.625 0.390
37.2289 14.125 0.384
37.2494 13.677 0.377
37.2698 14.219 0.385
37.2903 14.375 0.387
37.3108 14.542 0.389
37.3312 13.583 0.376
37.3517 13.635 0.377
37.3722 13.250 0.372
37.3926 13.000 0.368
37.4131 13.063 0.369
37.4335 12.719 0.364
37.4540 12.542 0.361
37.4745 12.667 0.363
37.4949 13.135 0.370
37.5154 12.927 0.367
37.5359 13.010 0.368
37.5563 13.250 0.372
37.5768 12.729 0.364
37.5972 12.844 0.366
37.6177 14.010 0.382
37.6382 12.906 0.367
37.6586 12.938 0.367
37.6791 13.385 0.373
37.6996 12.833 0.366
37.7200 12.938 0.367
37.7405 12.698 0.364
37.7609 13.531 0.375
37.7814 12.573 0.362
37.8019 12.563 0.362
37.8223 12.542 0.361
37.8428 12.677 0.363
37.8633 12.792 0.365
37.8837 13.448 0.374
37.9042 13.417 0.374
37.9246 14.385 0.387
37.9451 16.938 0.420
37.9656 17.510 0.427
37.9860 16.542 0.415
38.0065 15.906 0.407
38.0270 15.354 0.400
38.0474 16.031 0.409
38.0679 14.979 0.395
38.0884 14.427 0.388
38.1088 14.469 0.388
38.1293 14.292 0.386
38.1497 14.156 0.384
38.1702 13.740 0.378
38.1907 13.229 0.371
38.2111 13.240 0.371
38.2316 13.000 0.368
38.2521 12.708 0.364
38.2725 13.875 0.380
38.2930 13.354 0.373
38.3134 13.385 0.373
38.3339 13.417 0.374
38.3544 13.229 0.371
38.3748 14.792 0.393
38.3953 15.271 0.399
38.4158 16.177 0.411
38.4362 14.865 0.393
38.4567 14.521 0.389
38.4771 13.417 0.374
38.4976 13.490 0.375
38.5181 14.063 0.383
38.5385 13.354 0.373
38.5590 12.646 0.363
38.5795 11.854 0.351
38.5999 12.271 0.358
38.6204 11.990 0.353
38.6408 11.354 0.344
38.6613 11.344 0.344
38.6818 10.708 0.334
38.7022 10.396 0.329
38.7227 10.521 0.331
38.7432 10.469 0.330
38.7636 10.688 0.334
38.7841 10.594 0.332
38.8045 9.958 0.322
38.8250 10.573 0.332
38.8455 10.375 0.329
38.8659 10.250 0.327
38.8864 11.104 0.340
38.9069 10.458 0.330
38.9273 9.750 0.319
38.9478 10.031 0.323
38.9683 10.365 0.329
38.9887 10.167 0.325
39.0092 10.396 0.329
39.0296 10.125 0.325
39.0501 10.406 0.329
39.0706 10.250 0.327
39.0910 9.896 0.321
39.1115 9.573 0.316
39.1320 10.010 0.323
39.1524 9.865 0.321
39.1729 10.177 0.326
39.1933 10.438 0.330
39.2138 10.115 0.325
39.2343 10.177 0.326
39.2547 10.281 0.327
39.2752 10.031 0.323
39.2957 10.438 0.330
39.3161 10.771 0.335
39.3366 10.948 0.338
39.3570 11.333 0.344
39.3775 11.198 0.342
39.3980 11.188 0.341
39.4184 11.479 0.346
39.4389 10.479 0.330
39.4594 10.885 0.337
39.4798 10.031 0.323
39.5003 10.104 0.324
39.5207 9.740 0.319
39.5412 9.844 0.320
39.5617 10.021 0.323
39.5821 9.833 0.320
39.6026 10.021 0.323
39.6231 10.260 0.327
39.6435 9.479 0.314
39.6640 9.938 0.322
39.6844 10.219 0.326
39.7049 11.198 0.342
39.7254 10.875 0.337
39.7458 11.490 0.346
39.7663 11.427 0.345
39.7868 11.344 0.344
39.8072 10.479 0.330
39.8277 10.552 0.332
39.8482 10.573 0.332
39.8686 10.583 0.332
39.8891 10.563 0.332
39.9095 10.250 0.327
39.9300 9.844 0.320
39.9505 10.115 0.325
39.9709 9.896 0.321
39.9914 9.708 0.318
40.0119 9.740 0.319
40.0323 9.854 0.320
40.0528 10.417 0.329
40.0732 9.948 0.322
40.0937 10.719 0.334
40.1142 11.031 0.339
40.1346 10.625 0.333
40.1551 11.250 0.342
40.1756 12.063 0.354
40.1960 12.823 0.365
40.2165 12.917 0.367
40.2369 11.656 0.348
40.2574 11.729 0.350
40.2779 11.760 0.350
40.2983 11.344 0.344
40.3188 10.938 0.338
40.3393 11.458 0.345
40.3597 10.802 0.335
40.3802 11.063 0.339
40.4006 11.406 0.345
40.4211 10.708 0.334
40.4416 11.240 0.342
40.4620 10.677 0.333
40.4825 10.250 0.327
40.5030 10.646 0.333
40.5234 10.771 0.335
40.5439 10.375 0.329
40.5643 10.354 0.328
40.5848 10.969 0.338
40.6053 10.917 0.337
40.6257 10.260 0.327
40.6462 10.615 0.333
40.6667 10.438 0.330
40.6871 10.865 0.336
40.7076 11.135 0.341
40.7281 11.240 0.342
40.7485 12.521 0.361
40.7690 12.521 0.361
40.7894 13.188 0.371
40.8099 14.708 0.391
40.8304 15.115 0.397
40.8508 16.115 0.410
40.8713 16.708 0.417
40.8918 15.667 0.404
40.9122 15.677 0.404
40.9327 14.750 0.392
40.9531 14.635 0.390
40.9736 13.688 0.378
40.9941 14.042 0.382
41.0145 14.365 0.387
41.0350 14.896 0.394
41.0555 14.771 0.392
41.0759 14.813 0.393
41.0964 13.667 0.377
41.1168 13.365 0.373
41.1373 11.698 0.349
41.1578 12.667 0.363
41.1782 11.969 0.353
41.1987 11.646 0.348
41.2192 10.615 0.333
41.2396 10.031 0.323
41.2601 10.688 0.334
41.2805 10.281 0.327
41.3010 9.823 0.320
41.3215 9.979 0.322
41.3419 9.917 0.321
41.3624 9.427 0.313
41.3829 9.240 0.310
41.4033 9.135 0.308
41.4238 8.865 0.304
41.4442 8.688 0.301
41.4647 9.271 0.311
41.4852 8.094 0.290
41.5056 9.458 0.314
41.5261 8.781 0.302
41.5466 8.750 0.302
41.5670 8.979 0.306
41.5875 9.063 0.307
41.6080 8.375 0.295
41.6284 9.021 0.307
41.6489 9.156 0.309
41.6693 8.781 0.302
41.6898 8.917 0.305
41.7103 8.479 0.297
41.7307 8.615 0.300
41.7512 8.927 0.305
41.7717 9.979 0.322
41.7921 9.208 0.310
41.8126 9.500 0.315
41.8330 9.573 0.316
41.8535 10.177 0.326
41.8740 10.542 0.331
41.8944 10.667 0.333
41.9149 11.521 0.346
41.9354 12.333 0.358
41.9558 12.510 0.361
41.9763 11.563 0.347
41.9967 11.500 0.346
42.0172 11.406 0.345
42.0377 11.146 0.341
42.0581 10.135 0.325
42.0786 10.500 0.331
42.0991 10.646 0.333
42.1195 9.469 0.314
42.1400 9.385 0.313
42.1604 9.865 0.321
42.1809 9.188 0.309
42.2014 9.406 0.313
42.2218 9.563 0.316
42.2423 9.948 0.322
42.2628 9.531 0.315
42.2832 10.490 0.331
42.3037 10.458 0.330
42.3242 10.438 0.330
42.3446 10.781 0.335
42.3651 10.927 0.337
42.3855 10.708 0.334
42.4060 10.885 0.337
42.4265 10.229 0.326
42.4469 10.969 0.338
42.4674 10.323 0.328
42.4879 10.500 0.331
42.5083 10.615 0.333
42.5288 10.667 0.333
42.5492 11.333 0.344
42.5697 10.344 0.328
42.5902 10.896 0.337
42.6106 10.875 0.337
42.6311 10.292 0.327
42.6516 10.708 0.334
42.6720 10.073 0.324
42.6925 10.708 0.334
42.7129 10.823 0.336
42.7334 10.010 0.323
42.7539 10.646 0.333
42.7743 9.823 0.320
42.7948 9.635 0.317
42.8153 9.896 0.321
42.8357 10.625 0.333
42.8562 10.177 0.326
42.8766 9.406 0.313
42.8971 9.792 0.319
42.9176 9.792 0.319
42.9380 9.323 0.312
42.9585 9.833 0.320
42.9790 9.792 0.319
42.9994 9.448 0.314
43.0199 9.531 0.315
43.0403 10.115 0.325
43.0608 9.823 0.320
43.0813 10.531 0.331
43.1017 10.958 0.338
43.1222 11.052 0.339
43.1427 10.531 0.331
43.1631 10.708 0.334
43.1836 10.750 0.335
43.2041 10.813 0.336
43.2245 10.969 0.338
43.2450 11.208 0.342
43.2654 10.656 0.333
43.2859 10.875 0.337
43.3064 11.083 0.340
43.3268 11.115 0.340
43.3473 11.208 0.342
43.3678 11.177 0.341
43.3882 11.021 0.339
43.4087 11.115 0.340
43.4291 11.740 0.350
43.4496 12.406 0.359
43.4701 12.938 0.367
43.4905 13.646 0.377
43.5110 14.604 0.390
43.5315 14.969 0.395
43.5519 16.417 0.414
43.5724 18.198 0.435
43.5928 17.240 0.424
43.6133 14.906 0.394
43.6338 14.375 0.387
43.6542 13.802 0.379
43.6747 13.771 0.379
43.6952 13.385 0.373
43.7156 12.292 0.358
43.7361 11.406 0.345
43.7565 10.646 0.333
43.7770 10.229 0.326
43.7975 10.167 0.325
43.8179 10.031 0.323
43.8384 10.396 0.329
43.8589 10.021 0.323
43.8793 10.313 0.328
43.8998 10.771 0.335
43.9202 10.188 0.326
43.9407 11.292 0.343
43.9612 11.396 0.345
43.9816 10.365 0.329
44.0021 10.823 0.336
44.0226 10.635 0.333
44.0430 10.438 0.330
44.0635 10.250 0.327
44.0840 10.250 0.327
44.1044 10.698 0.334
44.1249 10.260 0.327
44.1453 10.135 0.325
44.1658 9.802 0.320
44.1863 9.938 0.322
44.2067 9.938 0.322
44.2272 9.823 0.320
44.2477 8.604 0.299
44.2681 9.000 0.306
44.2886 9.167 0.309
44.3090 8.552 0.298
44.3295 8.531 0.298
44.3500 9.385 0.313
44.3704 8.677 0.301
44.3909 8.604 0.299
44.4114 8.542 0.298
44.4318 8.615 0.300
44.4523 8.625 0.300
44.4727 8.042 0.289
44.4932 8.167 0.292
44.5137 8.365 0.295
44.5341 8.198 0.292
44.5546 8.521 0.298
44.5751 8.177 0.292
44.5955 8.115 0.291
44.6160 7.927 0.287
44.6364 7.646 0.282
44.6569 7.708 0.283
44.6774 7.760 0.284
44.6978 8.427 0.296
44.7183 8.104 0.291
44.7388 7.583 0.281
44.7592 7.896 0.287
44.7797 7.844 0.286
44.8001 7.427 0.278
44.8206 8.198 0.292
44.8411 8.083 0.290
44.8615 7.500 0.280
44.8820 8.104 0.291
44.9025 7.938 0.288
44.9229 7.969 0.288
44.9434 8.063 0.290
44.9639 7.719 0.284
44.9843 8.250 0.293
45.0048 7.854 0.286
45.0252 8.729 0.302
45.0457 7.792 0.285
45.0662 8.094 0.290
45.0866 8.396 0.296
45.1071 8.177 0.292
45.1276 9.375 0.313
45.1480 9.344 0.312
45.1685 9.792 0.319
45.1889 9.875 0.321
45.2094 10.083 0.324
45.2299 9.865 0.321
45.2503 9.198 0.310
45.2708 9.740 0.319
45.2913 9.479 0.314
45.3117 9.573 0.316
45.3322 9.073 0.307
45.3526 9.375 0.313
45.3731 8.938 0.305
45.3936 8.563 0.299
45.4140 8.281 0.294
45.4345 8.542 0.298
45.4550 8.094 0.290
45.4754 8.198 0.292
45.4959 7.969 0.288
45.5163 8.052 0.290
45.5368 7.979 0.288
45.5573 7.771 0.285
45.5777 7.260 0.275
45.5982 7.844 0.286
45.6187 7.740 0.284
45.6391 7.302 0.276
45.6596 7.135 0.273
45.6800 7.969 0.288
45.7005 7.125 0.272
45.7210 7.531 0.280
45.7414 7.156 0.273
45.7619 7.698 0.283
45.7824 7.542 0.280
45.8028 7.813 0.285
45.8233 7.990 0.288
45.8438 7.177 0.273
45.8642 7.875 0.286
45.8847 7.510 0.280
45.9051 7.750 0.284
45.9256 7.938 0.288
45.9461 7.625 0.282
45.9665 7.344 0.277
45.9870 7.385 0.277
46.0075 7.354 0.277
46.0279 7.052 0.271
46.0484 6.917 0.268
46.0688 7.417 0.278
46.0893 7.073 0.271
46.1098 7.479 0.279
46.1302 6.792 0.266
46.1507 7.250 0.275
46.1712 6.490 0.260
46.1916 7.063 0.271
46.2121 7.010 0.270
46.2325 6.771 0.266
46.2530 6.406 0.258
46.2735 6.656 0.263
46.2939 6.990 0.270
46.3144 6.250 0.255
46.3349 6.521 0.261
46.3553 6.365 0.257
46.3758 7.010 0.270
46.3962 5.896 0.248
46.4167 6.313 0.256
46.4372 6.490 0.260
46.4576 6.833 0.267
46.4781 6.958 0.269
46.4986 6.990 0.270
46.5190 6.698 0.264
46.5395 7.323 0.276
46.5600 7.167 0.273
46.5804 7.875 0.286
46.6009 7.313 0.276
46.6213 7.594 0.281
46.6418 7.833 0.286
46.6623 8.219 0.293
46.6827 8.760 0.302
46.7032 8.656 0.300
46.7237 8.531 0.298
46.7441 8.323 0.294
46.7646 8.292 0.294
46.7850 7.563 0.281
46.8055 7.781 0.285
46.8260 7.406 0.278
46.8464 7.646 0.282
46.8669 7.250 0.275
46.8874 6.729 0.265
46.9078 6.979 0.270
46.9283 7.063 0.271
46.9487 7.271 0.275
46.9692 7.469 0.279
46.9897 7.052 0.271
47.0101 7.354 0.277
47.0306 7.271 0.275
47.0511 7.188 0.274
47.0715 7.219 0.274
47.0920 6.958 0.269
47.1124 7.344 0.277
47.1329 7.781 0.285
47.1534 7.292 0.276
47.1738 7.198 0.274
47.1943 6.781 0.266
47.2148 7.885 0.287
47.2352 7.833 0.286
47.2557 7.552 0.280
47.2761 8.052 0.290
47.2966 7.979 0.288
47.3171 8.469 0.297
47.3375 8.792 0.303
47.3580 8.219 0.293
47.3785 8.740 0.302
47.3989 8.885 0.304
47.4194 9.344 0.312
47.4399 8.938 0.305
47.4603 9.250 0.310
47.4808 9.146 0.309
47.5012 11.146 0.341
47.5217 12.969 0.368
47.5422 13.021 0.368
47.5626 12.875 0.366
47.5831 11.750 0.350
47.6036 11.323 0.343
47.6240 11.250 0.342
47.6445 11.271 0.343
47.6649 11.563 0.347
47.6854 11.688 0.349
47.7059 10.677 0.333
47.7263 9.885 0.321
47.7468 9.188 0.309
47.7673 9.271 0.311
47.7877 9.354 0.312
47.8082 8.875 0.304
47.8286 8.240 0.293
47.8491 8.448 0.297
47.8696 8.510 0.298
47.8900 8.354 0.295
47.9105 8.677 0.301
47.9310 8.823 0.303
47.9514 7.938 0.288
47.9719 8.010 0.289
47.9923 8.771 0.302
48.0128 7.979 0.288
48.0333 7.781 0.285
48.0537 7.542 0.280
48.0742 7.656 0.282
48.0947 8.302 0.294
48.1151 7.750 0.284
48.1356 7.917 0.287
48.1560 7.844 0.286
48.1765 7.438 0.278
48.1970 7.573 0.281
48.2174 8.177 0.292
48.2379 7.938 0.288
48.2584 8.552 0.298
48.2788 8.302 0.294
48.2993 8.229 0.293
48.3198 8.500 0.298
48.3402 8.542 0.298
48.3607 9.302 0.311
48.3811 8.865 0.304
48.4016 8.823 0.303
48.4221 8.823 0.303
48.4425 8.615 0.300
48.4630 8.271 0.294
48.4835 8.188 0.292
48.5039 7.896 0.287
48.5244 7.979 0.288
48.5448 6.802 0.266
48.5653 7.698 0.283
48.5858 7.427 0.278
48.6062 7.427 0.278
48.6267 7.229 0.274
48.6472 7.719 0.284
48.6676 7.781 0.285
48.6881 8.260 0.293
48.7085 7.552 0.280
48.7290 7.313 0.276
48.7495 6.771 0.266
48.7699 6.948 0.269
48.7904 6.948 0.269
48.8109 6.417 0.259
48.8313 6.552 0.261
48.8518 6.625 0.263
48.8722 6.510 0.260
48.8927 6.104 0.252
48.9132 6.531 0.261
48.9336 6.375 0.258
48.9541 6.115 0.252
48.9746 6.875 0.268
48.9950 6.250 0.255
49.0155 6.635 0.263
49.0359 6.635 0.263
49.0564 6.844 0.267
49.0769 6.427 0.259
49.0973 6.771 0.266
49.1178 6.938 0.269
49.1383 7.479 0.279
49.1587 7.271 0.275
49.1792 7.708 0.283
49.1997 7.469 0.279
49.2201 7.729 0.284
49.2406 7.677 0.283
49.2610 7.281 0.275
49.2815 7.906 0.287
49.3020 7.594 0.281
49.3224 7.656 0.282
49.3429 7.563 0.281
49.3634 7.458 0.279
49.3838 7.750 0.284
49.4043 7.740 0.284
49.4247 7.979 0.288
49.4452 7.729 0.284
49.4657 7.740 0.284
49.4861 8.042 0.289
49.5066 7.760 0.284
49.5271 7.760 0.284
49.5475 7.583 0.281
49.5680 8.510 0.298
49.5884 8.135 0.291
49.6089 8.000 0.289
49.6294 8.646 0.300
49.6498 8.250 0.293
49.6703 8.688 0.301
49.6908 10.083 0.324
49.7112 10.073 0.324
49.7317 10.563 0.332
49.7521 12.313 0.358
49.7726 14.052 0.383
49.7931 15.073 0.396
49.8135 13.844 0.380
49.8340 13.115 0.370
49.8545 13.531 0.375
49.8749 13.135 0.370
49.8954 13.094 0.369
49.9158 13.167 0.370
49.9363 13.500 0.375
49.9568 13.094 0.369
49.9772 11.792 0.350
49.9977 11.844 0.351
50.0182 10.854 0.336
50.0386 10.865 0.336
50.0591 10.729 0.334
50.0796 10.490 0.331
50.1000 10.510 0.331
50.1205 10.833 0.336
50.1409 10.417 0.329
50.1614 10.833 0.336
50.1819 10.927 0.337
50.2023 9.885 0.321
50.2228 10.531 0.331
50.2433 10.271 0.327
50.2637 10.490 0.331
50.2842 10.510 0.331
50.3046 10.625 0.333
50.3251 9.635 0.317
50.3456 9.625 0.317
50.3660 9.750 0.319
50.3865 9.990 0.323
50.4070 10.177 0.326
50.4274 9.500 0.315
50.4479 9.719 0.318
50.4683 10.010 0.323
50.4888 10.010 0.323
50.5093 9.531 0.315
50.5297 10.021 0.323
50.5502 9.146 0.309
50.5707 9.208 0.310
50.5911 10.073 0.324
50.6116 9.458 0.314
50.6320 8.990 0.306
50.6525 9.260 0.311
50.6730 9.104 0.308
50.6934 8.375 0.295
50.7139 9.021 0.307
50.7344 8.854 0.304
50.7548 8.323 0.294
50.7753 8.208 0.292
50.7958 8.500 0.298
50.8162 8.104 0.291
50.8367 8.479 0.297
50.8571 8.323 0.294
50.8776 7.990 0.288
50.8981 8.385 0.296
50.9185 8.948 0.305
50.9390 7.729 0.284
50.9595 7.969 0.288
50.9799 7.438 0.278
51.0004 8.198 0.292
51.0208 8.208 0.292
51.0413 8.125 0.291
51.0618 6.854 0.267
51.0822 7.281 0.275
51.1027 6.771 0.266
51.1232 7.094 0.272
51.1436 6.740 0.265
51.1641 6.646 0.263
51.1845 7.438 0.278
51.2050 7.323 0.276
51.2255 7.052 0.271
51.2459 6.594 0.262
51.2664 6.625 0.263
51.2869 6.938 0.269
51.3073 6.396 0.258
51.3278 6.958 0.269
51.3482 6.573 0.262
51.3687 6.740 0.265
51.3892 6.427 0.259
51.4096 6.677 0.264
51.4301 6.510 0.260
51.4506 5.823 0.246
51.4710 6.313 0.256
51.4915 6.740 0.265
51.5119 6.656 0.263
51.5324 6.021 0.250
51.5529 6.760 0.265
51.5733 7.354 0.277
51.5938 7.281 0.275
51.6143 7.083 0.272
51.6347 6.896 0.268
51.6552 7.021 0.270
51.6757 7.083 0.272
51.6961 7.583 0.281
51.7166 6.854 0.267
51.7370 6.646 0.263
51.7575 6.823 0.267
51.7780 6.750 0.265
51.7984 6.729 0.265
51.8189 6.625 0.263
51.8394 6.510 0.260
51.8598 6.688 0.264
51.8803 5.969 0.249
51.9007 6.406 0.258
51.9212 6.604 0.262
51.9417 6.333 0.257
51.9621 6.875 0.268
51.9826 6.458 0.259
52.0031 6.833 0.267
52.0235 6.802 0.266
52.0440 6.771 0.266
52.0644 6.615 0.262
52.0849 6.583 0.262
52.1054 6.854 0.267
52.1258 6.760 0.265
52.1463 6.583 0.262
52.1668 6.854 0.267
52.1872 6.594 0.262
52.2077 6.781 0.266
52.2281 6.885 0.268
52.2486 6.896 0.268
52.2691 7.063 0.271
52.2895 7.344 0.277
52.3100 7.031 0.271
52.3305 7.094 0.272
52.3509 7.104 0.272
52.3714 7.146 0.273
52.3918 6.990 0.270
52.4123 6.052 0.251
52.4328 6.698 0.264
52.4532 6.344 0.257
52.4737 6.188 0.254
52.4942 6.302 0.256
52.5146 5.896 0.248
52.5351 5.906 0.248
52.5556 5.854 0.247
52.5760 5.719 0.244
52.5965 5.979 0.250
52.6169 5.719 0.244
52.6374 5.760 0.245
52.6579 5.365 0.236
52.6783 5.594 0.241
52.6988 5.573 0.241
52.7193 5.458 0.238
52.7397 5.740 0.245
52.7602 5.906 0.248
52.7806 6.021 0.250
52.8011 6.052 0.251
52.8216 6.052 0.251
52.8420 5.688 0.243
52.8625 5.542 0.240
52.8830 5.688 0.243
52.9034 5.677 0.243
52.9239 6.063 0.251
52.9443 6.021 0.250
52.9648 6.000 0.250
52.9853 5.833 0.247
53.0057 6.583 0.262
53.0262 6.292 0.256
53.0467 5.802 0.246
53.0671 5.979 0.250
53.0876 6.010 0.250
53.1080 5.917 0.248
53.1285 5.813 0.246
53.1490 6.156 0.253
53.1694 5.958 0.249
53.1899 6.073 0.252
53.2104 6.219 0.255
53.2308 5.813 0.246
53.2513 5.083 0.230
53.2717 5.521 0.240
53.2922 5.635 0.242
53.3127 5.417 0.238
53.3331 5.521 0.240
53.3536 5.781 0.245
53.3741 5.375 0.237
53.3945 5.552 0.240
53.4150 5.385 0.237
53.4355 5.510 0.240
53.4559 5.406 0.237
53.4764 5.490 0.239
53.4968 5.604 0.242
53.5173 5.510 0.240
53.5378 5.427 0.238
53.5582 5.219 0.233
53.5787 5.104 0.231
53.5992 5.667 0.243
53.6196 5.250 0.234
53.6401 5.917 0.248
53.6605 5.479 0.239
53.6810 5.229 0.233
53.7015 5.677 0.243
53.7219 5.875 0.247
53.7424 5.177 0.232
53.7629 5.760 0.245
53.7833 5.698 0.244
53.8038 5.646 0.243
53.8242 5.729 0.244
53.8447 5.729 0.244
53.8652 6.375 0.258
53.8856 6.354 0.257
53.9061 5.958 0.249
53.9266 5.927 0.248
53.9470 6.073 0.252
53.9675 5.927 0.248
53.9879 5.833 0.247
54.0084 5.729 0.244
54.0289 6.063 0.251
54.0493 5.583 0.241
54.0698 5.302 0.235
54.0903 5.542 0.240
54.1107 6.198 0.254
54.1312 5.604 0.242
54.1516 6.271 0.256
54.1721 5.542 0.240
54.1926 6.323 0.257
54.2130 6.375 0.258
54.2335 5.729 0.244
54.2540 5.677 0.243
54.2744 5.708 0.244
54.2949 5.948 0.249
54.3154 5.906 0.248
54.3358 6.146 0.253
54.3563 6.063 0.251
54.3767 5.615 0.242
54.3972 5.833 0.247
54.4177 5.771 0.245
54.4381 6.198 0.254
54.4586 5.406 0.237
54.4791 5.542 0.240
54.4995 5.708 0.244
54.5200 6.188 0.254
54.5404 5.333 0.236
54.5609 5.479 0.239
54.5814 6.083 0.252
54.6018 5.552 0.240
54.6223 6.177 0.254
54.6428 5.833 0.247
54.6632 6.156 0.253
54.6837 6.010 0.250
54.7041 6.052 0.251
54.7246 5.927 0.248
54.7451 6.010 0.250
54.7655 5.969 0.249
54.7860 5.813 0.246
54.8065 5.969 0.249
54.8269 6.323 0.257
54.8474 6.031 0.251
54.8678 6.104 0.252
54.8883 5.979 0.250
54.9088 6.396 0.258
54.9292 6.302 0.256
54.9497 6.063 0.251
54.9702 6.042 0.251
54.9906 6.510 0.260
55.0111 7.063 0.271
55.0316 7.625 0.282
55.0520 8.781 0.302
55.0725 9.708 0.318
55.0929 11.260 0.342
55.1134 14.125 0.384
55.1339 16.219 0.411
55.1543 16.729 0.417
55.1748 15.823 0.406
55.1953 15.708 0.405
55.2157 15.229 0.398
55.2362 14.479 0.388
55.2566 14.135 0.384
55.2771 14.063 0.383
55.2976 12.667 0.363
55.3180 13.198 0.371
55.3385 11.583 0.347
55.3590 10.510 0.331
55.3794 10.219 0.326
55.3999 8.979 0.306
55.4203 8.302 0.294
55.4408 7.104 0.272
55.4613 6.802 0.266
55.4817 6.375 0.258
55.5022 6.313 0.256
55.5227 6.688 0.264
55.5431 6.063 0.251
55.5636 5.542 0.240
55.5840 5.823 0.246
55.6045 6.010 0.250
55.6250 6.083 0.252
55.6454 6.188 0.254
55.6659 5.729 0.244
55.6864 6.125 0.253
55.7068 5.479 0.239
55.7273 5.917 0.248
55.7477 6.031 0.251
55.7682 6.323 0.257
55.7887 5.969 0.249
55.8091 6.125 0.253
55.8296 6.167 0.253
55.8501 6.740 0.265
55.8705 6.208 0.254
55.8910 6.135 0.253
55.9115 6.563 0.261
55.9319 7.010 0.270
55.9524 6.792 0.266
55.9728 6.615 0.262
55.9933 7.073 0.271
56.0138 7.250 0.275
56.0342 7.427 0.278
56.0547 8.406 0.296
56.0752 8.990 0.306
56.0956 9.240 0.310
56.1161 11.438 0.345
56.1365 12.438 0.360
56.1570 12.292 0.358
56.1775 10.833 0.336
56.1979 9.344 0.312
56.2184 8.948 0.305
56.2389 8.354 0.295
56.2593 8.708 0.301
56.2798 8.750 0.302
56.3002 8.313 0.294
56.3207 8.281 0.294
56.3412 7.979 0.288
56.3616 6.438 0.259
56.3821 6.406 0.258
56.4026 5.750 0.245
56.4230 5.760 0.245
56.4435 5.469 0.239
56.4639 5.146 0.232
56.4844 5.750 0.245
56.5049 5.344 0.236
56.5253 5.156 0.232
56.5458 5.135 0.231
56.5663 4.646 0.220
56.5867 5.000 0.228
56.6072 4.958 0.227
56.6276 5.052 0.229
56.6481 4.938 0.227
56.6686 5.313 0.235
56.6890 4.865 0.225
56.7095 5.646 0.243
56.7300 5.375 0.237
56.7504 5.677 0.243
56.7709 5.531 0.240
56.7914 6.115 0.252
56.8118 5.896 0.248
56.8323 5.667 0.243
56.8527 5.552 0.240
56.8732 5.490 0.239
56.8937 5.542 0.240
56.9141 4.885 0.226
56.9346 5.521 0.240
56.9551 5.094 0.230
56.9755 5.021 0.229
56.9960 4.594 0.219
57.0164 4.938 0.227
57.0369 5.125 0.231
57.0574 5.021 0.229
57.0778 4.656 0.220
57.0983 4.865 0.225
57.1188 4.542 0.218
57.1392 4.667 0.220
57.1597 4.677 0.221
57.1801 4.708 0.221
57.2006 4.688 0.221
57.2211 4.573 0.218
57.2415 4.438 0.215
57.2620 4.615 0.219
57.2825 4.979 0.228
57.3029 5.240 0.234
57.3234 5.156 0.232
57.3438 4.865 0.225
57.3643 5.052 0.229
57.3848 5.198 0.233
57.4052 5.344 0.236
57.4257 5.135 0.231
57.4462 4.990 0.228
57.4666 4.750 0.222
57.4871 5.313 0.235
57.5075 5.260 0.234
57.5280 4.927 0.227
57.5485 5.063 0.230
57.5689 5.479 0.239
57.5894 5.865 0.247
57.6099 5.823 0.246
57.6303 6.219 0.255
57.6508 6.260 0.255
57.6713 6.594 0.262
57.6917 5.792 0.246
57.7122 5.896 0.248
57.7326 7.073 0.271
57.7531 7.323 0.276
57.7736 7.510 0.280
57.7940 7.969 0.288
57.8145 8.427 0.296
57.8350 9.552 0.315
57.8554 9.792 0.319
57.8759 8.573 0.299
57.8963 8.042 0.289
57.9168 7.885 0.287
57.9373 7.750 0.284
57.9577 7.833 0.286
57.9782 8.052 0.290
57.9987 7.896 0.287
58.0191 7.927 0.287
58.0396 7.646 0.282
58.0600 7.198 0.274
58.0805 6.667 0.264
58.1010 6.781 0.266
58.1214 6.552 0.261
58.1419 6.531 0.261
58.1624 5.885 0.248
58.1828 5.990 0.250
58.2033 6.063 0.251
58.2237 6.646 0.263
58.2442 6.313 0.256
58.2647 6.583 0.262
58.2851 6.625 0.263
58.3056 6.510 0.260
58.3261 6.573 0.262
58.3465 6.063 0.251
58.3670 6.625 0.263
58.3874 6.396 0.258
58.4079 5.958 0.249
58.4284 6.083 0.252
58.4488 6.510 0.260
58.4693 5.469 0.239
58.4898 6.083 0.252
58.5102 5.813 0.246
58.5307 5.948 0.249
58.5512 6.521 0.261
58.5716 6.333 0.257
58.5921 6.135 0.253
58.6125 6.417 0.259
58.6330 6.417 0.259
58.6535 6.365 0.257
58.6739 6.479 0.260
58.6944 6.125 0.253
58.7149 6.938 0.269
58.7353 6.219 0.255
58.7558 6.594 0.262
58.7762 6.271 0.256
58.7967 6.406 0.258
58.8172 6.271 0.256
58.8376 6.385 0.258
58.8581 6.563 0.261
58.8786 6.708 0.264
58.8990 6.000 0.250
58.9195 6.188 0.254
58.9399 5.875 0.247
58.9604 5.979 0.250
58.9809 6.802 0.266
59.0013 6.302 0.256
59.0218 6.198 0.254
59.0423 6.031 0.251
59.0627 5.896 0.248
59.0832 6.417 0.259
59.1036 6.219 0.255
59.1241 7.188 0.274
59.1446 7.292 0.276
59.1650 7.073 0.271
59.1855 6.896 0.268
59.2060 5.896 0.248
59.2264 5.510 0.240
59.2469 6.115 0.252
59.2674 5.958 0.249
59.2878 5.552 0.240
59.3083 5.896 0.248
59.3287 5.448 0.238
59.3492 5.469 0.239
59.3697 5.063 0.230
59.3901 4.896 0.226
59.4106 5.146 0.232
59.4311 4.927 0.227
59.4515 4.625 0.219
59.4720 4.385 0.214
59.4924 4.698 0.221
59.5129 4.802 0.224
59.5334 4.469 0.216
59.5538 4.323 0.212
59.5743 4.406 0.214
59.5948 4.625 0.219
59.6152 4.188 0.209
59.6357 4.375 0.213
59.6561 4.792 0.223
59.6766 4.750 0.222
59.6971 4.688 0.221
59.7175 4.583 0.219
59.7380 4.667 0.220
59.7585 5.010 0.228
59.7789 5.990 0.250
59.7994 5.469 0.239
59.8198 6.188 0.254
59.8403 5.271 0.234
59.8608 5.604 0.242
59.8812 5.344 0.236
59.9017 5.750 0.245
59.9222 5.458 0.238
59.9426 5.563 0.241
59.9631 5.875 0.247
59.9835 5.344 0.236
60.0040 5.385 0.237
60.0245 5.552 0.240
60.0449 5.823 0.246
60.0654 5.146 0.232
60.0859 5.000 0.228
60.1063 5.167 0.232
60.1268 5.063 0.230
60.1473 4.990 0.228
60.1677 4.958 0.227
60.1882 4.604 0.219
60.2086 4.844 0.225
60.2291 4.729 0.222
60.2496 5.073 0.230
60.2700 4.208 0.209
60.2905 4.688 0.221
60.3110 4.885 0.226
60.3314 4.667 0.220
60.3519 4.906 0.226
60.3723 4.875 0.225
60.3928 4.438 0.215
60.4133 5.031 0.229
60.4337 4.979 0.228
60.4542 4.958 0.227
60.4747 4.479 0.216
60.4951 4.927 0.227
60.5156 5.125 0.231
60.5360 5.385 0.237
60.5565 4.510 0.217
60.5770 4.875 0.225
60.5974 5.021 0.229
60.6179 5.188 0.232
60.6384 4.979 0.228
60.6588 4.906 0.226
60.6793 4.729 0.222
60.6997 4.438 0.215
60.7202 4.510 0.217
60.7407 4.792 0.223
60.7611 4.854 0.225
60.7816 4.698 0.221
60.8021 4.740 0.222
60.8225 4.802 0.224
60.8430 5.052 0.229
60.8634 4.823 0.224
60.8839 4.479 0.216
60.9044 4.333 0.212
60.9248 4.250 0.210
60.9453 4.688 0.221
60.9658 4.750 0.222
60.9862 4.646 0.220
61.0067 4.365 0.213
61.0272 4.427 0.215
61.0476 4.573 0.218
61.0681 4.188 0.209
61.0885 4.729 0.222
61.1090 4.510 0.217
61.1295 4.458 0.216
61.1499 4.188 0.209
61.1704 4.323 0.212
61.1909 4.479 0.216
61.2113 4.292 0.211
61.2318 4.448 0.215
61.2522 4.177 0.209
61.2727 4.594 0.219
61.2932 4.604 0.219
61.3136 4.344 0.213
61.3341 4.615 0.219
61.3546 4.396 0.214
61.3750 4.667 0.220
61.3955 4.594 0.219
61.4159 4.594 0.219
61.4364 4.854 0.225
61.4569 4.510 0.217
61.4773 4.281 0.211
61.4978 4.604 0.219
61.5183 4.771 0.223
61.5387 4.479 0.216
61.5592 5.063 0.230
61.5796 4.385 0.214
61.6001 4.417 0.214
61.6206 4.385 0.214
61.6410 4.323 0.212
61.6615 4.583 0.219
61.6820 4.385 0.214
61.7024 4.302 0.212
61.7229 4.240 0.210
61.7433 3.813 0.199
61.7638 4.469 0.216
61.7843 3.802 0.199
61.8047 4.354 0.213
61.8252 4.104 0.207
61.8457 4.552 0.218
61.8661 3.938 0.203
61.8866 3.958 0.203
61.9071 4.167 0.208
61.9275 3.979 0.204
61.9480 4.177 0.209
61.9684 4.198 0.209
61.9889 4.135 0.208
62.0094 4.365 0.213
62.0298 4.531 0.217
62.0503 4.760 0.223
62.0708 5.052 0.229
62.0912 5.146 0.232
62.1117 4.250 0.210
62.1321 4.229 0.210
62.1526 4.542 0.218
62.1731 4.354 0.213
62.1935 4.292 0.211
62.2140 4.094 0.207
62.2345 4.229 0.210
62.2549 4.208 0.209
62.2754 4.385 0.214
62.2958 4.021 0.205
62.3163 4.563 0.218
62.3368 3.854 0.200
62.3572 4.104 0.207
62.3777 3.698 0.196
62.3982 3.729 0.197
62.4186 3.844 0.200
62.4391 4.427 0.215
62.4595 3.969 0.203
62.4800 3.688 0.196
62.5005 4.010 0.204
62.5209 4.323 0.212
62.5414 4.229 0.210
62.5619 4.104 0.207
62.5823 3.719 0.197
62.6028 3.708 0.197
62.6232 4.125 0.207
62.6437 3.813 0.199
62.6642 3.927 0.202
62.6846 3.927 0.202
62.7051 3.792 0.199
62.7256 3.969 0.203
62.7460 4.146 0.208
62.7665 3.594 0.193
62.7870 3.896 0.201
62.8074 3.979 0.204
62.8279 3.875 0.201
62.8483 4.115 0.207
62.8688 3.771 0.198
62.8893 3.573 0.193
62.9097 3.917 0.202
62.9302 4.250 0.210
62.9507 4.240 0.210
62.9711 3.927 0.202
62.9916 4.333 0.212
63.0120 4.083 0.206
63.0325 4.333 0.212
63.0530 4.031 0.205
63.0734 4.344 0.213
63.0939 3.771 0.198
63.1144 4.042 0.205
63.1348 3.927 0.202
63.1553 4.281 0.211
63.1757 4.104 0.207
63.1962 3.833 0.200
63.2167 4.385 0.214
63.2371 3.823 0.200
63.2576 4.542 0.218
63.2781 4.260 0.211
63.2985 4.469 0.216
63.3190 4.500 0.217
63.3394 4.010 0.204
63.3599 4.646 0.220
63.3804 4.740 0.222
63.4008 4.698 0.221
63.4213 4.771 0.223
63.4418 4.760 0.223
63.4622 4.823 0.224
63.4827 4.938 0.227
63.5032 4.875 0.225
63.5236 4.979 0.228
63.5441 5.229 0.233
63.5645 5.094 0.230
63.5850 5.292 0.235
63.6055 5.500 0.239
63.6259 5.865 0.247
63.6464 5.729 0.244
63.6669 5.708 0.244
63.6873 5.479 0.239
63.7078 6.146 0.253
63.7282 5.927 0.248
63.7487 6.219 0.255
63.7692 5.708 0.244
63.7896 5.927 0.248
63.8101 5.896 0.248
63.8306 5.833 0.247
63.8510 5.990 0.250
63.8715 6.073 0.252
63.8919 5.719 0.244
63.9124 5.531 0.240
63.9329 5.323 0.235
63.9533 5.469 0.239
63.9738 5.542 0.240
63.9943 5.833 0.247
64.0147 5.521 0.240
64.0352 4.990 0.228
64.0556 4.896 0.226
64.0761 5.427 0.238
64.0966 5.010 0.228
64.1170 4.906 0.226
64.1375 5.094 0.230
64.1580 4.792 0.223
64.1784 4.417 0.214
64.1989 4.906 0.226
64.2193 4.625 0.219
64.2398 4.438 0.215
64.2603 4.875 0.225
64.2807 4.948 0.227
64.3012 4.750 0.222
64.3217 4.406 0.214
64.3421 5.000 0.228
64.3626 5.073 0.230
64.3831 5.594 0.241
64.4035 4.958 0.227
64.4240 5.406 0.237
64.4444 4.667 0.220
64.4649 5.104 0.231
64.4854 5.385 0.237
64.5058 5.813 0.246
64.5263 6.271 0.256
64.5468 6.417 0.259
64.5672 6.813 0.266
64.5877 7.448 0.279
64.6081 7.833 0.286
64.6286 8.240 0.293
64.6491 8.052 0.290
64.6695 7.406 0.278
64.6900 7.677 0.283
64.7105 7.250 0.275
64.7309 7.375 0.277
64.7514 7.094 0.272
64.7718 6.458 0.259
64.7923 6.802 0.266
64.8128 6.677 0.264
64.8332 6.219 0.255
64.8537 5.813 0.246
64.8742 5.448 0.238
64.8946 5.615 0.242
64.9151 5.000 0.228
64.9355 5.063 0.230
64.9560 4.813 0.224
64.9765 4.646 0.220
64.9969 4.458 0.216
65.0174 4.313 0.212
65.0379 3.990 0.204
65.0583 4.000 0.204
65.0788 4.010 0.204
65.0992 4.313 0.212
65.1197 4.073 0.206
65.1402 4.073 0.206
65.1606 3.958 0.203
65.1811 4.042 0.205
65.2016 3.792 0.199
65.2220 3.948 0.203
65.2425 4.250 0.210
65.2630 4.167 0.208
65.2834 4.594 0.219
65.3039 4.406 0.214
65.3243 4.406 0.214
65.3448 4.500 0.217
65.3653 4.542 0.218
65.3857 4.448 0.215
65.4062 4.542 0.218
65.4267 4.688 0.221
65.4471 4.594 0.219
65.4676 4.854 0.225
65.4880 4.958 0.227
65.5085 5.760 0.245
65.5290 5.677 0.243
65.5494 5.708 0.244
65.5699 5.708 0.244
65.5904 4.792 0.223
65.6108 5.021 0.229
65.6313 4.969 0.228
65.6517 5.063 0.230
65.6722 5.260 0.234
65.6927 4.594 0.219
65.7131 4.750 0.222
65.7336 4.490 0.216
65.7541 5.167 0.232
65.7745 4.344 0.213
65.7950 4.646 0.220
65.8154 4.750 0.222
65.8359 4.573 0.218
65.8564 4.240 0.210
65.8768 4.240 0.210
65.8973 4.500 0.217
65.9178 4.719 0.222
65.9382 4.667 0.220
65.9587 4.365 0.213
65.9791 4.813 0.224
65.9996 4.885 0.226
66.0201 4.563 0.218
66.0405 4.802 0.224
66.0610 4.490 0.216
66.0815 4.531 0.217
66.1019 4.417 0.214
66.1224 4.365 0.213
66.1429 4.844 0.225
66.1633 4.688 0.221
66.1838 5.052 0.229
66.2042 4.552 0.218
66.2247 4.688 0.221
66.2452 4.531 0.217
66.2656 4.229 0.210
66.2861 4.500 0.217
66.3066 4.677 0.221
66.3270 4.469 0.216
66.3475 4.792 0.223
66.3679 4.479 0.216
66.3884 4.240 0.210
66.4089 4.167 0.208
66.4293 3.979 0.204
66.4498 4.240 0.210
66.4703 4.167 0.208
66.4907 3.979 0.204
66.5112 4.208 0.209
66.5316 3.646 0.195
66.5521 4.188 0.209
66.5726 4.198 0.209
66.5930 4.292 0.211
66.6135 4.698 0.221
66.6340 3.885 0.201
66.6544 4.250 0.210
66.6749 4.135 0.208
66.6953 4.073 0.206
66.7158 4.323 0.212
66.7363 4.542 0.218
66.7567 4.146 0.208
66.7772 4.521 0.217
66.7977 4.490 0.216
66.8181 4.552 0.218
66.8386 4.729 0.222
66.8590 4.625 0.219
66.8795 4.927 0.227
66.9000 4.490 0.216
66.9204 4.906 0.226
66.9409 4.823 0.224
66.9614 5.115 0.231
66.9818 5.865 0.247
67.0023 6.260 0.255
67.0228 5.990 0.250
67.0432 6.844 0.267
67.0637 7.677 0.283
67.0841 7.677 0.283
67.1046 7.990 0.288
67.1251 7.750 0.284
67.1455 7.073 0.271
67.1660 6.958 0.269
67.1865 6.740 0.265
67.2069 6.677 0.264
67.2274 6.229 0.255
67.2478 6.375 0.258
67.2683 6.667 0.264
67.2888 6.938 0.269
67.3092 6.698 0.264
67.3297 5.990 0.250
67.3502 5.760 0.245
67.3706 6.021 0.250
67.3911 5.667 0.243
67.4115 5.469 0.239
67.4320 5.292 0.235
67.4525 5.198 0.233
67.4729 5.167 0.232
67.4934 5.073 0.230
67.5139 5.167 0.232
67.5343 5.073 0.230
67.5548 4.979 0.228
67.5752 5.281 0.235
67.5957 5.052 0.229
67.6162 4.823 0.224
67.6366 4.531 0.217
67.6571 4.750 0.222
67.6776 4.375 0.213
67.6980 5.042 0.229
67.7185 4.896 0.226
67.7389 4.625 0.219
67.7594 5.240 0.234
67.7799 4.969 0.228
67.8003 4.635 0.220
67.8208 4.625 0.219
67.8413 4.833 0.224
67.8617 5.052 0.229
67.8822 4.583 0.219
67.9027 5.260 0.234
67.9231 5.323 0.235
67.9436 5.042 0.229
67.9640 4.594 0.219
67.9845 5.260 0.234
68.0050 5.177 0.232
68.0254 5.417 0.238
68.0459 4.917 0.226
68.0664 5.083 0.230
68.0868 5.250 0.234
68.1073 4.521 0.217
68.1277 4.625 0.219
68.1482 4.896 0.226
68.1687 5.333 0.236
68.1891 5.063 0.230
68.2096 4.792 0.223
68.2301 5.052 0.229
68.2505 5.323 0.235
68.2710 5.510 0.240
68.2914 5.604 0.242
68.3119 5.490 0.239
68.3324 4.906 0.226
68.3528 4.854 0.225
68.3733 4.656 0.220
68.3938 4.302 0.212
68.4142 4.542 0.218
68.4347 4.844 0.225
68.4551 4.771 0.223
68.4756 4.969 0.228
68.4961 4.594 0.219
68.5165 4.885 0.226
68.5370 4.385 0.214
68.5575 4.563 0.218
68.5779 4.125 0.207
68.5984 4.052 0.205
68.6189 4.417 0.214
68.6393 4.375 0.213
68.6598 4.490 0.216
68.6802 3.990 0.204
68.7007 4.417 0.214
68.7212 4.583 0.219
68.7416 4.271 0.211
68.7621 4.073 0.206
68.7826 4.302 0.212
68.8030 4.031 0.205
68.8235 4.469 0.216
68.8439 4.281 0.211
68.8644 4.479 0.216
68.8849 4.833 0.224
68.9053 5.229 0.233
68.9258 5.031 0.229
68.9463 5.146 0.232
68.9667 4.677 0.221
68.9872 4.448 0.215
69.0076 4.292 0.211
69.0281 4.552 0.218
69.0486 4.427 0.215
69.0690 4.583 0.219
69.0895 4.760 0.223
69.1100 5.052 0.229
69.1304 5.000 0.228
69.1509 4.854 0.225
69.1713 4.563 0.218
69.1918 4.458 0.216
69.2123 4.354 0.213
69.2327 4.500 0.217
69.2532 4.635 0.220
69.2737 4.167 0.208
69.2941 4.240 0.210
69.3146 3.938 0.203
69.3350 4.250 0.210
69.3555 3.813 0.199
69.3760 4.323 0.212
69.3964 4.219 0.210
69.4169 4.083 0.206
69.4374 4.031 0.205
69.4578 4.052 0.205
69.4783 3.885 0.201
69.4988 3.948 0.203
69.5192 3.729 0.197
69.5397 3.802 0.199
69.5601 3.604 0.194
69.5806 3.510 0.191
69.6011 3.510 0.191
69.6215 3.563 0.193
69.6420 3.792 0.199
69.6625 3.771 0.198
69.6829 3.563 0.193
69.7034 3.354 0.187
69.7238 3.885 0.201
69.7443 3.760 0.198
69.7648 3.708 0.197
69.7852 3.615 0.194
69.8057 3.625 0.194
69.8262 3.573 0.193
69.8466 3.406 0.188
69.8671 3.531 0.192
69.8875 3.552 0.192
69.9080 3.271 0.185
69.9285 3.885 0.201
69.9489 3.573 0.193
69.9694 3.396 0.188
69.9899 3.417 0.189
70.0103 3.813 0.199
70.0308 3.479 0.190
70.0512 3.646 0.195
70.0717 3.688 0.196
70.0922 3.677 0.196
70.1126 3.500 0.191
70.1331 3.823 0.200
70.1536 3.625 0.194
70.1740 3.438 0.189
70.1945 3.625 0.194
70.2149 3.771 0.198
70.2354 3.667 0.195
70.2559 3.448 0.190
70.2763 3.542 0.192
70.2968 3.656 0.195
70.3173 3.813 0.199
70.3377 3.896 0.201
70.3582 3.479 0.190
70.3787 3.677 0.196
70.3991 3.938 0.203
70.4196 3.823 0.200
70.4400 3.781 0.198
70.4605 3.219 0.183
70.4810 3.292 0.185
70.5014 3.958 0.203
70.5219 3.323 0.186
70.5424 3.594 0.193
70.5628 3.688 0.196
70.5833 3.427 0.189
70.6037 3.646 0.195
70.6242 3.875 0.201
70.6447 3.583 0.193
70.6651 3.500 0.191
70.6856 3.552 0.192
70.7061 3.656 0.195
70.7265 3.563 0.193
70.7470 3.833 0.200
70.7674 3.802 0.199
70.7879 3.365 0.187
70.8084 3.917 0.202
70.8288 3.531 0.192
70.8493 3.490 0.191
70.8698 3.458 0.190
70.8902 3.615 0.194
70.9107 3.729 0.197
70.9311 3.958 0.203
70.9516 3.625 0.194
70.9721 3.344 0.187
70.9925 3.594 0.193
71.0130 3.448 0.190
71.0335 3.531 0.192
71.0539 3.625 0.194
71.0744 3.542 0.192
71.0948 3.375 0.188
71.1153 3.260 0.184
71.1358 3.635 0.195
71.1562 3.385 0.188
71.1767 3.344 0.187
71.1972 2.927 0.175
71.2176 3.708 0.197
71.2381 3.458 0.190
71.2586 3.406 0.188
71.2790 3.583 0.193
71.2995 3.458 0.190
71.3199 3.208 0.183
71.3404 2.969 0.176
71.3609 3.333 0.186
71.3813 3.208 0.183
71.4018 3.354 0.187
71.4223 3.458 0.190
71.4427 3.635 0.195
71.4632 3.333 0.186
71.4836 3.615 0.194
71.5041 3.042 0.178
71.5246 3.219 0.183
71.5450 3.073 0.179
71.5655 3.188 0.182
71.5860 3.427 0.189
71.6064 3.229 0.183
71.6269 3.490 0.191
71.6473 3.323 0.186
71.6678 3.448 0.190
71.6883 3.042 0.178
71.7087 3.583 0.193
71.7292 3.458 0.190
71.7497 3.563 0.193
71.7701 3.198 0.183
71.7906 3.292 0.185
71.8110 3.177 0.182
71.8315 3.479 0.190
71.8520 3.156 0.181
71.8724 3.115 0.180
71.8929 3.292 0.185
71.9134 3.271 0.185
71.9338 3.302 0.185
71.9543 3.094 0.180
71.9747 3.531 0.192
71.9952 3.135 0.181
72.0157 3.208 0.183
72.0361 3.250 0.184
72.0566 3.292 0.185
72.0771 3.146 0.181
72.0975 3.333 0.186
72.1180 3.365 0.187
72.1385 3.313 0.186
72.1589 3.063 0.179
72.1794 3.292 0.185
72.1998 3.510 0.191
72.2203 3.250 0.184
72.2408 3.823 0.200
72.2612 3.198 0.183
72.2817 3.417 0.189
72.3022 3.427 0.189
72.3226 3.552 0.192
72.3431 3.333 0.186
72.3635 3.260 0.184
72.3840 3.510 0.191
72.4045 3.344 0.187
72.4249 3.542 0.192
72.4454 3.771 0.198
72.4659 3.708 0.197
72.4863 3.500 0.191
72.5068 3.510 0.191
72.5272 3.250 0.184
72.5477 3.219 0.183
72.5682 3.219 0.183
72.5886 3.458 0.190
72.6091 3.354 0.187
72.6296 3.448 0.190
72.6500 3.208 0.183
72.6705 3.208 0.183
72.6909 3.406 0.188
72.7114 3.635 0.195
72.7319 3.396 0.188
72.7523 3.740 0.197
72.7728 3.490 0.191
72.7933 3.406 0.188
72.8137 3.677 0.196
72.8342 3.604 0.194
72.8547 3.490 0.191
72.8751 3.396 0.188
72.8956 2.958 0.176
72.9160 2.771 0.170
72.9365 3.333 0.186
72.9570 3.021 0.177
72.9774 3.115 0.180
72.9979 3.229 0.183
73.0184 2.990 0.176
73.0388 3.063 0.179
73.0593 2.979 0.176
73.0797 2.948 0.175
73.1002 2.958 0.176
73.1207 3.198 0.183
73.1411 3.302 0.185
73.1616 2.906 0.174
73.1821 3.094 0.180
73.2025 2.729 0.169
73.2230 3.073 0.179
73.2434 2.875 0.173
73.2639 3.125 0.180
73.2844 2.802 0.171
73.3048 2.927 0.175
73.3253 2.917 0.174
73.3458 2.938 0.175
73.3662 3.146 0.181
73.3867 2.563 0.163
73.4071 3.208 0.183
73.4276 3.115 0.180
73.4481 3.115 0.180
73.4685 3.052 0.178
73.4890 2.948 0.175
73.5095 2.833 0.172
73.5299 2.969 0.176
73.5504 2.833 0.172
73.5708 2.844 0.172
73.5913 2.958 0.176
73.6118 2.802 0.171
73.6322 2.927 0.175
73.6527 3.052 0.178
73.6732 2.781 0.170
73.6936 2.990 0.176
73.7141 2.906 0.174
73.7346 2.979 0.176
73.7550 3.427 0.189
73.7755 2.958 0.176
73.7959 3.156 0.181
73.8164 2.969 0.176
73.8369 2.885 0.173
73.8573 3.094 0.180
73.8778 3.344 0.187
73.8983 2.740 0.169
73.9187 2.708 0.168
73.9392 3.000 0.177
73.9596 3.271 0.185
73.9801 3.313 0.186
74.0006 2.875 0.173
74.0210 2.948 0.175
74.0415 3.042 0.178
74.0620 3.094 0.180
74.0824 2.833 0.172
74.1029 2.583 0.164
74.1233 2.885 0.173
74.1438 3.135 0.181
74.1643 2.958 0.176
74.1847 3.135 0.181
74.2052 3.292 0.185
74.2257 3.125 0.180
74.2461 2.917 0.174
74.2666 2.656 0.166
74.2870 3.260 0.184
74.3075 2.802 0.171
74.3280 2.958 0.176
74.3484 3.083 0.179
74.3689 2.844 0.172
74.3894 2.688 0.167
74.4098 2.688 0.167
74.4303 2.813 0.171
74.4507 2.740 0.169
74.4712 2.625 0.165
74.4917 2.823 0.171
74.5121 2.750 0.169
74.5326 2.271 0.154
74.5531 2.698 0.168
74.5735 2.729 0.169
74.5940 2.917 0.174
74.6145 2.615 0.165
74.6349 2.885 0.173
74.6554 2.500 0.161
74.6758 2.813 0.171
74.6963 2.896 0.174
74.7168 3.031 0.178
74.7372 2.844 0.172
74.7577 2.740 0.169
74.7782 2.969 0.176
74.7986 2.875 0.173
74.8191 2.969 0.176
74.8395 3.000 0.177
74.8600 2.885 0.173
74.8805 3.260 0.184
74.9009 3.104 0.180
74.9214 2.604 0.165
74.9419 2.573 0.164
74.9623 2.760 0.170
74.9828 2.740 0.169
75.0032 2.813 0.171
75.0237 2.563 0.163
75.0442 3.177 0.182
75.0646 2.938 0.175
75.0851 2.865 0.173
75.1056 3.052 0.178
75.1260 2.885 0.173
75.1465 2.729 0.169
75.1669 3.073 0.179
75.1874 3.042 0.178
75.2079 3.021 0.177
75.2283 2.979 0.176
75.2488 3.146 0.181
75.2693 3.031 0.178
75.2897 3.167 0.182
75.3102 3.094 0.180
75.3306 3.167 0.182
75.3511 3.313 0.186
75.3716 2.833 0.172
75.3920 3.271 0.185
75.4125 3.344 0.187
75.4330 3.094 0.180
75.4534 3.073 0.179
75.4739 3.219 0.183
75.4944 3.677 0.196
75.5148 3.323 0.186
75.5353 3.594 0.193
75.5557 3.667 0.195
75.5762 3.740 0.197
75.5967 3.646 0.195
75.6171 3.771 0.198
75.6376 3.833 0.200
75.6581 4.198 0.209
75.6785 4.333 0.212
75.6990 5.063 0.230
75.7194 4.917 0.226
75.7399 5.104 0.231
75.7604 4.813 0.224
75.7808 4.333 0.212
75.8013 3.896 0.201
75.8218 4.281 0.211
75.8422 4.031 0.205
75.8627 3.854 0.200
75.8831 4.000 0.204
75.9036 4.135 0.208
75.9241 4.521 0.217
75.9445 3.979 0.204
75.9650 3.990 0.204
75.9855 4.219 0.210
76.0059 3.833 0.200
76.0264 3.385 0.188
76.0468 3.417 0.189
76.0673 3.396 0.188
76.0878 3.427 0.189
76.1082 3.313 0.186
76.1287 3.635 0.195
76.1492 3.250 0.184
76.1696 3.635 0.195
76.1901 3.104 0.180
76.2105 3.417 0.189
76.2310 3.396 0.188
76.2515 3.063 0.179
76.2719 3.104 0.180
76.2924 3.594 0.193
76.3129 3.333 0.186
76.3333 3.010 0.177
76.3538 3.281 0.185
76.3743 2.938 0.175
76.3947 3.417 0.189
76.4152 3.396 0.188
76.4356 2.917 0.174
76.4561 3.115 0.180
76.4766 2.969 0.176
76.4970 2.865 0.173
76.5175 3.000 0.177
76.5380 2.990 0.176
76.5584 2.938 0.175
76.5789 3.406 0.188
76.5993 3.063 0.179
76.6198 3.000 0.177
76.6403 2.917 0.174
76.6607 3.073 0.179
76.6812 2.979 0.176
76.7017 3.229 0.183
76.7221 2.885 0.173
76.7426 2.708 0.168
76.7630 2.958 0.176
76.7835 2.938 0.175
76.8040 2.896 0.174
76.8244 2.958 0.176
76.8449 3.292 0.185
76.8654 2.906 0.174
76.8858 2.938 0.175
76.9063 3.104 0.180
76.9267 2.958 0.176
76.9472 3.292 0.185
76.9677 2.958 0.176
76.9881 3.156 0.181
77.0086 2.948 0.175
77.0291 2.885 0.173
77.0495 3.073 0.179
77.0700 2.979 0.176
77.0905 3.260 0.184
77.1109 2.802 0.171
77.1314 3.115 0.180
77.1518 3.302 0.185
77.1723 2.938 0.175
77.1928 2.896 0.174
77.2132 3.188 0.182
77.2337 3.052 0.178
77.2542 3.427 0.189
77.2746 3.167 0.182
77.2951 2.958 0.176
77.3155 3.531 0.192
77.3360 3.406 0.188
77.3565 3.167 0.182
77.3769 3.490 0.191
77.3974 3.135 0.181
77.4179 3.615 0.194
77.4383 3.146 0.181
77.4588 3.313 0.186
77.4792 3.479 0.190
77.4997 3.302 0.185
77.5202 2.844 0.172
77.5406 3.719 0.197
77.5611 3.125 0.180
77.5816 3.292 0.185
77.6020 3.292 0.185
77.6225 3.240 0.184
77.6429 3.427 0.189
77.6634 3.219 0.183
77.6839 3.281 0.185
77.7043 3.302 0.185
77.7248 3.771 0.198
77.7453 3.479 0.190
77.7657 3.677 0.196
77.7862 3.240 0.184
77.8066 3.385 0.188
77.8271 3.323 0.186
77.8476 3.490 0.191
77.8680 3.500 0.191
77.8885 3.375 0.188
77.9090 3.583 0.193
77.9294 3.490 0.191
77.9499 3.521 0.192
77.9704 3.427 0.189
77.9908 3.833 0.200
78.0113 3.427 0.189
78.0317 3.438 0.189
78.0522 3.271 0.185
78.0727 3.302 0.185
78.0931 3.406 0.188
78.1136 3.135 0.181
78.1341 3.250 0.184
78.1545 3.042 0.178
78.1750 3.365 0.187
78.1954 3.198 0.183
78.2159 3.438 0.189
78.2364 3.292 0.185
78.2568 3.375 0.188
78.2773 3.208 0.183
78.2978 3.625 0.194
78.3182 3.260 0.184
78.3387 3.375 0.188
78.3591 3.469 0.190
78.3796 3.583 0.193
78.4001 3.531 0.192
78.4205 3.208 0.183
78.4410 3.625 0.194
78.4615 3.448 0.190
78.4819 3.313 0.186
78.5024 3.604 0.194
78.5228 3.250 0.184
78.5433 3.438 0.189
78.5638 3.417 0.189
78.5842 3.646 0.195
78.6047 3.438 0.189
78.6252 3.583 0.193
78.6456 3.260 0.184
78.6661 3.719 0.197
78.6865 3.448 0.190
78.7070 3.094 0.180
78.7275 3.208 0.183
78.7479 3.271 0.185
78.7684 3.625 0.194
78.7889 3.292 0.185
78.8093 3.510 0.191
78.8298 3.208 0.183
78.8503 3.635 0.195
78.8707 3.271 0.185
78.8912 3.458 0.190
78.9116 3.365 0.187
78.9321 3.594 0.193
78.9526 3.396 0.188
78.9730 3.198 0.183
78.9935 3.354 0.187
79.0140 3.396 0.188
79.0344 3.313 0.186
79.0549 3.719 0.197
79.0753 3.094 0.180
79.0958 3.406 0.188
79.1163 3.510 0.191
79.1367 3.625 0.194
79.1572 3.240 0.184
79.1777 3.375 0.188
79.1981 3.365 0.187
79.2186 3.250 0.184
79.2390 3.313 0.186
79.2595 3.031 0.178
79.2800 3.240 0.184
79.3004 3.156 0.181
79.3209 3.302 0.185
79.3414 3.542 0.192
79.3618 3.333 0.186
79.3823 3.313 0.186
79.4027 3.510 0.191
79.4232 3.396 0.188
79.4437 3.844 0.200
79.4641 3.563 0.193
79.4846 3.552 0.192
79.5051 3.333 0.186
79.5255 3.823 0.200
79.5460 3.615 0.194
79.5664 3.427 0.189
79.5869 3.135 0.181
79.6074 3.188 0.182
79.6278 3.490 0.191
79.6483 3.260 0.184
79.6688 3.146 0.181
79.6892 3.083 0.179
79.7097 3.438 0.189
79.7302 3.375 0.188
79.7506 3.365 0.187
79.7711 3.260 0.184
79.7915 3.427 0.189
79.8120 3.469 0.190
79.8325 3.229 0.183
79.8529 3.344 0.187
79.8734 3.188 0.182
79.8939 2.823 0.171
79.9143 3.198 0.183
79.9348 3.375 0.188
79.9552 3.448 0.190
79.9757 3.188 0.182
79.9962 3.302 0.185
