'Id: "" Comment: "" Operator: "Lab Manager" Anode: "Cu" Scantype: "Locked Coupled" TimePerStep: "96" X: "0" Y: "0" Z: "0" 
5.0000 25.260 0.513
5.0205 25.281 0.513
5.0409 25.875 0.519
5.0614 25.333 0.514
5.0819 24.771 0.508
5.1023 25.438 0.515
5.1228 24.604 0.506
5.1432 25.125 0.512
5.1637 24.875 0.509
5.1842 24.156 0.502
5.2046 23.958 0.500
5.2251 24.740 0.508
5.2456 24.271 0.503
5.2660 24.510 0.505
5.2865 24.792 0.508
5.3069 24.646 0.507
5.3274 23.958 0.500
5.3479 24.177 0.502
5.3683 25.031 0.511
5.3888 25.313 0.513
5.4093 24.708 0.507
5.4297 24.677 0.507
5.4502 23.406 0.494
5.4706 24.323 0.503
5.4911 24.219 0.502
5.5116 23.719 0.497
5.5320 23.802 0.498
5.5525 23.417 0.494
5.5730 24.240 0.502
5.5934 22.844 0.488
5.6139 24.521 0.505
5.6343 24.063 0.501
5.6548 23.385 0.494
5.6753 23.781 0.498
5.6957 23.729 0.497
5.7162 23.688 0.497
5.7367 23.156 0.491
5.7571 24.250 0.503
5.7776 22.594 0.485
5.7980 24.281 0.503
5.8185 23.844 0.498
5.8390 23.552 0.495
5.8594 23.646 0.496
5.8799 22.865 0.488
5.9004 22.906 0.488
5.9208 22.885 0.488
5.9413 22.406 0.483
5.9618 22.385 0.483
5.9822 23.188 0.491
6.0027 22.677 0.486
6.0231 22.854 0.488
6.0436 23.771 0.498
6.0641 22.792 0.487
6.0845 22.813 0.487
6.1050 22.552 0.485
6.1255 23.219 0.492
6.1459 22.458 0.484
6.1664 22.635 0.486
6.1868 22.250 0.481
6.2073 22.823 0.488
6.2278 22.490 0.484
6.2482 22.354 0.483
6.2687 23.198 0.492
6.2892 22.427 0.483
6.3096 22.292 0.482
6.3301 22.573 0.485
6.3505 23.073 0.490
6.3710 23.219 0.492
6.3915 22.521 0.484
6.4119 21.427 0.472
6.4324 22.479 0.484
6.4529 22.708 0.486
6.4733 22.583 0.485
6.4938 22.635 0.486
6.5142 23.406 0.494
6.5347 22.313 0.482
6.5552 23.031 0.490
6.5756 22.510 0.484
6.5961 22.563 0.485
6.6166 22.740 0.487
6.6370 21.979 0.478
6.6575 22.115 0.480
6.6779 21.896 0.478
6.6984 22.396 0.483
6.7189 23.365 0.493
6.7393 21.615 0.475
6.7598 22.438 0.483
6.7803 22.615 0.485
6.8007 22.646 0.486
6.8212 22.698 0.486
6.8417 22.833 0.488
6.8621 22.531 0.484
6.8826 22.927 0.489
6.9030 22.948 0.489
6.9235 23.531 0.495
6.9440 23.792 0.498
6.9644 23.115 0.491
6.9849 23.979 0.500
7.0054 23.948 0.499
7.0258 23.698 0.497
7.0463 23.917 0.499
7.0667 23.083 0.490
7.0872 23.448 0.494
7.1077 23.885 0.499
7.1281 22.823 0.488
7.1486 23.156 0.491
7.1691 23.083 0.490
7.1895 23.031 0.490
7.2100 22.250 0.481
7.2304 23.042 0.490
7.2509 22.875 0.488
7.2714 22.469 0.484
7.2918 22.073 0.480
7.3123 23.458 0.494
7.3328 22.781 0.487
7.3532 23.292 0.493
7.3737 23.667 0.497
7.3941 23.125 0.491
7.4146 22.396 0.483
7.4351 22.750 0.487
7.4555 23.094 0.490
7.4760 22.292 0.482
7.4965 23.615 0.496
7.5169 23.469 0.494
7.5374 22.250 0.481
7.5579 22.667 0.486
7.5783 23.094 0.490
7.5988 22.719 0.486
7.6192 23.333 0.493
7.6397 23.115 0.491
7.6602 21.979 0.478
7.6806 23.552 0.495
7.7011 23.042 0.490
7.7216 23.531 0.495
7.7420 24.000 0.500
7.7625 23.146 0.491
7.7829 22.927 0.489
7.8034 23.052 0.490
7.8239 23.771 0.498
7.8443 23.250 0.492
7.8648 24.000 0.500
7.8853 23.021 0.490
7.9057 23.948 0.499
7.9262 24.042 0.500
7.9466 24.125 0.501
7.9671 23.698 0.497
7.9876 23.510 0.495
8.0080 23.781 0.498
8.0285 23.458 0.494
8.0490 23.552 0.495
8.0694 22.490 0.484
8.0899 23.323 0.493
8.1103 23.427 0.494
8.1308 23.396 0.494
8.1513 23.875 0.499
8.1717 23.854 0.498
8.1922 24.188 0.502
8.2127 22.854 0.488
8.2331 23.563 0.495
8.2536 24.396 0.504
8.2740 23.469 0.494
8.2945 23.458 0.494
8.3150 24.469 0.505
8.3354 22.667 0.486
8.3559 24.729 0.508
8.3764 25.031 0.511
8.3968 23.906 0.499
8.4173 23.365 0.493
8.4378 23.646 0.496
8.4582 24.896 0.509
8.4787 24.135 0.501
8.4991 23.667 0.497
8.5196 24.177 0.502
8.5401 23.240 0.492
8.5605 24.438 0.505
8.5810 24.177 0.502
8.6015 24.615 0.506
8.6219 24.323 0.503
8.6424 23.906 0.499
8.6628 23.875 0.499
8.6833 24.969 0.510
8.7038 24.010 0.500
8.7242 24.583 0.506
8.7447 24.781 0.508
8.7652 25.688 0.517
8.7856 25.292 0.513
8.8061 25.052 0.511
8.8265 25.240 0.513
8.8470 26.479 0.525
8.8675 25.667 0.517
8.8879 26.854 0.529
8.9084 27.708 0.537
8.9289 27.708 0.537
8.9493 27.823 0.538
8.9698 29.031 0.550
8.9902 28.375 0.544
9.0107 29.292 0.552
9.0312 31.104 0.569
9.0516 30.469 0.563
9.0721 33.010 0.586
9.0926 33.823 0.594
9.1130 35.375 0.607
9.1335 38.354 0.632
9.1539 38.792 0.636
9.1744 44.490 0.681
9.1949 47.375 0.702
9.2153 54.729 0.755
9.2358 64.510 0.820
9.2563 74.906 0.883
9.2767 85.396 0.943
9.2972 90.344 0.970
9.3177 88.021 0.958
9.3381 82.406 0.926
9.3586 77.052 0.896
9.3790 72.000 0.866
9.3995 70.167 0.855
9.4200 68.260 0.843
9.4404 69.490 0.851
9.4609 68.438 0.844
9.4814 71.146 0.861
9.5018 72.906 0.871
9.5223 75.865 0.889
9.5427 80.979 0.918
9.5632 83.531 0.933
9.5837 89.427 0.965
9.6041 95.313 0.996
9.6246 102.010 1.031
9.6451 109.573 1.068
9.6655 118.313 1.110
9.6860 128.906 1.159
9.7064 144.198 1.226
9.7269 163.396 1.305
9.7474 198.573 1.438
9.7678 241.594 1.586
9.7883 307.833 1.791
9.8088 407.604 2.061
9.8292 537.979 2.367
9.8497 712.781 2.725
9.8701 909.156 3.077
9.8906 953.854 3.152
9.9111 661.552 2.625
9.9315 341.021 1.885
9.9520 155.063 1.271
9.9725 91.229 0.975
9.9929 72.938 0.872
10.0134 62.563 0.807
10.0338 57.583 0.774
10.0543 55.188 0.758
10.0748 51.250 0.731
10.0952 48.031 0.707
10.1157 44.531 0.681
10.1362 39.552 0.642
10.1566 35.292 0.606
10.1771 33.323 0.589
10.1976 32.375 0.581
10.2180 31.906 0.577
10.2385 31.656 0.574
10.2589 29.646 0.556
10.2794 29.896 0.558
10.2999 28.885 0.549
10.3203 29.198 0.551
10.3408 27.917 0.539
10.3613 28.594 0.546
10.3817 27.396 0.534
10.4022 28.125 0.541
10.4226 27.938 0.539
10.4431 27.198 0.532
10.4636 26.365 0.524
10.4840 26.667 0.527
10.5045 26.333 0.524
10.5250 25.354 0.514
10.5454 26.719 0.528
10.5659 27.458 0.535
10.5863 26.479 0.525
10.6068 26.094 0.521
10.6273 26.010 0.521
10.6477 26.010 0.521
10.6682 25.906 0.519
10.6887 25.323 0.514
10.7091 25.188 0.512
10.7296 25.292 0.513
10.7500 25.563 0.516
10.7705 24.448 0.505
10.7910 24.573 0.506
10.8114 24.156 0.502
10.8319 23.802 0.498
10.8524 24.833 0.509
10.8728 24.875 0.509
10.8933 23.740 0.497
10.9137 24.021 0.500
10.9342 23.229 0.492
10.9547 24.198 0.502
10.9751 22.594 0.485
10.9956 23.646 0.496
11.0161 23.250 0.492
11.0365 23.146 0.491
11.0570 22.771 0.487
11.0775 22.292 0.482
11.0979 22.438 0.483
11.1184 22.313 0.482
11.1388 22.583 0.485
11.1593 21.240 0.470
11.1798 21.813 0.477
11.2002 21.531 0.474
11.2207 22.490 0.484
11.2412 21.000 0.468
11.2616 21.656 0.475
11.2821 21.302 0.471
11.3025 21.771 0.476
11.3230 20.708 0.464
11.3435 21.240 0.470
11.3639 20.396 0.461
11.3844 21.000 0.468
11.4049 20.313 0.460
11.4253 21.073 0.469
11.4458 20.406 0.461
11.4662 19.646 0.452
11.4867 20.375 0.461
11.5072 20.396 0.461
11.5276 20.354 0.460
11.5481 20.688 0.464
11.5686 19.021 0.445
11.5890 18.927 0.444
11.6095 18.948 0.444
11.6299 19.927 0.456
11.6504 18.094 0.434
11.6709 19.042 0.445
11.6913 18.510 0.439
11.7118 19.188 0.447
11.7323 18.781 0.442
11.7527 18.646 0.441
11.7732 18.135 0.435
11.7937 18.594 0.440
11.8141 17.688 0.429
11.8346 17.760 0.430
11.8550 17.656 0.429
11.8755 17.854 0.431
11.8960 17.219 0.424
11.9164 17.698 0.429
11.9369 17.885 0.432
11.9574 18.240 0.436
11.9778 17.438 0.426
11.9983 17.490 0.427
12.0187 17.854 0.431
12.0392 16.479 0.414
12.0597 17.521 0.427
12.0801 17.021 0.421
12.1006 16.875 0.419
12.1211 16.542 0.415
12.1415 17.365 0.425
12.1620 16.229 0.411
12.1824 16.500 0.415
12.2029 16.135 0.410
12.2234 16.344 0.413
12.2438 16.208 0.411
12.2643 16.354 0.413
12.2848 15.760 0.405
12.3052 15.771 0.405
12.3257 16.844 0.419
12.3461 15.344 0.400
12.3666 15.802 0.406
12.3871 16.719 0.417
12.4075 15.240 0.398
12.4280 15.833 0.406
12.4485 15.219 0.398
12.4689 15.250 0.399
12.4894 15.156 0.397
12.5098 15.094 0.397
12.5303 15.469 0.401
12.5508 14.583 0.390
12.5712 15.052 0.396
12.5917 14.792 0.393
12.6122 14.615 0.390
12.6326 13.552 0.376
12.6531 14.073 0.383
12.6736 14.042 0.382
12.6940 14.552 0.389
12.7145 14.167 0.384
12.7349 13.885 0.380
12.7554 13.917 0.381
12.7759 13.990 0.382
12.7963 14.500 0.389
12.8168 14.083 0.383
12.8373 13.500 0.375
12.8577 13.500 0.375
12.8782 13.885 0.380
12.8986 13.240 0.371
12.9191 13.427 0.374
12.9396 13.865 0.380
12.9600 13.594 0.376
12.9805 13.552 0.376
13.0010 13.563 0.376
13.0214 13.417 0.374
13.0419 13.177 0.370
13.0623 13.521 0.375
13.0828 12.938 0.367
13.1033 13.313 0.372
13.1237 13.135 0.370
13.1442 12.677 0.363
13.1647 13.083 0.369
13.1851 13.292 0.372
13.2056 12.646 0.363
13.2260 12.927 0.367
13.2465 12.792 0.365
13.2670 12.927 0.367
13.2874 12.740 0.364
13.3079 12.375 0.359
13.3284 12.542 0.361
13.3488 12.865 0.366
13.3693 12.594 0.362
13.3897 13.573 0.376
13.4102 13.052 0.369
13.4307 11.969 0.353
13.4511 12.365 0.359
13.4716 12.688 0.364
13.4921 12.490 0.361
13.5125 12.385 0.359
13.5330 11.708 0.349
13.5535 12.760 0.365
13.5739 11.958 0.353
13.5944 11.375 0.344
13.6148 12.198 0.356
13.6353 12.167 0.356
13.6558 12.719 0.364
13.6762 12.448 0.360
13.6967 12.073 0.355
13.7172 12.198 0.356
13.7376 11.969 0.353
13.7581 12.323 0.358
13.7785 11.333 0.344
13.7990 11.573 0.347
13.8195 11.625 0.348
13.8399 11.208 0.342
13.8604 11.656 0.348
13.8809 12.073 0.355
13.9013 11.896 0.352
13.9218 11.875 0.352
13.9422 11.188 0.341
13.9627 11.302 0.343
13.9832 11.906 0.352
14.0036 11.719 0.349
14.0241 11.854 0.351
14.0446 11.688 0.349
14.0650 11.885 0.352
14.0855 11.990 0.353
14.1059 11.552 0.347
14.1264 11.760 0.350
14.1469 11.896 0.352
14.1673 11.302 0.343
14.1878 11.844 0.351
14.2083 10.813 0.336
14.2287 11.198 0.342
14.2492 11.271 0.343
14.2696 11.198 0.342
14.2901 10.448 0.330
14.3106 11.094 0.340
14.3310 10.729 0.334
14.3515 10.740 0.334
14.3720 10.323 0.328
14.3924 11.031 0.339
14.4129 11.240 0.342
14.4334 11.052 0.339
14.4538 10.292 0.327
14.4743 10.406 0.329
14.4947 11.469 0.346
14.5152 10.594 0.332
14.5357 10.604 0.332
14.5561 11.094 0.340
14.5766 10.469 0.330
14.5971 11.427 0.345
14.6175 10.510 0.331
14.6380 10.906 0.337
14.6584 10.615 0.333
14.6789 10.594 0.332
14.6994 10.573 0.332
14.7198 10.156 0.325
14.7403 10.500 0.331
14.7608 11.000 0.339
14.7812 10.844 0.336
14.8017 10.604 0.332
14.8221 10.146 0.325
14.8426 10.500 0.331
14.8631 10.344 0.328
14.8835 10.188 0.326
14.9040 10.740 0.334
14.9245 10.719 0.334
14.9449 10.792 0.335
14.9654 10.604 0.332
14.9858 9.323 0.312
15.0063 10.135 0.325
15.0268 9.823 0.320
15.0472 10.750 0.335
15.0677 10.302 0.328
15.0882 9.344 0.312
15.1086 9.531 0.315
15.1291 10.021 0.323
15.1495 10.323 0.328
15.1700 9.823 0.320
15.1905 10.063 0.324
15.2109 10.323 0.328
15.2314 10.219 0.326
15.2519 9.521 0.315
15.2723 10.250 0.327
15.2928 9.719 0.318
15.3133 9.198 0.310
15.3337 11.000 0.339
15.3542 10.458 0.330
15.3746 9.969 0.322
15.3951 9.583 0.316
15.4156 10.365 0.329
15.4360 10.083 0.324
15.4565 9.260 0.311
15.4770 10.115 0.325
15.4974 9.396 0.313
15.5179 10.115 0.325
15.5383 10.167 0.325
15.5588 9.865 0.321
15.5793 9.927 0.322
15.5997 8.958 0.305
15.6202 9.417 0.313
15.6407 9.792 0.319
15.6611 9.823 0.320
15.6816 9.865 0.321
15.7020 9.479 0.314
15.7225 9.990 0.323
15.7430 9.948 0.322
15.7634 10.792 0.335
15.7839 10.656 0.333
15.8044 10.198 0.326
15.8248 10.146 0.325
15.8453 10.635 0.333
15.8657 10.010 0.323
15.8862 9.813 0.320
15.9067 10.323 0.328
15.9271 9.875 0.321
15.9476 9.406 0.313
15.9681 8.833 0.303
15.9885 9.375 0.313
16.0090 8.906 0.305
16.0295 9.323 0.312
16.0499 9.313 0.311
16.0704 9.625 0.317
16.0908 9.656 0.317
16.1113 8.979 0.306
16.1318 9.677 0.317
16.1522 8.865 0.304
16.1727 9.510 0.315
16.1932 9.156 0.309
16.2136 9.833 0.320
16.2341 9.396 0.313
16.2545 9.458 0.314
16.2750 9.167 0.309
16.2955 9.229 0.310
16.3159 9.365 0.312
16.3364 8.896 0.304
16.3569 9.063 0.307
16.3773 9.490 0.314
16.3978 9.708 0.318
16.4182 9.000 0.306
16.4387 9.708 0.318
16.4592 9.344 0.312
16.4796 8.688 0.301
16.5001 9.927 0.322
16.5206 9.406 0.313
16.5410 9.813 0.320
16.5615 9.781 0.319
16.5819 9.000 0.306
16.6024 9.083 0.308
16.6229 9.240 0.310
16.6433 9.448 0.314
16.6638 9.313 0.311
16.6843 9.771 0.319
16.7047 9.365 0.312
16.7252 9.875 0.321
16.7456 9.500 0.315
16.7661 9.573 0.316
16.7866 9.208 0.310
16.8070 9.219 0.310
16.8275 8.990 0.306
16.8480 9.688 0.318
16.8684 9.719 0.318
16.8889 9.094 0.308
16.9094 8.688 0.301
16.9298 9.365 0.312
16.9503 9.354 0.312
16.9707 9.302 0.311
16.9912 9.396 0.313
17.0117 9.615 0.316
17.0321 9.156 0.309
17.0526 9.667 0.317
17.0731 9.042 0.307
17.0935 9.344 0.312
17.1140 9.323 0.312
17.1344 9.135 0.308
17.1549 8.927 0.305
17.1754 9.229 0.310
17.1958 9.333 0.312
17.2163 9.917 0.321
17.2368 9.167 0.309
17.2572 10.760 0.335
17.2777 9.302 0.311
17.2981 9.677 0.317
17.3186 10.271 0.327
17.3391 9.729 0.318
17.3595 9.396 0.313
17.3800 10.125 0.325
17.4005 10.125 0.325
17.4209 10.844 0.336
17.4414 10.833 0.336
17.4618 11.208 0.342
17.4823 11.802 0.351
17.5028 11.427 0.345
17.5232 10.833 0.336
17.5437 11.719 0.349
17.5642 11.490 0.346
17.5846 10.448 0.330
17.6051 10.229 0.326
17.6255 10.760 0.335
17.6460 10.844 0.336
17.6665 11.135 0.341
17.6869 10.875 0.337
17.7074 10.563 0.332
17.7279 11.479 0.346
17.7483 11.240 0.342
17.7688 11.583 0.347
17.7893 11.969 0.353
17.8097 12.396 0.359
17.8302 13.042 0.369
17.8506 12.896 0.367
17.8711 13.260 0.372
17.8916 13.625 0.377
17.9120 13.615 0.377
17.9325 14.115 0.383
17.9530 14.188 0.384
17.9734 14.667 0.391
17.9939 15.677 0.404
18.0143 16.188 0.411
18.0348 17.885 0.432
18.0553 20.094 0.458
18.0757 20.885 0.466
18.0962 20.563 0.463
18.1167 20.188 0.459
18.1371 21.823 0.477
18.1576 21.500 0.473
18.1780 22.417 0.483
18.1985 23.750 0.497
18.2190 26.333 0.524
18.2394 28.792 0.548
18.2599 32.469 0.582
18.2804 35.719 0.610
18.3008 37.479 0.625
18.3213 39.354 0.640
18.3417 39.177 0.639
18.3622 36.969 0.621
18.3827 34.604 0.600
18.4031 33.594 0.592
18.4236 31.823 0.576
18.4441 31.740 0.575
18.4645 31.938 0.577
18.4850 31.896 0.576
18.5054 31.833 0.576
18.5259 33.427 0.590
18.5464 35.490 0.608
18.5668 38.458 0.633
18.5873 41.552 0.658
18.6078 44.521 0.681
18.6282 45.292 0.687
18.6487 44.021 0.677
18.6692 40.573 0.650
18.6896 36.865 0.620
18.7101 34.948 0.603
18.7305 33.083 0.587
18.7510 32.229 0.579
18.7715 31.708 0.575
18.7919 30.375 0.563
18.8124 29.594 0.555
18.8329 28.969 0.549
18.8533 26.875 0.529
18.8738 24.344 0.504
18.8942 24.917 0.509
18.9147 22.990 0.489
18.9352 21.125 0.469
18.9556 20.135 0.458
18.9761 20.698 0.464
18.9966 19.250 0.448
19.0170 20.656 0.464
19.0375 19.969 0.456
19.0579 19.531 0.451
19.0784 19.198 0.447
19.0989 19.063 0.446
19.1193 18.354 0.437
19.1398 18.375 0.438
19.1603 19.406 0.450
19.1807 18.635 0.441
19.2012 19.698 0.453
19.2216 19.417 0.450
19.2421 18.542 0.439
19.2626 18.146 0.435
19.2830 19.531 0.451
19.3035 19.531 0.451
19.3240 19.708 0.453
19.3444 19.771 0.454
19.3649 19.813 0.454
19.3853 19.865 0.455
19.4058 20.365 0.461
19.4263 21.531 0.474
19.4467 21.417 0.472
19.4672 22.313 0.482
19.4877 23.448 0.494
19.5081 24.510 0.505
19.5286 26.438 0.525
19.5491 27.750 0.538
19.5695 28.396 0.544
19.5900 30.271 0.562
19.6104 31.490 0.573
19.6309 33.677 0.592
19.6514 35.635 0.609
19.6718 40.563 0.650
19.6923 45.865 0.691
19.7128 53.448 0.746
19.7332 66.031 0.829
19.7537 86.625 0.950
19.7741 120.115 1.119
19.7946 176.104 1.354
19.8151 249.583 1.612
19.8355 261.969 1.652
19.8560 188.813 1.402
19.8765 150.271 1.251
19.8969 96.938 1.005
19.9174 49.188 0.716
19.9378 30.656 0.565
19.9583 25.094 0.511
19.9788 23.375 0.493
19.9992 22.469 0.484
20.0197 21.021 0.468
20.0402 19.094 0.446
20.0606 19.219 0.447
20.0811 18.885 0.444
20.1015 18.292 0.437
20.1220 17.219 0.424
20.1425 17.156 0.423
20.1629 18.333 0.437
20.1834 19.073 0.446
20.2039 20.427 0.461
20.2243 21.000 0.468
20.2448 23.438 0.494
20.2653 25.042 0.511
20.2857 25.750 0.518
20.3062 26.271 0.523
20.3266 26.479 0.525
20.3471 25.406 0.514
20.3676 24.125 0.501
20.3880 22.917 0.489
20.4085 22.708 0.486
20.4290 23.167 0.491
20.4494 22.115 0.480
20.4699 21.438 0.473
20.4903 21.656 0.475
20.5108 21.490 0.473
20.5313 21.531 0.474
20.5517 20.354 0.460
20.5722 19.396 0.449
20.5927 17.792 0.430
20.6131 17.125 0.422
20.6336 16.708 0.417
20.6540 15.688 0.404
20.6745 14.635 0.390
20.6950 13.708 0.378
20.7154 13.385 0.373
20.7359 13.531 0.375
20.7564 12.844 0.366
20.7768 12.729 0.364
20.7973 12.594 0.362
20.8177 12.469 0.360
20.8382 11.865 0.352
20.8587 11.885 0.352
20.8791 11.656 0.348
20.8996 11.135 0.341
20.9201 12.188 0.356
20.9405 10.740 0.334
20.9610 11.979 0.353
20.9814 11.990 0.353
21.0019 11.594 0.348
21.0224 12.292 0.358
21.0428 11.500 0.346
21.0633 12.135 0.356
21.0838 11.219 0.342
21.1042 11.073 0.340
21.1247 11.573 0.347
21.1452 11.313 0.343
21.1656 11.208 0.342
21.1861 11.313 0.343
21.2065 11.281 0.343
21.2270 11.990 0.353
21.2475 11.281 0.343
21.2679 11.458 0.345
21.2884 11.490 0.346
21.3089 11.813 0.351
21.3293 10.469 0.330
21.3498 10.677 0.333
21.3702 10.885 0.337
21.3907 10.875 0.337
21.4112 10.833 0.336
21.4316 10.906 0.337
21.4521 10.917 0.337
21.4726 10.760 0.335
21.4930 11.115 0.340
21.5135 10.458 0.330
21.5339 10.281 0.327
21.5544 10.823 0.336
21.5749 10.542 0.331
21.5953 10.479 0.330
21.6158 10.948 0.338
21.6363 10.656 0.333
21.6567 10.563 0.332
21.6772 10.521 0.331
21.6976 11.313 0.343
21.7181 11.667 0.349
21.7386 11.938 0.353
21.7590 11.313 0.343
21.7795 11.438 0.345
21.8000 11.344 0.344
21.8204 10.865 0.336
21.8409 11.000 0.339
21.8613 10.865 0.336
21.8818 11.240 0.342
21.9023 11.135 0.341
21.9227 11.563 0.347
21.9432 11.969 0.353
21.9637 11.750 0.350
21.9841 12.000 0.354
22.0046 12.667 0.363
22.0251 12.833 0.366
22.0455 13.240 0.371
22.0660 14.750 0.392
22.0864 16.906 0.420
22.1069 20.229 0.459
22.1274 25.469 0.515
22.1478 34.719 0.601
22.1683 46.615 0.697
22.1888 53.292 0.745
22.2092 51.208 0.730
22.2297 44.208 0.679
22.2501 37.792 0.627
22.2706 30.083 0.560
22.2911 23.854 0.498
22.3115 20.479 0.462
22.3320 18.938 0.444
22.3525 16.833 0.419
22.3729 15.823 0.406
22.3934 15.896 0.407
22.4138 14.792 0.393
22.4343 13.646 0.377
22.4548 13.688 0.378
22.4752 13.010 0.368
22.4957 12.677 0.363
22.5162 12.760 0.365
22.5366 12.750 0.364
22.5571 12.271 0.358
22.5775 11.365 0.344
22.5980 11.417 0.345
22.6185 11.813 0.351
22.6389 11.229 0.342
22.6594 10.979 0.338
22.6799 11.073 0.340
22.7003 11.396 0.345
22.7208 11.802 0.351
22.7412 11.125 0.340
22.7617 11.260 0.342
22.7822 10.885 0.337
22.8026 11.167 0.341
22.8231 11.083 0.340
22.8436 10.198 0.326
22.8640 10.490 0.331
22.8845 10.260 0.327
22.9050 10.531 0.331
22.9254 11.188 0.341
22.9459 10.490 0.331
22.9663 11.073 0.340
22.9868 11.250 0.342
23.0073 10.604 0.332
23.0277 10.333 0.328
23.0482 9.865 0.321
23.0687 9.781 0.319
23.0891 9.885 0.321
23.1096 9.792 0.319
23.1300 9.740 0.319
23.1505 10.052 0.324
23.1710 9.292 0.311
23.1914 10.042 0.323
23.2119 9.844 0.320
23.2324 9.302 0.311
23.2528 10.073 0.324
23.2733 9.625 0.317
23.2937 9.927 0.322
23.3142 9.802 0.320
23.3347 9.917 0.321
23.3551 9.760 0.319
23.3756 9.646 0.317
23.3961 10.073 0.324
23.4165 10.146 0.325
23.4370 10.156 0.325
23.4574 10.198 0.326
23.4779 10.292 0.327
23.4984 10.323 0.328
23.5188 10.365 0.329
23.5393 10.927 0.337
23.5598 11.271 0.343
23.5802 11.656 0.348
23.6007 12.281 0.358
23.6211 12.219 0.357
23.6416 12.583 0.362
23.6621 13.573 0.376
23.6825 12.740 0.364
23.7030 12.396 0.359
23.7235 11.531 0.347
23.7439 9.906 0.321
23.7644 10.260 0.327
23.7849 9.521 0.315
23.8053 9.438 0.314
23.8258 9.344 0.312
23.8462 9.094 0.308
23.8667 8.792 0.303
23.8872 8.927 0.305
23.9076 8.948 0.305
23.9281 8.771 0.302
23.9486 8.677 0.301
23.9690 8.635 0.300
23.9895 8.667 0.300
24.0099 8.375 0.295
24.0304 8.313 0.294
24.0509 8.750 0.302
24.0713 8.760 0.302
24.0918 8.656 0.300
24.1123 8.531 0.298
24.1327 8.750 0.302
24.1532 8.948 0.305
24.1736 8.646 0.300
24.1941 7.979 0.288
24.2146 8.844 0.304
24.2350 9.167 0.309
24.2555 9.740 0.319
24.2760 10.031 0.323
24.2964 11.042 0.339
24.3169 12.198 0.356
24.3373 12.333 0.358
24.3578 11.448 0.345
24.3783 10.521 0.331
24.3987 10.563 0.332
24.4192 9.854 0.320
24.4397 9.365 0.312
24.4601 8.656 0.300
24.4806 8.781 0.302
24.5011 8.677 0.301
24.5215 7.802 0.285
24.5420 7.969 0.288
24.5624 8.938 0.305
24.5829 8.010 0.289
24.6034 7.625 0.282
24.6238 7.990 0.288
24.6443 8.188 0.292
24.6648 8.198 0.292
24.6852 7.990 0.288
24.7057 8.073 0.290
24.7261 7.813 0.285
24.7466 7.740 0.284
24.7671 7.927 0.287
24.7875 7.563 0.281
24.8080 7.740 0.284
24.8285 7.625 0.282
24.8489 7.698 0.283
24.8694 8.031 0.289
24.8898 7.813 0.285
24.9103 7.208 0.274
24.9308 7.677 0.283
24.9512 7.906 0.287
24.9717 7.917 0.287
24.9922 7.688 0.283
25.0126 7.594 0.281
25.0331 7.781 0.285
25.0535 7.458 0.279
25.0740 7.229 0.274
25.0945 7.740 0.284
25.1149 7.302 0.276
25.1354 7.625 0.282
25.1559 7.656 0.282
25.1763 7.417 0.278
25.1968 7.885 0.287
25.2172 7.875 0.286
25.2377 7.906 0.287
25.2582 7.750 0.284
25.2786 7.323 0.276
25.2991 7.208 0.274
25.3196 7.302 0.276
25.3400 7.167 0.273
25.3605 7.052 0.271
25.3810 7.865 0.286
25.4014 7.385 0.277
25.4219 7.635 0.282
25.4423 7.760 0.284
25.4628 7.323 0.276
25.4833 7.917 0.287
25.5037 7.344 0.277
25.5242 7.354 0.277
25.5447 7.146 0.273
25.5651 7.667 0.283
25.5856 7.594 0.281
25.6060 7.552 0.280
25.6265 8.313 0.294
25.6470 7.198 0.274
25.6674 7.542 0.280
25.6879 7.625 0.282
25.7084 7.635 0.282
25.7288 7.531 0.280
25.7493 7.698 0.283
25.7697 7.698 0.283
25.7902 7.656 0.282
25.8107 7.156 0.273
25.8311 7.427 0.278
25.8516 7.375 0.277
25.8721 7.302 0.276
25.8925 7.688 0.283
25.9130 7.563 0.281
25.9334 7.500 0.280
25.9539 7.479 0.279
25.9744 7.094 0.272
25.9948 7.385 0.277
26.0153 8.104 0.291
26.0358 7.292 0.276
26.0562 6.990 0.270
26.0767 7.438 0.278
26.0971 7.656 0.282
26.1176 7.750 0.284
26.1381 7.625 0.282
26.1585 8.010 0.289
26.1790 7.771 0.285
26.1995 7.542 0.280
26.2199 7.219 0.274
26.2404 7.583 0.281
26.2609 7.208 0.274
26.2813 7.479 0.279
26.3018 7.917 0.287
26.3222 7.583 0.281
26.3427 7.500 0.280
26.3632 7.875 0.286
26.3836 7.896 0.287
26.4041 7.281 0.275
26.4246 8.271 0.294
26.4450 7.948 0.288
26.4655 7.750 0.284
26.4859 8.323 0.294
26.5064 7.677 0.283
26.5269 8.396 0.296
26.5473 7.896 0.287
26.5678 8.073 0.290
26.5883 8.177 0.292
26.6087 7.365 0.277
26.6292 7.990 0.288
26.6496 8.115 0.291
26.6701 7.615 0.282
26.6906 8.094 0.290
26.7110 8.333 0.295
26.7315 8.229 0.293
26.7520 8.135 0.291
26.7724 8.896 0.304
26.7929 8.302 0.294
26.8133 8.479 0.297
26.8338 8.833 0.303
26.8543 8.500 0.298
26.8747 9.313 0.311
26.8952 9.333 0.312
26.9157 9.135 0.308
26.9361 8.813 0.303
26.9566 8.490 0.297
26.9770 8.240 0.293
26.9975 8.042 0.289
27.0180 8.813 0.303
27.0384 8.354 0.295
27.0589 7.750 0.284
27.0794 7.771 0.285
27.0998 7.854 0.286
27.1203 8.219 0.293
27.1408 8.031 0.289
27.1612 7.646 0.282
27.1817 7.677 0.283
27.2021 7.938 0.288
27.2226 7.854 0.286
27.2431 7.885 0.287
27.2635 7.271 0.275
27.2840 7.500 0.280
27.3045 6.958 0.269
27.3249 7.458 0.279
27.3454 7.313 0.276
27.3658 7.740 0.284
27.3863 7.583 0.281
27.4068 7.448 0.279
27.4272 7.469 0.279
27.4477 7.490 0.279
27.4682 7.813 0.285
27.4886 7.990 0.288
27.5091 8.146 0.291
27.5295 7.719 0.284
27.5500 7.635 0.282
27.5705 7.708 0.283
27.5909 7.615 0.282
27.6114 7.125 0.272
27.6319 7.156 0.273
27.6523 7.698 0.283
27.6728 7.938 0.288
27.6932 7.813 0.285
27.7137 7.844 0.286
27.7342 8.604 0.299
27.7546 8.083 0.290
27.7751 8.083 0.290
27.7956 8.219 0.293
27.8160 8.135 0.291
27.8365 8.521 0.298
27.8569 8.156 0.291
27.8774 8.615 0.300
27.8979 8.177 0.292
27.9183 8.542 0.298
27.9388 8.323 0.294
27.9593 9.458 0.314
27.9797 8.656 0.300
28.0002 8.792 0.303
28.0207 8.323 0.294
28.0411 7.823 0.285
28.0616 8.438 0.296
28.0820 8.510 0.298
28.1025 7.490 0.279
28.1230 8.167 0.292
28.1434 7.875 0.286
28.1639 7.885 0.287
28.1844 7.979 0.288
28.2048 7.354 0.277
28.2253 7.156 0.273
28.2457 6.844 0.267
28.2662 6.719 0.265
28.2867 7.604 0.281
28.3071 7.344 0.277
28.3276 7.188 0.274
28.3481 6.948 0.269
28.3685 6.969 0.269
28.3890 7.375 0.277
28.4094 7.240 0.275
28.4299 7.271 0.275
28.4504 6.677 0.264
28.4708 7.563 0.281
28.4913 7.292 0.276
28.5118 6.979 0.270
28.5322 7.813 0.285
28.5527 7.313 0.276
28.5731 7.094 0.272
28.5936 7.813 0.285
28.6141 7.479 0.279
28.6345 7.729 0.284
28.6550 7.146 0.273
28.6755 7.406 0.278
28.6959 7.823 0.285
28.7164 7.771 0.285
28.7368 7.677 0.283
28.7573 7.385 0.277
28.7778 7.958 0.288
28.7982 7.948 0.288
28.8187 7.615 0.282
28.8392 7.688 0.283
28.8596 7.896 0.287
28.8801 7.240 0.275
28.9006 7.208 0.274
28.9210 7.188 0.274
28.9415 6.885 0.268
28.9619 7.271 0.275
28.9824 7.188 0.274
29.0029 7.406 0.278
29.0233 6.917 0.268
29.0438 7.365 0.277
29.0643 7.146 0.273
29.0847 7.125 0.272
29.1052 6.823 0.267
29.1256 7.344 0.277
29.1461 6.917 0.268
29.1666 6.552 0.261
29.1870 6.250 0.255
29.2075 6.771 0.266
29.2280 7.469 0.279
29.2484 6.510 0.260
29.2689 7.438 0.278
29.2893 7.188 0.274
29.3098 7.531 0.280
29.3303 7.552 0.280
29.3507 7.406 0.278
29.3712 7.563 0.281
29.3917 7.750 0.284
29.4121 7.760 0.284
29.4326 7.771 0.285
29.4530 7.500 0.280
29.4735 6.729 0.265
29.4940 6.760 0.265
29.5144 6.760 0.265
29.5349 6.771 0.266
29.5554 6.729 0.265
29.5758 6.333 0.257
29.5963 6.333 0.257
29.6168 6.292 0.256
29.6372 7.094 0.272
29.6577 6.646 0.263
29.6781 6.917 0.268
29.6986 6.219 0.255
29.7191 6.594 0.262
29.7395 6.594 0.262
29.7600 6.625 0.263
29.7805 6.188 0.254
29.8009 6.469 0.260
29.8214 7.302 0.276
29.8418 6.531 0.261
29.8623 6.115 0.252
29.8828 7.115 0.272
29.9032 7.083 0.272
29.9237 6.646 0.263
29.9442 6.771 0.266
29.9646 6.042 0.251
29.9851 6.594 0.262
30.0055 7.104 0.272
30.0260 6.521 0.261
30.0465 6.708 0.264
30.0669 6.646 0.263
30.0874 6.927 0.269
30.1079 7.063 0.271
30.1283 6.135 0.253
30.1488 6.896 0.268
30.1692 6.750 0.265
30.1897 6.385 0.258
30.2102 6.729 0.265
30.2306 6.333 0.257
30.2511 6.229 0.255
30.2716 6.510 0.260
30.2920 6.063 0.251
30.3125 6.083 0.252
30.3329 6.604 0.262
30.3534 6.615 0.262
30.3739 6.604 0.262
30.3943 6.375 0.258
30.4148 6.250 0.255
30.4353 6.688 0.264
30.4557 6.719 0.265
30.4762 6.156 0.253
30.4967 6.615 0.262
30.5171 6.500 0.260
30.5376 7.021 0.270
30.5580 5.896 0.248
30.5785 6.875 0.268
30.5990 6.531 0.261
30.6194 6.438 0.259
30.6399 6.135 0.253
30.6604 6.646 0.263
30.6808 6.927 0.269
30.7013 7.031 0.271
30.7217 6.896 0.268
30.7422 7.219 0.274
30.7627 7.427 0.278
30.7831 8.146 0.291
30.8036 7.146 0.273
30.8241 8.000 0.289
30.8445 7.896 0.287
30.8650 8.688 0.301
30.8854 9.115 0.308
30.9059 10.969 0.338
30.9264 12.323 0.358
30.9468 15.219 0.398
30.9673 20.167 0.458
30.9878 31.521 0.573
31.0082 47.813 0.706
31.0287 58.844 0.783
31.0491 57.479 0.774
31.0696 51.656 0.734
31.0901 48.552 0.711
31.1105 41.844 0.660
31.1310 33.260 0.589
31.1515 26.573 0.526
31.1719 19.052 0.445
31.1924 13.313 0.372
31.2128 11.313 0.343
31.2333 9.604 0.316
31.2538 8.813 0.303
31.2742 9.146 0.309
31.2947 8.146 0.291
31.3152 7.604 0.281
31.3356 7.260 0.275
31.3561 7.240 0.275
31.3766 6.875 0.268
31.3970 6.646 0.263
31.4175 6.990 0.270
31.4379 6.917 0.268
31.4584 6.740 0.265
31.4789 6.792 0.266
31.4993 6.385 0.258
31.5198 6.625 0.263
31.5403 6.563 0.261
31.5607 6.698 0.264
31.5812 6.781 0.266
31.6016 6.917 0.268
31.6221 6.813 0.266
31.6426 6.646 0.263
31.6630 6.448 0.259
31.6835 6.375 0.258
31.7040 6.198 0.254
31.7244 6.552 0.261
31.7449 6.219 0.255
31.7653 7.083 0.272
31.7858 6.583 0.262
31.8063 6.198 0.254
31.8267 6.385 0.258
31.8472 6.115 0.252
31.8677 6.563 0.261
31.8881 6.823 0.267
31.9086 7.031 0.271
31.9290 6.292 0.256
31.9495 6.698 0.264
31.9700 6.917 0.268
31.9904 7.250 0.275
32.0109 7.313 0.276
32.0314 7.542 0.280
32.0518 7.479 0.279
32.0723 8.365 0.295
32.0927 9.552 0.315
32.1132 9.875 0.321
32.1337 9.990 0.323
32.1541 8.875 0.304
32.1746 9.094 0.308
32.1951 9.000 0.306
32.2155 9.500 0.315
32.2360 9.229 0.310
32.2565 8.698 0.301
32.2769 9.083 0.308
32.2974 9.417 0.313
32.3178 8.573 0.299
32.3383 8.167 0.292
32.3588 9.385 0.313
32.3792 8.813 0.303
32.3997 9.146 0.309
32.4202 9.479 0.314
32.4406 10.792 0.335
32.4611 12.365 0.359
32.4815 13.604 0.376
32.5020 14.375 0.387
32.5225 15.177 0.398
32.5429 16.510 0.415
32.5634 17.958 0.433
32.5839 21.833 0.477
32.6043 25.406 0.514
32.6248 26.760 0.528
32.6452 24.344 0.504
32.6657 18.417 0.438
32.6862 17.583 0.428
32.7066 17.458 0.426
32.7271 15.354 0.400
32.7476 12.365 0.359
32.7680 9.208 0.310
32.7885 8.083 0.290
32.8089 7.094 0.272
32.8294 7.292 0.276
32.8499 6.906 0.268
32.8703 7.167 0.273
32.8908 6.760 0.265
32.9113 6.990 0.270
32.9317 6.594 0.262
32.9522 6.844 0.267
32.9726 6.760 0.265
32.9931 6.896 0.268
33.0136 6.990 0.270
33.0340 6.719 0.265
33.0545 6.458 0.259
33.0750 6.594 0.262
33.0954 6.490 0.260
33.1159 6.531 0.261
33.1364 6.469 0.260
33.1568 6.510 0.260
33.1773 6.229 0.255
33.1977 5.927 0.248
33.2182 6.396 0.258
33.2387 7.073 0.271
33.2591 6.240 0.255
33.2796 6.281 0.256
33.3001 6.156 0.253
33.3205 6.063 0.251
33.3410 6.510 0.260
33.3614 6.448 0.259
33.3819 5.740 0.245
33.4024 6.000 0.250
33.4228 6.344 0.257
33.4433 5.625 0.242
33.4638 6.115 0.252
33.4842 5.646 0.243
33.5047 6.281 0.256
33.5251 5.813 0.246
33.5456 6.167 0.253
33.5661 6.094 0.252
33.5865 6.188 0.254
33.6070 6.385 0.258
33.6275 6.323 0.257
33.6479 6.344 0.257
33.6684 6.146 0.253
33.6888 6.125 0.253
33.7093 6.063 0.251
33.7298 5.938 0.249
33.7502 5.823 0.246
33.7707 5.938 0.249
33.7912 5.792 0.246
33.8116 6.146 0.253
33.8321 6.344 0.257
33.8526 6.479 0.260
33.8730 6.323 0.257
33.8935 6.333 0.257
33.9139 6.188 0.254
33.9344 6.208 0.254
33.9549 6.563 0.261
33.9753 5.740 0.245
33.9958 6.177 0.254
34.0163 6.344 0.257
34.0367 6.531 0.261
34.0572 6.469 0.260
34.0776 6.271 0.256
34.0981 5.990 0.250
34.1186 5.958 0.249
34.1390 6.219 0.255
34.1595 5.906 0.248
34.1800 5.833 0.247
34.2004 6.490 0.260
34.2209 6.260 0.255
34.2413 6.021 0.250
34.2618 5.729 0.244
34.2823 5.854 0.247
34.3027 6.260 0.255
34.3232 6.667 0.264
34.3437 6.167 0.253
34.3641 6.500 0.260
34.3846 5.823 0.246
34.4050 6.333 0.257
34.4255 6.219 0.255
34.4460 5.990 0.250
34.4664 6.083 0.252
34.4869 5.698 0.244
34.5074 5.656 0.243
34.5278 6.219 0.255
34.5483 6.177 0.254
34.5687 5.990 0.250
34.5892 6.531 0.261
34.6097 5.688 0.243
34.6301 5.958 0.249
34.6506 5.646 0.243
34.6711 6.042 0.251
34.6915 5.958 0.249
34.7120 5.792 0.246
34.7325 5.667 0.243
34.7529 5.865 0.247
34.7734 5.656 0.243
34.7938 6.125 0.253
34.8143 5.917 0.248
34.8348 6.240 0.255
34.8552 5.948 0.249
34.8757 6.146 0.253
34.8962 5.719 0.244
34.9166 5.885 0.248
34.9371 6.083 0.252
34.9575 6.021 0.250
34.9780 6.000 0.250
34.9985 6.479 0.260
35.0189 6.292 0.256
35.0394 6.396 0.258
35.0599 6.104 0.252
35.0803 6.292 0.256
35.1008 6.427 0.259
35.1212 5.771 0.245
35.1417 5.625 0.242
35.1622 5.771 0.245
35.1826 5.917 0.248
35.2031 6.948 0.269
35.2236 6.521 0.261
35.2440 6.021 0.250
35.2645 6.396 0.258
35.2849 5.865 0.247
35.3054 6.135 0.253
35.3259 6.250 0.255
35.3463 6.594 0.262
35.3668 6.625 0.263
35.3873 6.313 0.256
35.4077 6.854 0.267
35.4282 6.271 0.256
35.4486 6.427 0.259
35.4691 6.583 0.262
35.4896 6.719 0.265
35.5100 6.385 0.258
35.5305 6.240 0.255
35.5510 6.344 0.257
35.5714 6.406 0.258
35.5919 6.198 0.254
35.6124 6.688 0.264
35.6328 6.229 0.255
35.6533 6.906 0.268
35.6737 6.646 0.263
35.6942 6.438 0.259
35.7147 6.427 0.259
35.7351 7.531 0.280
35.7556 6.760 0.265
35.7761 7.250 0.275
35.7965 6.917 0.268
35.8170 7.313 0.276
35.8374 7.365 0.277
35.8579 7.021 0.270
35.8784 8.073 0.290
35.8988 8.135 0.291
35.9193 7.448 0.279
35.9398 8.292 0.294
35.9602 8.760 0.302
35.9807 8.802 0.303
36.0011 9.510 0.315
36.0216 9.438 0.314
36.0421 9.969 0.322
36.0625 11.302 0.343
36.0830 12.448 0.360
36.1035 12.156 0.356
36.1239 15.083 0.396
36.1444 15.563 0.403
36.1648 17.260 0.424
36.1853 17.490 0.427
36.2058 16.760 0.418
36.2262 16.469 0.414
36.2467 15.646 0.404
36.2672 16.240 0.411
36.2876 15.708 0.405
36.3081 14.740 0.392
36.3285 15.115 0.397
36.3490 15.219 0.398
36.3695 15.344 0.400
36.3899 17.125 0.422
36.4104 17.813 0.431
36.4309 20.010 0.457
36.4513 20.938 0.467
36.4718 21.333 0.471
36.4923 21.906 0.478
36.5127 22.667 0.486
36.5332 23.615 0.496
36.5536 25.833 0.519
36.5741 29.542 0.555
36.5946 34.083 0.596
36.6150 33.802 0.593
36.6355 28.469 0.545
36.6560 25.438 0.515
36.6764 24.073 0.501
36.6969 25.198 0.512
36.7173 22.833 0.488
36.7378 20.063 0.457
36.7583 17.979 0.433
36.7787 17.135 0.422
36.7992 17.104 0.422
36.8197 17.000 0.421
36.8401 16.677 0.417
36.8606 16.969 0.420
36.8810 16.667 0.417
36.9015 16.500 0.415
36.9220 17.813 0.431
36.9424 18.865 0.443
36.9629 19.792 0.454
36.9834 21.990 0.479
37.0038 24.375 0.504
37.0243 28.979 0.549
37.0447 34.177 0.597
37.0652 42.656 0.667
37.0857 41.740 0.659
37.1061 35.281 0.606
37.1266 29.635 0.556
37.1471 26.969 0.530
37.1675 27.156 0.532
37.1880 24.667 0.507
37.2084 19.823 0.454
37.2289 16.208 0.411
37.2494 13.708 0.378
37.2698 12.177 0.356
37.2903 11.844 0.351
37.3108 11.677 0.349
37.3312 10.781 0.335
37.3517 10.583 0.332
37.3722 11.021 0.339
37.3926 10.500 0.331
37.4131 10.438 0.330
37.4335 10.813 0.336
37.4540 10.177 0.326
37.4745 10.052 0.324
37.4949 10.406 0.329
37.5154 10.094 0.324
37.5359 10.323 0.328
37.5563 10.323 0.328
37.5768 10.167 0.325
37.5972 10.948 0.338
37.6177 10.219 0.326
37.6382 10.875 0.337
37.6586 11.479 0.346
37.6791 10.979 0.338
37.6996 11.354 0.344
37.7200 11.750 0.350
37.7405 11.750 0.350
37.7609 11.615 0.348
37.7814 11.271 0.343
37.8019 10.771 0.335
37.8223 11.042 0.339
37.8428 11.198 0.342
37.8633 10.896 0.337
37.8837 10.771 0.335
37.9042 11.000 0.339
37.9246 11.760 0.350
37.9451 12.781 0.365
37.9656 14.698 0.391
37.9860 17.573 0.428
38.0065 20.083 0.457
38.0270 23.146 0.491
38.0474 21.823 0.477
38.0679 18.615 0.440
38.0884 18.052 0.434
38.1088 17.854 0.431
38.1293 19.760 0.454
38.1497 16.417 0.414
38.1702 15.063 0.396
38.1907 14.031 0.382
38.2111 13.552 0.376
38.2316 13.885 0.380
38.2521 13.635 0.377
38.2725 12.302 0.358
38.2930 12.802 0.365
38.3134 11.854 0.351
38.3339 12.615 0.362
38.3544 12.042 0.354
38.3748 11.938 0.353
38.3953 12.760 0.365
38.4158 12.760 0.365
38.4362 14.573 0.390
38.4567 16.260 0.412
38.4771 16.281 0.412
38.4976 14.948 0.395
38.5181 13.458 0.374
38.5385 13.125 0.370
38.5590 14.240 0.385
38.5795 12.531 0.361
38.5999 11.438 0.345
38.6204 11.094 0.340
38.6408 10.854 0.336
38.6613 10.906 0.337
38.6818 9.833 0.320
38.7022 9.750 0.319
38.7227 9.875 0.321
38.7432 9.448 0.314
38.7636 9.104 0.308
38.7841 9.667 0.317
38.8045 9.208 0.310
38.8250 9.208 0.310
38.8455 9.063 0.307
38.8659 9.500 0.315
38.8864 9.094 0.308
38.9069 9.479 0.314
38.9273 9.417 0.313
38.9478 9.885 0.321
38.9683 9.333 0.312
38.9887 9.333 0.312
39.0092 10.208 0.326
39.0296 10.073 0.324
39.0501 9.885 0.321
39.0706 9.396 0.313
39.0910 9.479 0.314
39.1115 9.385 0.313
39.1320 9.458 0.314
39.1524 9.542 0.315
39.1729 9.688 0.318
39.1933 9.354 0.312
39.2138 9.688 0.318
39.2343 8.906 0.305
39.2547 9.156 0.309
39.2752 9.042 0.307
39.2957 9.156 0.309
39.3161 8.604 0.299
39.3366 9.469 0.314
39.3570 9.583 0.316
39.3775 9.885 0.321
39.3980 9.813 0.320
39.4184 9.750 0.319
39.4389 9.781 0.319
39.4594 9.396 0.313
39.4798 9.719 0.318
39.5003 9.344 0.312
39.5207 9.573 0.316
39.5412 8.896 0.304
39.5617 9.469 0.314
39.5821 9.781 0.319
39.6026 9.271 0.311
39.6231 9.396 0.313
39.6435 9.573 0.316
39.6640 9.667 0.317
39.6844 10.167 0.325
39.7049 10.396 0.329
39.7254 11.094 0.340
39.7458 11.740 0.350
39.7663 12.417 0.360
39.7868 13.521 0.375
39.8072 13.792 0.379
39.8277 12.031 0.354
39.8482 12.625 0.363
39.8686 11.594 0.348
39.8891 11.427 0.345
39.9095 11.875 0.352
39.9300 11.083 0.340
39.9505 10.542 0.331
39.9709 10.219 0.326
39.9914 9.792 0.319
40.0119 8.458 0.297
40.0323 10.052 0.324
40.0528 9.510 0.315
40.0732 9.729 0.318
40.0937 9.844 0.320
40.1142 10.333 0.328
40.1346 10.250 0.327
40.1551 10.229 0.326
40.1756 10.833 0.336
40.1960 10.969 0.338
40.2165 11.750 0.350
40.2369 13.875 0.380
40.2574 15.563 0.403
40.2779 16.938 0.420
40.2983 14.188 0.384
40.3188 12.479 0.361
40.3393 11.594 0.348
40.3597 12.927 0.367
40.3802 13.542 0.376
40.4006 12.219 0.357
40.4211 10.552 0.332
40.4416 10.417 0.329
40.4620 9.865 0.321
40.4825 10.490 0.331
40.5030 9.688 0.318
40.5234 10.229 0.326
40.5439 9.917 0.321
40.5643 10.146 0.325
40.5848 10.250 0.327
40.6053 9.219 0.310
40.6257 10.042 0.323
40.6462 9.646 0.317
40.6667 9.646 0.317
40.6871 9.604 0.316
40.7076 9.135 0.308
40.7281 9.313 0.311
40.7485 9.438 0.314
40.7690 9.250 0.310
40.7894 8.229 0.293
40.8099 8.500 0.298
40.8304 8.563 0.299
40.8508 8.604 0.299
40.8713 8.760 0.302
40.8918 8.542 0.298
40.9122 8.542 0.298
40.9327 8.594 0.299
40.9531 8.521 0.298
40.9736 8.531 0.298
40.9941 9.271 0.311
41.0145 9.760 0.319
41.0350 10.240 0.327
41.0555 11.219 0.342
41.0759 12.542 0.361
41.0964 15.563 0.403
41.1168 17.583 0.428
41.1373 18.531 0.439
41.1578 16.104 0.410
41.1782 14.146 0.384
41.1987 13.052 0.369
41.2192 14.688 0.391
41.2396 14.344 0.387
41.2601 12.521 0.361
41.2805 10.646 0.333
41.3010 9.635 0.317
41.3215 9.740 0.319
41.3419 8.531 0.298
41.3624 8.510 0.298
41.3829 8.250 0.293
41.4033 8.021 0.289
41.4238 7.958 0.288
41.4442 8.156 0.291
41.4647 7.156 0.273
41.4852 6.958 0.269
41.5056 7.115 0.272
41.5261 7.729 0.284
41.5466 7.521 0.280
41.5670 7.708 0.283
41.5875 6.927 0.269
41.6080 7.188 0.274
41.6284 7.250 0.275
41.6489 7.135 0.273
41.6693 7.281 0.275
41.6898 7.333 0.276
41.7103 7.625 0.282
41.7307 7.146 0.273
41.7512 7.385 0.277
41.7717 6.938 0.269
41.7921 7.146 0.273
41.8126 7.594 0.281
41.8330 6.938 0.269
41.8535 7.031 0.271
41.8740 7.156 0.273
41.8944 6.594 0.262
41.9149 7.021 0.270
41.9354 7.240 0.275
41.9558 7.479 0.279
41.9763 6.583 0.262
41.9967 6.781 0.266
42.0172 6.927 0.269
42.0377 6.667 0.264
42.0581 6.781 0.266
42.0786 7.021 0.270
42.0991 6.688 0.264
42.1195 7.094 0.272
42.1400 7.198 0.274
42.1604 7.448 0.279
42.1809 7.417 0.278
42.2014 6.865 0.267
42.2218 7.677 0.283
42.2423 8.135 0.291
42.2628 8.146 0.291
42.2832 8.500 0.298
42.3037 9.469 0.314
42.3242 8.917 0.305
42.3446 10.104 0.324
42.3651 10.115 0.325
42.3855 10.646 0.333
42.4060 10.688 0.334
42.4265 10.677 0.333
42.4469 10.333 0.328
42.4674 10.646 0.333
42.4879 10.458 0.330
42.5083 10.021 0.323
42.5288 9.313 0.311
42.5492 9.271 0.311
42.5697 9.333 0.312
42.5902 9.063 0.307
42.6106 8.698 0.301
42.6311 8.458 0.297
42.6516 8.813 0.303
42.6720 8.823 0.303
42.6925 8.646 0.300
42.7129 7.948 0.288
42.7334 8.583 0.299
42.7539 8.510 0.298
42.7743 8.479 0.297
42.7948 8.417 0.296
42.8153 7.958 0.288
42.8357 8.396 0.296
42.8562 8.135 0.291
42.8766 7.854 0.286
42.8971 7.490 0.279
42.9176 8.198 0.292
42.9380 8.313 0.294
42.9585 7.375 0.277
42.9790 7.198 0.274
42.9994 8.000 0.289
43.0199 7.979 0.288
43.0403 8.167 0.292
43.0608 8.354 0.295
43.0813 7.938 0.288
43.1017 8.073 0.290
43.1222 8.260 0.293
43.1427 8.406 0.296
43.1631 8.865 0.304
43.1836 9.521 0.315
43.2041 10.052 0.324
43.2245 10.531 0.331
43.2450 10.844 0.336
43.2654 10.510 0.331
43.2859 9.635 0.317
43.3064 10.198 0.326
43.3268 10.948 0.338
43.3473 10.625 0.333
43.3678 10.094 0.324
43.3882 10.490 0.331
43.4087 10.656 0.333
43.4291 10.635 0.333
43.4496 11.042 0.339
43.4701 12.083 0.355
43.4905 11.948 0.353
43.5110 12.677 0.363
43.5315 13.938 0.381
43.5519 15.760 0.405
43.5724 18.813 0.443
43.5928 20.615 0.463
43.6133 24.927 0.510
43.6338 26.771 0.528
43.6542 24.000 0.500
43.6747 19.615 0.452
43.6952 17.156 0.423
43.7156 16.469 0.414
43.7361 18.000 0.433
43.7565 17.448 0.426
43.7770 14.958 0.395
43.7975 11.990 0.353
43.8179 10.573 0.332
43.8384 9.448 0.314
43.8589 9.167 0.309
43.8793 8.469 0.297
43.8998 8.573 0.299
43.9202 8.229 0.293
43.9407 7.958 0.288
43.9612 7.708 0.283
43.9816 8.365 0.295
44.0021 7.854 0.286
44.0226 7.740 0.284
44.0430 7.604 0.281
44.0635 8.323 0.294
44.0840 7.802 0.285
44.1044 8.219 0.293
44.1249 8.260 0.293
44.1453 8.000 0.289
44.1658 8.271 0.294
44.1863 8.833 0.303
44.2067 8.156 0.291
44.2272 8.490 0.297
44.2477 8.406 0.296
44.2681 8.479 0.297
44.2886 8.188 0.292
44.3090 8.271 0.294
44.3295 8.156 0.291
44.3500 7.885 0.287
44.3704 7.521 0.280
44.3909 7.115 0.272
44.4114 7.740 0.284
44.4318 7.677 0.283
44.4523 7.167 0.273
44.4727 7.073 0.271
44.4932 7.146 0.273
44.5137 7.063 0.271
44.5341 7.323 0.276
44.5546 6.844 0.267
44.5751 6.802 0.266
44.5955 7.083 0.272
44.6160 7.042 0.271
44.6364 7.094 0.272
44.6569 7.396 0.278
44.6774 6.635 0.263
44.6978 6.906 0.268
44.7183 7.219 0.274
44.7388 7.177 0.273
44.7592 7.396 0.278
44.7797 7.417 0.278
44.8001 7.448 0.279
44.8206 7.427 0.278
44.8411 7.656 0.282
44.8615 7.667 0.283
44.8820 7.510 0.280
44.9025 7.521 0.280
44.9229 7.844 0.286
44.9434 7.667 0.283
44.9639 9.229 0.310
44.9843 8.156 0.291
45.0048 8.885 0.304
45.0252 8.927 0.305
45.0457 8.063 0.290
45.0662 8.083 0.290
45.0866 8.979 0.306
45.1071 8.500 0.298
45.1276 8.698 0.301
45.1480 8.583 0.299
45.1685 9.198 0.310
45.1889 9.385 0.313
45.2094 11.083 0.340
45.2299 11.073 0.340
45.2503 12.063 0.354
45.2708 11.010 0.339
45.2913 10.188 0.326
45.3117 10.146 0.325
45.3322 9.833 0.320
45.3526 9.417 0.313
45.3731 9.479 0.314
45.3936 8.823 0.303
45.4140 8.542 0.298
45.4345 8.010 0.289
45.4550 7.854 0.286
45.4754 7.927 0.287
45.4959 7.240 0.275
45.5163 7.323 0.276
45.5368 6.844 0.267
45.5573 7.156 0.273
45.5777 6.875 0.268
45.5982 7.115 0.272
45.6187 6.854 0.267
45.6391 6.625 0.263
45.6596 6.406 0.258
45.6800 6.521 0.261
45.7005 6.094 0.252
45.7210 6.167 0.253
45.7414 6.458 0.259
45.7619 6.990 0.270
45.7824 6.010 0.250
45.8028 6.313 0.256
45.8233 5.802 0.246
45.8438 6.219 0.255
45.8642 5.875 0.247
45.8847 5.563 0.241
45.9051 6.156 0.253
45.9256 5.813 0.246
45.9461 5.865 0.247
45.9665 6.021 0.250
45.9870 5.844 0.247
46.0075 5.771 0.245
46.0279 5.615 0.242
46.0484 5.698 0.244
46.0688 6.125 0.253
46.0893 6.021 0.250
46.1098 5.906 0.248
46.1302 5.552 0.240
46.1507 5.792 0.246
46.1712 5.552 0.240
46.1916 5.750 0.245
46.2121 5.208 0.233
46.2325 6.146 0.253
46.2530 5.542 0.240
46.2735 5.490 0.239
46.2939 5.552 0.240
46.3144 5.354 0.236
46.3349 5.813 0.246
46.3553 5.542 0.240
46.3758 5.677 0.243
46.3962 5.490 0.239
46.4167 5.292 0.235
46.4372 5.646 0.243
46.4576 5.313 0.235
46.4781 5.781 0.245
46.4986 5.167 0.232
46.5190 5.292 0.235
46.5395 5.271 0.234
46.5600 5.365 0.236
46.5804 5.469 0.239
46.6009 5.625 0.242
46.6213 5.708 0.244
46.6418 5.490 0.239
46.6623 5.948 0.249
46.6827 5.177 0.232
46.7032 5.344 0.236
46.7237 5.240 0.234
46.7441 5.604 0.242
46.7646 5.573 0.241
46.7850 5.802 0.246
46.8055 5.625 0.242
46.8260 5.333 0.236
46.8464 5.740 0.245
46.8669 5.708 0.244
46.8874 5.500 0.239
46.9078 5.479 0.239
46.9283 5.594 0.241
46.9487 5.490 0.239
46.9692 5.604 0.242
46.9897 6.198 0.254
47.0101 5.615 0.242
47.0306 5.802 0.246
47.0511 5.656 0.243
47.0715 5.698 0.244
47.0920 5.781 0.245
47.1124 5.896 0.248
47.1329 5.833 0.247
47.1534 5.823 0.246
47.1738 5.417 0.238
47.1943 6.260 0.255
47.2148 6.167 0.253
47.2352 5.885 0.248
47.2557 6.031 0.251
47.2761 5.990 0.250
47.2966 6.802 0.266
47.3171 6.188 0.254
47.3375 6.448 0.259
47.3580 6.344 0.257
47.3785 6.375 0.258
47.3989 7.208 0.274
47.4194 7.042 0.271
47.4399 7.167 0.273
47.4603 7.479 0.279
47.4808 7.208 0.274
47.5012 7.927 0.287
47.5217 8.448 0.297
47.5422 10.104 0.324
47.5626 10.990 0.338
47.5831 14.302 0.386
47.6036 16.406 0.413
47.6240 15.479 0.402
47.6445 13.417 0.374
47.6649 11.552 0.347
47.6854 10.927 0.337
47.7059 11.417 0.345
47.7263 12.313 0.358
47.7468 12.052 0.354
47.7673 11.365 0.344
47.7877 9.042 0.307
47.8082 8.979 0.306
47.8286 8.125 0.291
47.8491 7.990 0.288
47.8696 7.656 0.282
47.8900 7.333 0.276
47.9105 7.063 0.271
47.9310 7.104 0.272
47.9514 7.063 0.271
47.9719 7.021 0.270
47.9923 7.031 0.271
48.0128 7.438 0.278
48.0333 6.813 0.266
48.0537 6.885 0.268
48.0742 7.365 0.277
48.0947 7.500 0.280
48.1151 7.448 0.279
48.1356 7.708 0.283
48.1560 7.146 0.273
48.1765 6.667 0.264
48.1970 6.563 0.261
48.2174 6.688 0.264
48.2379 7.302 0.276
48.2584 6.948 0.269
48.2788 7.104 0.272
48.2993 6.979 0.270
48.3198 7.500 0.280
48.3402 7.917 0.287
48.3607 8.198 0.292
48.3811 7.365 0.277
48.4016 7.240 0.275
48.4221 7.656 0.282
48.4425 8.010 0.289
48.4630 7.125 0.272
48.4835 7.146 0.273
48.5039 7.156 0.273
48.5244 6.667 0.264
48.5448 6.948 0.269
48.5653 6.531 0.261
48.5858 6.396 0.258
48.6062 6.719 0.265
48.6267 6.375 0.258
48.6472 6.188 0.254
48.6676 6.510 0.260
48.6881 7.021 0.270
48.7085 7.448 0.279
48.7290 7.396 0.278
48.7495 7.146 0.273
48.7699 6.750 0.265
48.7904 6.667 0.264
48.8109 6.302 0.256
48.8313 6.583 0.262
48.8518 6.156 0.253
48.8722 6.146 0.253
48.8927 5.719 0.244
48.9132 5.396 0.237
48.9336 5.792 0.246
48.9541 5.115 0.231
48.9746 5.510 0.240
48.9950 5.250 0.234
49.0155 5.594 0.241
49.0359 5.094 0.230
49.0564 5.125 0.231
49.0769 5.406 0.237
49.0973 4.969 0.228
49.1178 5.500 0.239
49.1383 5.260 0.234
49.1587 5.271 0.234
49.1792 5.469 0.239
49.1997 5.344 0.236
49.2201 5.427 0.238
49.2406 5.156 0.232
49.2610 5.417 0.238
49.2815 5.865 0.247
49.3020 5.229 0.233
49.3224 5.750 0.245
49.3429 5.427 0.238
49.3634 5.552 0.240
49.3838 5.521 0.240
49.4043 5.927 0.248
49.4247 5.604 0.242
49.4452 5.344 0.236
49.4657 5.771 0.245
49.4861 5.917 0.248
49.5066 6.094 0.252
49.5271 6.146 0.253
49.5475 6.104 0.252
49.5680 6.396 0.258
49.5884 6.479 0.260
49.6089 7.104 0.272
49.6294 6.854 0.267
49.6498 7.135 0.273
49.6703 7.500 0.280
49.6908 7.396 0.278
49.7112 8.010 0.289
49.7317 8.188 0.292
49.7521 9.604 0.316
49.7726 10.927 0.337
49.7931 12.563 0.362
49.8135 14.625 0.390
49.8340 17.073 0.422
49.8545 18.667 0.441
49.8749 17.500 0.427
49.8954 14.823 0.393
49.9158 14.563 0.389
49.9363 12.938 0.367
49.9568 14.073 0.383
49.9772 14.677 0.391
49.9977 14.010 0.382
50.0182 12.865 0.366
50.0386 12.063 0.354
50.0591 10.490 0.331
50.0796 9.865 0.321
50.1000 9.438 0.314
50.1205 9.281 0.311
50.1409 9.104 0.308
50.1614 9.646 0.317
50.1819 10.292 0.327
50.2023 10.802 0.335
50.2228 10.490 0.331
50.2433 9.406 0.313
50.2637 9.156 0.309
50.2842 8.500 0.298
50.3046 9.135 0.308
50.3251 9.073 0.307
50.3456 8.229 0.293
50.3660 8.771 0.302
50.3865 8.542 0.298
50.4070 7.719 0.284
50.4274 7.844 0.286
50.4479 7.635 0.282
50.4683 7.792 0.285
50.4888 7.813 0.285
50.5093 7.948 0.288
50.5297 7.625 0.282
50.5502 8.240 0.293
50.5707 7.865 0.286
50.5911 7.948 0.288
50.6116 8.208 0.292
50.6320 8.667 0.300
50.6525 8.885 0.304
50.6730 8.844 0.304
50.6934 8.188 0.292
50.7139 8.677 0.301
50.7344 7.531 0.280
50.7548 8.010 0.289
50.7753 8.010 0.289
50.7958 7.677 0.283
50.8162 7.510 0.280
50.8367 8.208 0.292
50.8571 7.979 0.288
50.8776 7.615 0.282
50.8981 7.677 0.283
50.9185 7.938 0.288
50.9390 8.938 0.305
50.9595 10.156 0.325
50.9799 9.906 0.321
51.0004 8.438 0.296
51.0208 7.729 0.284
51.0413 7.510 0.280
51.0618 7.698 0.283
51.0822 7.781 0.285
51.1027 6.948 0.269
51.1232 7.417 0.278
51.1436 6.656 0.263
51.1641 6.500 0.260
51.1845 6.677 0.264
51.2050 6.365 0.257
51.2255 6.260 0.255
51.2459 6.375 0.258
51.2664 6.448 0.259
51.2869 7.115 0.272
51.3073 7.000 0.270
51.3278 6.323 0.257
51.3482 6.302 0.256
51.3687 6.031 0.251
51.3892 5.760 0.245
51.4096 6.156 0.253
51.4301 6.073 0.252
51.4506 6.021 0.250
51.4710 5.885 0.248
51.4915 5.396 0.237
51.5119 6.010 0.250
51.5324 5.719 0.244
51.5529 6.083 0.252
51.5733 5.979 0.250
51.5938 6.219 0.255
51.6143 7.094 0.272
51.6347 6.792 0.266
51.6552 7.448 0.279
51.6757 7.333 0.276
51.6961 7.583 0.281
51.7166 6.625 0.263
51.7370 5.813 0.246
51.7575 6.052 0.251
51.7780 6.292 0.256
51.7984 6.615 0.262
51.8189 5.729 0.244
51.8394 6.417 0.259
51.8598 6.021 0.250
51.8803 6.146 0.253
51.9007 5.198 0.233
51.9212 5.885 0.248
51.9417 5.490 0.239
51.9621 5.542 0.240
51.9826 5.427 0.238
52.0031 4.906 0.226
52.0235 5.135 0.231
52.0440 5.490 0.239
52.0644 5.875 0.247
52.0849 5.438 0.238
52.1054 5.802 0.246
52.1258 5.406 0.237
52.1463 4.969 0.228
52.1668 5.688 0.243
52.1872 5.438 0.238
52.2077 5.969 0.249
52.2281 5.729 0.244
52.2486 5.417 0.238
52.2691 5.573 0.241
52.2895 5.698 0.244
52.3100 5.656 0.243
52.3305 5.396 0.237
52.3509 5.781 0.245
52.3714 5.927 0.248
52.3918 5.896 0.248
52.4123 6.021 0.250
52.4328 5.979 0.250
52.4532 5.333 0.236
52.4737 5.385 0.237
52.4942 4.927 0.227
52.5146 4.990 0.228
52.5351 5.083 0.230
52.5556 5.000 0.228
52.5760 5.260 0.234
52.5965 5.219 0.233
52.6169 5.052 0.229
52.6374 5.135 0.231
52.6579 5.177 0.232
52.6783 5.031 0.229
52.6988 4.500 0.217
52.7193 5.219 0.233
52.7397 4.594 0.219
52.7602 4.969 0.228
52.7806 4.688 0.221
52.8011 5.031 0.229
52.8216 5.427 0.238
52.8420 5.031 0.229
52.8625 5.271 0.234
52.8830 5.292 0.235
52.9034 4.906 0.226
52.9239 4.708 0.221
52.9443 5.135 0.231
52.9648 5.510 0.240
52.9853 5.479 0.239
53.0057 5.104 0.231
53.0262 5.240 0.234
53.0467 4.948 0.227
53.0671 5.677 0.243
53.0876 5.708 0.244
53.1080 5.896 0.248
53.1285 5.594 0.241
53.1490 5.417 0.238
53.1694 5.094 0.230
53.1899 5.760 0.245
53.2104 5.552 0.240
53.2308 5.625 0.242
53.2513 5.302 0.235
53.2717 5.667 0.243
53.2922 5.792 0.246
53.3127 5.625 0.242
53.3331 5.719 0.244
53.3536 5.250 0.234
53.3741 5.458 0.238
53.3945 5.240 0.234
53.4150 5.177 0.232
53.4355 5.313 0.235
53.4559 4.823 0.224
53.4764 5.167 0.232
53.4968 5.281 0.235
53.5173 4.938 0.227
53.5378 5.448 0.238
53.5582 5.375 0.237
53.5787 4.885 0.226
53.5992 4.542 0.218
53.6196 4.844 0.225
53.6401 4.479 0.216
53.6605 4.594 0.219
53.6810 4.688 0.221
53.7015 4.854 0.225
53.7219 4.333 0.212
53.7424 4.542 0.218
53.7629 4.417 0.214
53.7833 4.604 0.219
53.8038 4.885 0.226
53.8242 5.010 0.228
53.8447 4.802 0.224
53.8652 4.417 0.214
53.8856 4.354 0.213
53.9061 4.771 0.223
53.9266 4.240 0.210
53.9470 4.583 0.219
53.9675 4.302 0.212
53.9879 4.646 0.220
54.0084 4.271 0.211
54.0289 5.469 0.239
54.0493 5.104 0.231
54.0698 5.240 0.234
54.0903 5.365 0.236
54.1107 5.063 0.230
54.1312 5.083 0.230
54.1516 6.156 0.253
54.1721 5.448 0.238
54.1926 5.365 0.236
54.2130 5.323 0.235
54.2335 5.229 0.233
54.2540 5.000 0.228
54.2744 4.990 0.228
54.2949 5.573 0.241
54.3154 5.458 0.238
54.3358 5.354 0.236
54.3563 5.052 0.229
54.3767 5.031 0.229
54.3972 5.125 0.231
54.4177 5.313 0.235
54.4381 5.125 0.231
54.4586 5.042 0.229
54.4791 4.708 0.221
54.4995 4.750 0.222
54.5200 4.760 0.223
54.5404 5.010 0.228
54.5609 4.885 0.226
54.5814 4.927 0.227
54.6018 4.906 0.226
54.6223 4.375 0.213
54.6428 5.208 0.233
54.6632 4.385 0.214
54.6837 4.708 0.221
54.7041 4.552 0.218
54.7246 4.563 0.218
54.7451 4.760 0.223
54.7655 4.750 0.222
54.7860 4.948 0.227
54.8065 4.698 0.221
54.8269 4.510 0.217
54.8474 4.688 0.221
54.8678 4.969 0.228
54.8883 5.104 0.231
54.9088 5.240 0.234
54.9292 4.813 0.224
54.9497 5.292 0.235
54.9702 5.271 0.234
54.9906 5.260 0.234
55.0111 5.781 0.245
55.0316 6.156 0.253
55.0520 6.104 0.252
55.0725 7.250 0.275
55.0929 7.938 0.288
55.1134 9.094 0.308
55.1339 11.604 0.348
55.1543 14.313 0.386
55.1748 18.000 0.433
55.1953 17.604 0.428
55.2157 16.177 0.411
55.2362 15.042 0.396
55.2566 13.438 0.374
55.2771 14.833 0.393
55.2976 14.323 0.386
55.3180 13.990 0.382
55.3385 13.656 0.377
55.3590 12.083 0.355
55.3794 11.333 0.344
55.3999 9.365 0.312
55.4203 9.417 0.313
55.4408 7.927 0.287
55.4613 7.229 0.274
55.4817 6.740 0.265
55.5022 5.990 0.250
55.5227 6.094 0.252
55.5431 5.865 0.247
55.5636 5.385 0.237
55.5840 4.885 0.226
55.6045 5.240 0.234
55.6250 5.281 0.235
55.6454 5.271 0.234
55.6659 5.365 0.236
55.6864 4.802 0.224
55.7068 4.604 0.219
55.7273 4.969 0.228
55.7477 5.469 0.239
55.7682 5.448 0.238
55.7887 5.156 0.232
55.8091 5.667 0.243
55.8296 5.927 0.248
55.8501 5.896 0.248
55.8705 6.344 0.257
55.8910 5.771 0.245
55.9115 5.792 0.246
55.9319 5.802 0.246
55.9524 6.083 0.252
55.9728 5.854 0.247
55.9933 5.896 0.248
56.0138 5.677 0.243
56.0342 6.115 0.252
56.0547 6.885 0.268
56.0752 6.802 0.266
56.0956 7.594 0.281
56.1161 8.438 0.296
56.1365 8.917 0.305
56.1570 11.563 0.347
56.1775 13.771 0.379
56.1979 14.708 0.391
56.2184 13.229 0.371
56.2389 11.708 0.349
56.2593 9.583 0.316
56.2798 8.271 0.294
56.3002 9.313 0.311
56.3207 8.958 0.305
56.3412 9.479 0.314
56.3616 9.271 0.311
56.3821 8.448 0.297
56.4026 7.156 0.273
56.4230 6.250 0.255
56.4435 5.656 0.243
56.4639 5.104 0.231
56.4844 4.833 0.224
56.5049 4.823 0.224
56.5253 4.573 0.218
56.5458 3.979 0.204
56.5663 4.552 0.218
56.5867 4.344 0.213
56.6072 4.000 0.204
56.6276 4.365 0.213
56.6481 4.271 0.211
56.6686 3.917 0.202
56.6890 3.917 0.202
56.7095 3.854 0.200
56.7300 4.094 0.207
56.7504 3.979 0.204
56.7709 4.031 0.205
56.7914 3.823 0.200
56.8118 3.990 0.204
56.8323 3.917 0.202
56.8527 3.844 0.200
56.8732 3.781 0.198
56.8937 4.156 0.208
56.9141 4.146 0.208
56.9346 3.740 0.197
56.9551 3.865 0.201
56.9755 3.948 0.203
56.9960 3.740 0.197
57.0164 3.927 0.202
57.0369 4.042 0.205
57.0574 4.177 0.209
57.0778 3.625 0.194
57.0983 4.000 0.204
57.1188 4.063 0.206
57.1392 3.667 0.195
57.1597 4.094 0.207
57.1801 4.021 0.205
57.2006 4.115 0.207
57.2211 3.906 0.202
57.2415 4.063 0.206
57.2620 4.021 0.205
57.2825 3.927 0.202
57.3029 3.875 0.201
57.3234 4.219 0.210
57.3438 3.875 0.201
57.3643 3.875 0.201
57.3848 4.260 0.211
57.4052 4.031 0.205
57.4257 4.198 0.209
57.4462 4.073 0.206
57.4666 4.302 0.212
57.4871 3.979 0.204
57.5075 3.990 0.204
57.5280 4.271 0.211
57.5485 4.552 0.218
57.5689 4.417 0.214
57.5894 4.333 0.212
57.6099 4.969 0.228
57.6303 4.417 0.214
57.6508 4.698 0.221
57.6713 4.469 0.216
57.6917 4.604 0.219
57.7122 4.948 0.227
57.7326 4.958 0.227
57.7531 5.146 0.232
57.7736 5.177 0.232
57.7940 6.229 0.255
57.8145 6.396 0.258
57.8350 7.583 0.281
57.8554 8.125 0.291
57.8759 9.573 0.316
57.8963 10.792 0.335
57.9168 11.958 0.353
57.9373 10.740 0.334
57.9577 9.615 0.316
57.9782 8.438 0.296
57.9987 7.604 0.281
58.0191 7.406 0.278
58.0396 8.198 0.292
58.0600 8.323 0.294
58.0805 8.479 0.297
58.1010 8.771 0.302
58.1214 7.240 0.275
58.1419 6.833 0.267
58.1624 6.302 0.256
58.1828 5.573 0.241
58.2033 5.635 0.242
58.2237 5.281 0.235
58.2442 5.219 0.233
58.2647 5.708 0.244
58.2851 4.969 0.228
58.3056 5.823 0.246
58.3261 5.521 0.240
58.3465 5.073 0.230
58.3670 5.094 0.230
58.3874 5.354 0.236
58.4079 5.427 0.238
58.4284 4.958 0.227
58.4488 4.656 0.220
58.4693 5.042 0.229
58.4898 5.104 0.231
58.5102 4.813 0.224
58.5307 4.604 0.219
58.5512 5.146 0.232
58.5716 5.198 0.233
58.5921 4.844 0.225
58.6125 5.146 0.232
58.6330 5.260 0.234
58.6535 5.125 0.231
58.6739 5.031 0.229
58.6944 5.281 0.235
58.7149 4.906 0.226
58.7353 5.292 0.235
58.7558 5.156 0.232
58.7762 5.073 0.230
58.7967 5.479 0.239
58.8172 5.177 0.232
58.8376 4.927 0.227
58.8581 5.656 0.243
58.8786 5.740 0.245
58.8990 5.010 0.228
58.9195 5.344 0.236
58.9399 5.698 0.244
58.9604 5.594 0.241
58.9809 5.729 0.244
59.0013 5.771 0.245
59.0218 5.490 0.239
59.0423 5.458 0.238
59.0627 5.948 0.249
59.0832 5.479 0.239
59.1036 5.792 0.246
59.1241 6.333 0.257
59.1446 6.396 0.258
59.1650 6.813 0.266
59.1855 7.313 0.276
59.2060 8.656 0.300
59.2264 8.250 0.293
59.2469 7.000 0.270
59.2674 6.292 0.256
59.2878 5.865 0.247
59.3083 5.833 0.247
59.3287 6.250 0.255
59.3492 6.250 0.255
59.3697 6.281 0.256
59.3901 6.365 0.257
59.4106 5.896 0.248
59.4311 5.521 0.240
59.4515 4.885 0.226
59.4720 4.688 0.221
59.4924 4.635 0.220
59.5129 4.656 0.220
59.5334 4.146 0.208
59.5538 4.260 0.211
59.5743 4.250 0.210
59.5948 4.563 0.218
59.6152 3.990 0.204
59.6357 4.333 0.212
59.6561 4.729 0.222
59.6766 4.073 0.206
59.6971 4.052 0.205
59.7175 4.229 0.210
59.7380 4.292 0.211
59.7585 4.813 0.224
59.7789 4.938 0.227
59.7994 4.969 0.228
59.8198 5.583 0.241
59.8403 6.292 0.256
59.8608 7.156 0.273
59.8812 7.281 0.275
59.9017 7.240 0.275
59.9222 6.906 0.268
59.9426 5.656 0.243
59.9631 5.542 0.240
59.9835 5.792 0.246
60.0040 6.542 0.261
60.0245 5.813 0.246
60.0449 5.885 0.248
60.0654 5.667 0.243
60.0859 5.521 0.240
60.1063 4.865 0.225
60.1268 5.542 0.240
60.1473 4.750 0.222
60.1677 4.865 0.225
60.1882 4.604 0.219
60.2086 4.417 0.214
60.2291 4.281 0.211
60.2496 4.292 0.211
60.2700 4.271 0.211
60.2905 4.490 0.216
60.3110 4.042 0.205
60.3314 3.917 0.202
60.3519 3.719 0.197
60.3723 4.385 0.214
60.3928 4.135 0.208
60.4133 3.958 0.203
60.4337 4.260 0.211
60.4542 3.990 0.204
60.4747 4.135 0.208
60.4951 4.010 0.204
60.5156 4.188 0.209
60.5360 4.427 0.215
60.5565 4.177 0.209
60.5770 4.469 0.216
60.5974 4.490 0.216
60.6179 4.240 0.210
60.6384 4.698 0.221
60.6588 4.427 0.215
60.6793 4.281 0.211
60.6997 4.458 0.216
60.7202 4.219 0.210
60.7407 4.292 0.211
60.7611 4.167 0.208
60.7816 3.865 0.201
60.8021 4.135 0.208
60.8225 4.281 0.211
60.8430 4.281 0.211
60.8634 4.531 0.217
60.8839 4.167 0.208
60.9044 3.698 0.196
60.9248 4.125 0.207
60.9453 3.604 0.194
60.9658 3.844 0.200
60.9862 3.771 0.198
61.0067 3.490 0.191
61.0272 3.865 0.201
61.0476 3.771 0.198
61.0681 3.688 0.196
61.0885 4.010 0.204
61.1090 3.208 0.183
61.1295 3.458 0.190
61.1499 3.865 0.201
61.1704 3.448 0.190
61.1909 3.615 0.194
61.2113 3.615 0.194
61.2318 3.656 0.195
61.2522 3.781 0.198
61.2727 3.771 0.198
61.2932 3.781 0.198
61.3136 3.552 0.192
61.3341 3.302 0.185
61.3546 3.552 0.192
61.3750 3.438 0.189
61.3955 3.750 0.198
61.4159 3.281 0.185
61.4364 3.625 0.194
61.4569 3.625 0.194
61.4773 3.677 0.196
61.4978 3.833 0.200
61.5183 3.531 0.192
61.5387 3.823 0.200
61.5592 4.073 0.206
61.5796 3.229 0.183
61.6001 3.740 0.197
61.6206 3.125 0.180
61.6410 3.615 0.194
61.6615 3.385 0.188
61.6820 3.656 0.195
61.7024 3.531 0.192
61.7229 3.729 0.197
61.7433 3.646 0.195
61.7638 3.427 0.189
61.7843 3.281 0.185
61.8047 3.688 0.196
61.8252 3.563 0.193
61.8457 3.500 0.191
61.8661 3.615 0.194
61.8866 3.615 0.194
61.9071 3.115 0.180
61.9275 3.365 0.187
61.9480 3.802 0.199
61.9684 3.375 0.188
61.9889 3.583 0.193
62.0094 3.667 0.195
62.0298 3.510 0.191
62.0503 4.052 0.205
62.0708 4.229 0.210
62.0912 4.802 0.224
62.1117 4.688 0.221
62.1321 5.135 0.231
62.1526 4.823 0.224
62.1731 4.760 0.223
62.1935 4.479 0.216
62.2140 4.313 0.212
62.2345 4.115 0.207
62.2549 3.958 0.203
62.2754 4.010 0.204
62.2958 4.146 0.208
62.3163 3.906 0.202
62.3368 4.177 0.209
62.3572 4.219 0.210
62.3777 3.708 0.197
62.3982 3.583 0.193
62.4186 3.938 0.203
62.4391 3.688 0.196
62.4595 3.760 0.198
62.4800 3.354 0.187
62.5005 3.448 0.190
62.5209 3.667 0.195
62.5414 3.479 0.190
62.5619 3.073 0.179
62.5823 3.604 0.194
62.6028 3.583 0.193
62.6232 3.302 0.185
62.6437 3.458 0.190
62.6642 2.990 0.176
62.6846 3.448 0.190
62.7051 3.583 0.193
62.7256 3.490 0.191
62.7460 3.531 0.192
62.7665 3.833 0.200
62.7870 3.719 0.197
62.8074 3.563 0.193
62.8279 3.073 0.179
62.8483 3.156 0.181
62.8688 3.771 0.198
62.8893 3.375 0.188
62.9097 3.396 0.188
62.9302 3.115 0.180
62.9507 3.448 0.190
62.9711 3.531 0.192
62.9916 3.135 0.181
63.0120 3.479 0.190
63.0325 3.552 0.192
63.0530 3.458 0.190
63.0734 3.885 0.201
63.0939 3.479 0.190
63.1144 3.563 0.193
63.1348 3.865 0.201
63.1553 3.677 0.196
63.1757 3.615 0.194
63.1962 3.896 0.201
63.2167 3.313 0.186
63.2371 3.646 0.195
63.2576 3.427 0.189
63.2781 3.844 0.200
63.2985 3.563 0.193
63.3190 3.552 0.192
63.3394 3.719 0.197
63.3599 3.781 0.198
63.3804 3.760 0.198
63.4008 3.771 0.198
63.4213 3.302 0.185
63.4418 3.563 0.193
63.4622 3.969 0.203
63.4827 3.740 0.197
63.5032 3.896 0.201
63.5236 3.688 0.196
63.5441 3.823 0.200
63.5645 3.958 0.203
63.5850 4.156 0.208
63.6055 4.406 0.214
63.6259 4.375 0.213
63.6464 4.250 0.210
63.6669 4.396 0.214
63.6873 4.802 0.224
63.7078 4.948 0.227
63.7282 5.417 0.238
63.7487 5.052 0.229
63.7692 4.781 0.223
63.7896 5.083 0.230
63.8101 4.906 0.226
63.8306 4.969 0.228
63.8510 5.052 0.229
63.8715 5.229 0.233
63.8919 5.000 0.228
63.9124 5.010 0.228
63.9329 4.948 0.227
63.9533 4.938 0.227
63.9738 4.802 0.224
63.9943 4.698 0.221
64.0147 5.031 0.229
64.0352 5.208 0.233
64.0556 4.531 0.217
64.0761 4.667 0.220
64.0966 4.167 0.208
64.1170 4.646 0.220
64.1375 4.313 0.212
64.1580 4.281 0.211
64.1784 4.500 0.217
64.1989 4.729 0.222
64.2193 4.438 0.215
64.2398 4.448 0.215
64.2603 4.552 0.218
64.2807 4.188 0.209
64.3012 4.094 0.207
64.3217 4.604 0.219
64.3421 4.510 0.217
64.3626 4.208 0.209
64.3831 4.406 0.214
64.4035 4.677 0.221
64.4240 4.198 0.209
64.4444 4.500 0.217
64.4649 4.563 0.218
64.4854 4.510 0.217
64.5058 4.750 0.222
64.5263 4.688 0.221
64.5468 4.885 0.226
64.5672 5.458 0.238
64.5877 5.938 0.249
64.6081 6.406 0.258
64.6286 7.385 0.277
64.6491 7.531 0.280
64.6695 8.094 0.290
64.6900 7.885 0.287
64.7105 6.875 0.268
64.7309 6.844 0.267
64.7514 6.698 0.264
64.7718 6.542 0.261
64.7923 6.990 0.270
64.8128 6.656 0.263
64.8332 6.635 0.263
64.8537 5.969 0.249
64.8742 6.063 0.251
64.8946 5.750 0.245
64.9151 5.385 0.237
64.9355 5.010 0.228
64.9560 4.917 0.226
64.9765 4.531 0.217
64.9969 4.208 0.209
65.0174 4.219 0.210
65.0379 4.271 0.211
65.0583 4.063 0.206
65.0788 4.063 0.206
65.0992 3.646 0.195
65.1197 3.646 0.195
65.1402 3.625 0.194
65.1606 3.688 0.196
65.1811 3.656 0.195
65.2016 3.719 0.197
65.2220 3.479 0.190
65.2425 3.521 0.192
65.2630 3.542 0.192
65.2834 3.417 0.189
65.3039 3.448 0.190
65.3243 3.698 0.196
65.3448 3.510 0.191
65.3653 3.604 0.194
65.3857 3.375 0.188
65.4062 3.646 0.195
65.4267 3.833 0.200
65.4471 3.917 0.202
65.4676 3.865 0.201
65.4880 4.198 0.209
65.5085 4.365 0.213
65.5290 5.198 0.233
65.5494 4.917 0.226
65.5699 5.292 0.235
65.5904 5.375 0.237
65.6108 5.781 0.245
65.6313 5.052 0.229
65.6517 4.948 0.227
65.6722 4.552 0.218
65.6927 4.385 0.214
65.7131 4.490 0.216
65.7336 4.448 0.215
65.7541 4.448 0.215
65.7745 4.729 0.222
65.7950 4.823 0.224
65.8154 4.042 0.205
65.8359 4.135 0.208
65.8564 3.917 0.202
65.8768 3.906 0.202
65.8973 3.802 0.199
65.9178 4.031 0.205
65.9382 3.625 0.194
65.9587 3.917 0.202
65.9791 3.417 0.189
65.9996 3.427 0.189
66.0201 3.635 0.195
66.0405 3.719 0.197
66.0610 3.875 0.201
66.0815 3.604 0.194
66.1019 4.042 0.205
66.1224 3.813 0.199
66.1429 3.833 0.200
66.1633 3.656 0.195
66.1838 3.448 0.190
66.2042 3.927 0.202
66.2247 3.479 0.190
66.2452 3.500 0.191
66.2656 3.667 0.195
66.2861 3.458 0.190
66.3066 3.448 0.190
66.3270 3.917 0.202
66.3475 3.740 0.197
66.3679 3.885 0.201
66.3884 3.469 0.190
66.4089 3.865 0.201
66.4293 3.729 0.197
66.4498 3.760 0.198
66.4703 3.708 0.197
66.4907 3.146 0.181
66.5112 3.552 0.192
66.5316 3.469 0.190
66.5521 3.531 0.192
66.5726 3.896 0.201
66.5930 3.500 0.191
66.6135 3.885 0.201
66.6340 3.708 0.197
66.6544 3.427 0.189
66.6749 3.313 0.186
66.6953 3.917 0.202
66.7158 3.438 0.189
66.7363 3.719 0.197
66.7567 3.510 0.191
66.7772 4.031 0.205
66.7977 3.708 0.197
66.8181 3.615 0.194
66.8386 3.688 0.196
66.8590 4.031 0.205
66.8795 4.125 0.207
66.9000 4.146 0.208
66.9204 4.083 0.206
66.9409 5.000 0.228
66.9614 4.563 0.218
66.9818 4.781 0.223
67.0023 4.958 0.227
67.0228 4.813 0.224
67.0432 5.156 0.232
67.0637 6.021 0.250
67.0841 7.208 0.274
67.1046 7.417 0.278
67.1251 9.042 0.307
67.1455 9.385 0.313
67.1660 10.219 0.326
67.1865 9.219 0.310
67.2069 8.542 0.298
67.2274 7.719 0.284
67.2478 7.333 0.276
67.2683 6.760 0.265
67.2888 6.573 0.262
67.3092 7.115 0.272
67.3297 6.990 0.270
67.3502 7.896 0.287
67.3706 6.969 0.269
67.3911 6.583 0.262
67.4115 5.458 0.238
67.4320 5.271 0.234
67.4525 5.281 0.235
67.4729 5.219 0.233
67.4934 5.125 0.231
67.5139 4.323 0.212
67.5343 4.740 0.222
67.5548 4.531 0.217
67.5752 4.448 0.215
67.5957 4.208 0.209
67.6162 4.521 0.217
67.6366 4.500 0.217
67.6571 4.490 0.216
67.6776 4.229 0.210
67.6980 4.708 0.221
67.7185 4.594 0.219
67.7389 4.302 0.212
67.7594 4.656 0.220
67.7799 4.958 0.227
67.8003 4.344 0.213
67.8208 4.833 0.224
67.8413 3.979 0.204
67.8617 4.271 0.211
67.8822 4.167 0.208
67.9027 4.188 0.209
67.9231 4.250 0.210
67.9436 4.302 0.212
67.9640 4.323 0.212
67.9845 4.156 0.208
68.0050 4.167 0.208
68.0254 4.479 0.216
68.0459 4.469 0.216
68.0664 4.813 0.224
68.0868 4.823 0.224
68.1073 4.427 0.215
68.1277 4.396 0.214
68.1482 4.219 0.210
68.1687 4.042 0.205
68.1891 4.542 0.218
68.2096 4.813 0.224
68.2301 4.375 0.213
68.2505 5.104 0.231
68.2710 4.948 0.227
68.2914 5.063 0.230
68.3119 5.302 0.235
68.3324 6.010 0.250
68.3528 5.302 0.235
68.3733 5.323 0.235
68.3938 5.510 0.240
68.4142 4.802 0.224
68.4347 4.750 0.222
68.4551 4.177 0.209
68.4756 4.344 0.213
68.4961 4.469 0.216
68.5165 4.302 0.212
68.5370 4.438 0.215
68.5575 4.177 0.209
68.5779 4.573 0.218
68.5984 4.135 0.208
68.6189 3.823 0.200
68.6393 3.854 0.200
68.6598 3.500 0.191
68.6802 3.698 0.196
68.7007 3.615 0.194
68.7212 3.531 0.192
68.7416 3.750 0.198
68.7621 3.740 0.197
68.7826 3.875 0.201
68.8030 3.615 0.194
68.8235 3.781 0.198
68.8439 3.958 0.203
68.8644 4.167 0.208
68.8849 4.083 0.206
68.9053 4.698 0.221
68.9258 4.552 0.218
68.9463 4.938 0.227
68.9667 5.406 0.237
68.9872 5.052 0.229
69.0076 5.302 0.235
69.0281 4.885 0.226
69.0486 4.479 0.216
69.0690 4.188 0.209
69.0895 4.156 0.208
69.1100 4.240 0.210
69.1304 4.302 0.212
69.1509 4.104 0.207
69.1713 4.708 0.221
69.1918 4.792 0.223
69.2123 4.948 0.227
69.2327 4.938 0.227
69.2532 4.531 0.217
69.2737 4.500 0.217
69.2941 4.479 0.216
69.3146 3.979 0.204
69.3350 4.125 0.207
69.3555 3.760 0.198
69.3760 3.646 0.195
69.3964 3.375 0.188
69.4169 3.740 0.197
69.4374 3.781 0.198
69.4578 3.875 0.201
69.4783 3.865 0.201
69.4988 3.333 0.186
69.5192 3.052 0.178
69.5397 3.729 0.197
69.5601 3.479 0.190
69.5806 3.271 0.185
69.6011 3.042 0.178
69.6215 3.292 0.185
69.6420 3.177 0.182
69.6625 3.104 0.180
69.6829 3.427 0.189
69.7034 3.073 0.179
69.7238 3.281 0.185
69.7443 3.229 0.183
69.7648 3.177 0.182
69.7852 3.271 0.185
69.8057 3.375 0.188
69.8262 3.354 0.187
69.8466 3.156 0.181
69.8671 3.323 0.186
69.8875 3.219 0.183
69.9080 3.010 0.177
69.9285 3.115 0.180
69.9489 3.063 0.179
69.9694 3.365 0.187
69.9899 3.000 0.177
70.0103 3.083 0.179
70.0308 3.010 0.177
70.0512 2.896 0.174
70.0717 3.115 0.180
70.0922 2.917 0.174
70.1126 3.208 0.183
70.1331 2.844 0.172
70.1536 2.938 0.175
70.1740 3.292 0.185
70.1945 3.323 0.186
70.2149 3.271 0.185
70.2354 3.490 0.191
70.2559 3.292 0.185
70.2763 3.135 0.181
70.2968 2.833 0.172
70.3173 3.240 0.184
70.3377 2.938 0.175
70.3582 2.969 0.176
70.3787 3.219 0.183
70.3991 2.969 0.176
70.4196 3.344 0.187
70.4400 3.115 0.180
70.4605 2.854 0.172
70.4810 2.917 0.174
70.5014 2.958 0.176
70.5219 3.302 0.185
70.5424 3.198 0.183
70.5628 3.406 0.188
70.5833 3.021 0.177
70.6037 3.292 0.185
70.6242 3.323 0.186
70.6447 3.323 0.186
70.6651 3.354 0.187
70.6856 3.250 0.184
70.7061 2.927 0.175
70.7265 3.313 0.186
70.7470 2.969 0.176
70.7674 3.365 0.187
70.7879 3.406 0.188
70.8084 3.115 0.180
70.8288 2.958 0.176
70.8493 2.844 0.172
70.8698 3.010 0.177
70.8902 3.156 0.181
70.9107 3.344 0.187
70.9311 3.063 0.179
70.9516 3.000 0.177
70.9721 3.219 0.183
70.9925 3.052 0.178
71.0130 3.260 0.184
71.0335 3.167 0.182
71.0539 2.906 0.174
71.0744 3.531 0.192
71.0948 3.490 0.191
71.1153 3.469 0.190
71.1358 3.240 0.184
71.1562 3.510 0.191
71.1767 2.948 0.175
71.1972 3.125 0.180
71.2176 3.052 0.178
71.2381 3.052 0.178
71.2586 3.146 0.181
71.2790 3.219 0.183
71.2995 2.854 0.172
71.3199 2.927 0.175
71.3404 3.083 0.179
71.3609 3.104 0.180
71.3813 2.865 0.173
71.4018 2.865 0.173
71.4223 2.740 0.169
71.4427 3.094 0.180
71.4632 2.521 0.162
71.4836 3.188 0.182
71.5041 2.729 0.169
71.5246 2.823 0.171
71.5450 2.792 0.171
71.5655 2.844 0.172
71.5860 3.010 0.177
71.6064 2.542 0.163
71.6269 2.875 0.173
71.6473 2.667 0.167
71.6678 2.771 0.170
71.6883 3.177 0.182
71.7087 3.052 0.178
71.7292 2.906 0.174
71.7497 2.365 0.157
71.7701 2.844 0.172
71.7906 2.760 0.170
71.8110 2.729 0.169
71.8315 2.885 0.173
71.8520 2.917 0.174
71.8724 2.740 0.169
71.8929 2.781 0.170
71.9134 2.813 0.171
71.9338 2.708 0.168
71.9543 2.865 0.173
71.9747 3.063 0.179
71.9952 2.625 0.165
72.0157 2.667 0.167
72.0361 2.604 0.165
72.0566 2.688 0.167
72.0771 2.667 0.167
72.0975 2.896 0.174
72.1180 2.927 0.175
72.1385 2.875 0.173
72.1589 2.635 0.166
72.1794 2.708 0.168
72.1998 2.448 0.160
72.2203 2.854 0.172
72.2408 2.896 0.174
72.2612 2.542 0.163
72.2817 2.656 0.166
72.3022 2.281 0.154
72.3226 2.802 0.171
72.3431 3.135 0.181
72.3635 2.479 0.161
72.3840 2.969 0.176
72.4045 2.615 0.165
72.4249 2.833 0.172
72.4454 2.865 0.173
72.4659 2.583 0.164
72.4863 2.531 0.162
72.5068 2.563 0.163
72.5272 2.667 0.167
72.5477 2.635 0.166
72.5682 2.750 0.169
72.5886 2.458 0.160
72.6091 2.698 0.168
72.6296 2.656 0.166
72.6500 2.615 0.165
72.6705 2.646 0.166
72.6909 2.813 0.171
72.7114 2.698 0.168
72.7319 3.208 0.183
72.7523 3.031 0.178
72.7728 2.948 0.175
72.7933 2.979 0.176
72.8137 3.219 0.183
72.8342 3.229 0.183
72.8547 3.063 0.179
72.8751 3.063 0.179
72.8956 3.188 0.182
72.9160 3.073 0.179
72.9365 2.740 0.169
72.9570 2.750 0.169
72.9774 2.729 0.169
72.9979 2.896 0.174
73.0184 3.125 0.180
73.0388 3.083 0.179
73.0593 2.708 0.168
73.0797 2.719 0.168
73.1002 2.573 0.164
73.1207 2.615 0.165
73.1411 2.583 0.164
73.1616 2.802 0.171
73.1821 2.667 0.167
73.2025 2.354 0.157
73.2230 2.385 0.158
73.2434 2.521 0.162
73.2639 2.688 0.167
73.2844 2.635 0.166
73.3048 2.375 0.157
73.3253 2.344 0.156
73.3458 2.458 0.160
73.3662 2.271 0.154
73.3867 2.229 0.152
73.4071 2.583 0.164
73.4276 2.615 0.165
73.4481 2.323 0.156
73.4685 2.531 0.162
73.4890 2.740 0.169
73.5095 2.760 0.170
73.5299 2.542 0.163
73.5504 2.750 0.169
73.5708 2.677 0.167
73.5913 2.563 0.163
73.6118 2.365 0.157
73.6322 2.448 0.160
73.6527 2.240 0.153
73.6732 2.938 0.175
73.6936 2.385 0.158
73.7141 2.490 0.161
73.7346 2.104 0.148
73.7550 2.573 0.164
73.7755 2.469 0.160
73.7959 2.656 0.166
73.8164 2.281 0.154
73.8369 2.448 0.160
73.8573 2.417 0.159
73.8778 2.385 0.158
73.8983 2.542 0.163
73.9187 2.802 0.171
73.9392 2.656 0.166
73.9596 2.490 0.161
73.9801 2.667 0.167
74.0006 2.719 0.168
74.0210 2.729 0.169
74.0415 2.833 0.172
74.0620 2.917 0.174
74.0824 2.542 0.163
74.1029 2.719 0.168
74.1233 2.583 0.164
74.1438 2.750 0.169
74.1643 2.302 0.155
74.1847 2.635 0.166
74.2052 2.385 0.158
74.2257 2.719 0.168
74.2461 2.458 0.160
74.2666 2.823 0.171
74.2870 2.656 0.166
74.3075 2.635 0.166
74.3280 2.667 0.167
74.3484 2.677 0.167
74.3689 2.146 0.150
74.3894 2.292 0.155
74.4098 2.656 0.166
74.4303 2.635 0.166
74.4507 2.281 0.154
74.4712 2.313 0.155
74.4917 2.802 0.171
74.5121 2.177 0.151
74.5326 2.469 0.160
74.5531 2.219 0.152
74.5735 2.385 0.158
74.5940 1.958 0.143
74.6145 2.490 0.161
74.6349 2.417 0.159
74.6554 2.313 0.155
74.6758 2.615 0.165
74.6963 2.490 0.161
74.7168 2.375 0.157
74.7372 2.531 0.162
74.7577 2.406 0.158
74.7782 2.583 0.164
74.7986 2.344 0.156
74.8191 2.104 0.148
74.8395 2.708 0.168
74.8600 2.125 0.149
74.8805 2.323 0.156
74.9009 2.781 0.170
74.9214 2.250 0.153
74.9419 2.438 0.159
74.9623 2.365 0.157
74.9828 2.646 0.166
75.0032 2.521 0.162
75.0237 2.708 0.168
75.0442 2.375 0.157
75.0646 2.667 0.167
75.0851 2.229 0.152
75.1056 2.469 0.160
75.1260 2.542 0.163
75.1465 2.281 0.154
75.1669 2.260 0.153
75.1874 2.510 0.162
75.2079 2.719 0.168
75.2283 2.521 0.162
75.2488 2.250 0.153
75.2693 2.417 0.159
75.2897 2.604 0.165
75.3102 2.646 0.166
75.3306 2.583 0.164
75.3511 2.208 0.152
75.3716 2.635 0.166
75.3920 2.510 0.162
75.4125 2.917 0.174
75.4330 2.292 0.155
75.4534 2.458 0.160
75.4739 2.740 0.169
75.4944 2.552 0.163
75.5148 3.073 0.179
75.5353 2.719 0.168
75.5557 2.938 0.175
75.5762 2.865 0.173
75.5967 3.031 0.178
75.6171 2.771 0.170
75.6376 3.104 0.180
75.6581 3.271 0.185
75.6785 3.458 0.190
75.6990 3.885 0.201
75.7194 3.948 0.203
75.7399 4.271 0.211
75.7604 4.448 0.215
75.7808 4.594 0.219
75.8013 5.188 0.232
75.8218 5.406 0.237
75.8422 4.844 0.225
75.8627 4.427 0.215
75.8831 4.094 0.207
75.9036 3.760 0.198
75.9241 3.677 0.196
75.9445 3.646 0.195
75.9650 4.146 0.208
75.9855 4.000 0.204
76.0059 4.063 0.206
76.0264 4.167 0.208
76.0468 4.000 0.204
76.0673 3.979 0.204
76.0878 3.563 0.193
76.1082 3.167 0.182
76.1287 3.083 0.179
76.1492 2.990 0.176
76.1696 2.979 0.176
76.1901 2.917 0.174
76.2105 2.823 0.171
76.2310 2.927 0.175
76.2515 2.938 0.175
76.2719 2.833 0.172
76.2924 2.771 0.170
76.3129 2.396 0.158
76.3333 2.802 0.171
76.3538 2.677 0.167
76.3743 2.875 0.173
76.3947 2.500 0.161
76.4152 2.927 0.175
76.4356 2.760 0.170
76.4561 2.531 0.162
76.4766 2.396 0.158
76.4970 2.646 0.166
76.5175 2.490 0.161
76.5380 2.521 0.162
76.5584 2.625 0.165
76.5789 2.375 0.157
76.5993 2.521 0.162
76.6198 2.646 0.166
76.6403 2.750 0.169
76.6607 2.708 0.168
76.6812 2.135 0.149
76.7017 2.531 0.162
76.7221 2.573 0.164
76.7426 2.729 0.169
76.7630 2.635 0.166
76.7835 2.906 0.174
76.8040 2.667 0.167
76.8244 2.458 0.160
76.8449 2.260 0.153
76.8654 2.552 0.163
76.8858 2.604 0.165
76.9063 2.531 0.162
76.9267 2.458 0.160
76.9472 2.406 0.158
76.9677 2.698 0.168
76.9881 2.604 0.165
77.0086 2.552 0.163
77.0291 2.313 0.155
77.0495 2.542 0.163
77.0700 2.573 0.164
77.0905 2.552 0.163
77.1109 2.563 0.163
77.1314 2.542 0.163
77.1518 2.677 0.167
77.1723 2.833 0.172
77.1928 3.021 0.177
77.2132 2.833 0.172
77.2337 2.510 0.162
77.2542 2.708 0.168
77.2746 2.646 0.166
77.2951 2.615 0.165
77.3155 2.802 0.171
77.3360 2.927 0.175
77.3565 2.792 0.171
77.3769 2.781 0.170
77.3974 2.677 0.167
77.4179 2.833 0.172
77.4383 3.219 0.183
77.4588 3.385 0.188
77.4792 3.323 0.186
77.4997 3.531 0.192
77.5202 3.802 0.199
77.5406 3.500 0.191
77.5611 3.604 0.194
77.5816 3.250 0.184
77.6020 3.052 0.178
77.6225 3.042 0.178
77.6429 3.240 0.184
77.6634 3.094 0.180
77.6839 3.198 0.183
77.7043 2.958 0.176
77.7248 3.646 0.195
77.7453 3.125 0.180
77.7657 3.406 0.188
77.7862 3.333 0.186
77.8066 3.135 0.181
77.8271 3.500 0.191
77.8476 3.448 0.190
77.8680 3.250 0.184
77.8885 3.010 0.177
77.9090 3.000 0.177
77.9294 3.042 0.178
77.9499 3.125 0.180
77.9704 3.292 0.185
77.9908 3.104 0.180
78.0113 2.729 0.169
78.0317 2.885 0.173
78.0522 2.646 0.166
78.0727 2.688 0.167
78.0931 3.250 0.184
78.1136 2.948 0.175
78.1341 2.688 0.167
78.1545 2.417 0.159
78.1750 2.938 0.175
78.1954 3.094 0.180
78.2159 2.729 0.169
78.2364 3.094 0.180
78.2568 2.802 0.171
78.2773 2.979 0.176
78.2978 2.938 0.175
78.3182 2.917 0.174
78.3387 2.854 0.172
78.3591 2.813 0.171
78.3796 2.865 0.173
78.4001 2.844 0.172
78.4205 3.052 0.178
78.4410 3.240 0.184
78.4615 3.000 0.177
78.4819 2.729 0.169
78.5024 2.917 0.174
78.5228 2.542 0.163
78.5433 2.781 0.170
78.5638 2.927 0.175
78.5842 2.854 0.172
78.6047 3.146 0.181
78.6252 2.760 0.170
78.6456 3.177 0.182
78.6661 3.135 0.181
78.6865 2.688 0.167
78.7070 2.885 0.173
78.7275 2.771 0.170
78.7479 2.896 0.174
78.7684 3.021 0.177
78.7889 2.844 0.172
78.8093 2.896 0.174
78.8298 2.833 0.172
78.8503 3.260 0.184
78.8707 3.188 0.182
78.8912 3.000 0.177
78.9116 3.177 0.182
78.9321 2.958 0.176
78.9526 3.365 0.187
78.9730 3.063 0.179
78.9935 3.115 0.180
79.0140 2.844 0.172
79.0344 2.771 0.170
79.0549 2.802 0.171
79.0753 2.875 0.173
79.0958 2.708 0.168
79.1163 3.177 0.182
79.1367 2.802 0.171
79.1572 3.135 0.181
79.1777 2.979 0.176
79.1981 2.760 0.170
79.2186 2.656 0.166
79.2390 2.729 0.169
79.2595 3.000 0.177
79.2800 2.990 0.176
79.3004 2.667 0.167
79.3209 2.729 0.169
79.3414 3.010 0.177
79.3618 2.917 0.174
79.3823 2.531 0.162
79.4027 2.760 0.170
79.4232 3.063 0.179
79.4437 2.938 0.175
79.4641 3.115 0.180
79.4846 3.167 0.182
79.5051 2.979 0.176
79.5255 3.250 0.184
79.5460 3.208 0.183
79.5664 3.427 0.189
79.5869 3.271 0.185
79.6074 3.010 0.177
79.6278 3.208 0.183
79.6483 2.906 0.174
79.6688 2.719 0.168
79.6892 3.115 0.180
79.7097 2.927 0.175
79.7302 2.833 0.172
79.7506 2.969 0.176
79.7711 2.771 0.170
79.7915 2.906 0.174
79.8120 2.865 0.173
79.8325 2.729 0.169
79.8529 2.729 0.169
79.8734 2.813 0.171
79.8939 2.990 0.176
79.9143 2.896 0.174
79.9348 2.750 0.169
79.9552 2.615 0.165
79.9757 2.698 0.168
79.9962 2.615 0.165
