'Id: "" Comment: "" Operator: "Lab Manager" Anode: "Cu" Scantype: "Locked Coupled" TimePerStep: "96" X: "0" Y: "0" Z: "0" 
5.0000 26.948 0.530
5.0205 26.042 0.521
5.0409 25.531 0.516
5.0614 26.073 0.521
5.0819 26.521 0.526
5.1023 25.615 0.517
5.1228 25.771 0.518
5.1432 25.604 0.516
5.1637 24.823 0.508
5.1842 24.656 0.507
5.2046 25.271 0.513
5.2251 26.000 0.520
5.2456 26.427 0.525
5.2660 25.854 0.519
5.2865 26.115 0.522
5.3069 25.208 0.512
5.3274 26.000 0.520
5.3479 24.844 0.509
5.3683 25.250 0.513
5.3888 24.104 0.501
5.4093 24.354 0.504
5.4297 25.927 0.520
5.4502 26.198 0.522
5.4706 24.135 0.501
5.4911 25.281 0.513
5.5116 24.427 0.504
5.5320 24.146 0.502
5.5525 24.354 0.504
5.5730 24.875 0.509
5.5934 24.542 0.506
5.6139 24.094 0.501
5.6343 24.135 0.501
5.6548 23.677 0.497
5.6753 24.823 0.508
5.6957 24.490 0.505
5.7162 24.115 0.501
5.7367 24.073 0.501
5.7571 24.479 0.505
5.7776 23.750 0.497
5.7980 23.313 0.493
5.8185 24.365 0.504
5.8390 23.979 0.500
5.8594 24.229 0.502
5.8799 23.375 0.493
5.9004 24.313 0.503
5.9208 23.396 0.494
5.9413 23.146 0.491
5.9618 23.500 0.495
5.9822 24.469 0.505
6.0027 23.448 0.494
6.0231 23.083 0.490
6.0436 24.052 0.501
6.0641 23.885 0.499
6.0845 23.083 0.490
6.1050 23.198 0.492
6.1255 22.844 0.488
6.1459 22.438 0.483
6.1664 23.667 0.497
6.1868 23.563 0.495
6.2073 23.063 0.490
6.2278 24.333 0.503
6.2482 23.813 0.498
6.2687 23.729 0.497
6.2892 24.208 0.502
6.3096 23.000 0.489
6.3301 22.927 0.489
6.3505 22.781 0.487
6.3710 23.344 0.493
6.3915 23.167 0.491
6.4119 23.083 0.490
6.4324 22.719 0.486
6.4529 24.146 0.502
6.4733 23.646 0.496
6.4938 24.063 0.501
6.5142 22.698 0.486
6.5347 23.490 0.495
6.5552 23.156 0.491
6.5756 22.583 0.485
6.5961 23.771 0.498
6.6166 22.531 0.484
6.6370 22.406 0.483
6.6575 23.323 0.493
6.6779 22.844 0.488
6.6984 23.010 0.490
6.7189 23.302 0.493
6.7393 23.521 0.495
6.7598 22.635 0.486
6.7803 22.573 0.485
6.8007 23.385 0.494
6.8212 22.573 0.485
6.8417 22.542 0.485
6.8621 22.844 0.488
6.8826 22.563 0.485
6.9030 22.208 0.481
6.9235 24.177 0.502
6.9440 24.865 0.509
6.9644 24.094 0.501
6.9849 24.021 0.500
7.0054 23.042 0.490
7.0258 22.417 0.483
7.0463 22.281 0.482
7.0667 23.677 0.497
7.0872 23.052 0.490
7.1077 22.688 0.486
7.1281 23.583 0.496
7.1486 23.365 0.493
7.1691 22.667 0.486
7.1895 23.729 0.497
7.2100 22.500 0.484
7.2304 23.979 0.500
7.2509 23.146 0.491
7.2714 22.938 0.489
7.2918 23.635 0.496
7.3123 23.313 0.493
7.3328 23.271 0.492
7.3532 23.177 0.491
7.3737 23.083 0.490
7.3941 23.344 0.493
7.4146 22.948 0.489
7.4351 22.375 0.483
7.4555 22.833 0.488
7.4760 23.729 0.497
7.4965 24.135 0.501
7.5169 24.229 0.502
7.5374 23.042 0.490
7.5579 23.708 0.497
7.5783 22.677 0.486
7.5988 23.917 0.499
7.6192 24.188 0.502
7.6397 23.750 0.497
7.6602 23.396 0.494
7.6806 24.313 0.503
7.7011 23.969 0.500
7.7216 24.573 0.506
7.7420 24.365 0.504
7.7625 23.479 0.495
7.7829 23.969 0.500
7.8034 24.135 0.501
7.8239 23.969 0.500
7.8443 24.094 0.501
7.8648 23.708 0.497
7.8853 22.385 0.483
7.9057 23.302 0.493
7.9262 24.438 0.505
7.9466 24.458 0.505
7.9671 23.948 0.499
7.9876 24.281 0.503
8.0080 24.292 0.503
8.0285 24.073 0.501
8.0490 23.698 0.497
8.0694 24.042 0.500
8.0899 23.906 0.499
8.1103 24.833 0.509
8.1308 23.990 0.500
8.1513 23.542 0.495
8.1717 24.458 0.505
8.1922 23.729 0.497
8.2127 24.250 0.503
8.2331 24.375 0.504
8.2536 25.198 0.512
8.2740 24.042 0.500
8.2945 24.802 0.508
8.3150 24.281 0.503
8.3354 24.521 0.505
8.3559 25.042 0.511
8.3764 24.490 0.505
8.3968 23.948 0.499
8.4173 23.656 0.496
8.4378 24.719 0.507
8.4582 24.688 0.507
8.4787 24.563 0.506
8.4991 24.021 0.500
8.5196 24.146 0.502
8.5401 25.479 0.515
8.5605 24.531 0.506
8.5810 23.948 0.499
8.6015 24.292 0.503
8.6219 24.188 0.502
8.6424 24.833 0.509
8.6628 24.771 0.508
8.6833 25.177 0.512
8.7038 25.958 0.520
8.7242 24.927 0.510
8.7447 24.573 0.506
8.7652 25.021 0.511
8.7856 26.656 0.527
8.8061 24.604 0.506
8.8265 25.385 0.514
8.8470 25.865 0.519
8.8675 26.792 0.528
8.8879 27.667 0.537
8.9084 27.115 0.531
8.9289 28.156 0.542
8.9493 27.990 0.540
8.9698 27.646 0.537
8.9902 27.385 0.534
9.0107 26.552 0.526
9.0312 27.677 0.537
9.0516 27.656 0.537
9.0721 27.677 0.537
9.0926 28.917 0.549
9.1130 28.833 0.548
9.1335 29.042 0.550
9.1539 30.313 0.562
9.1744 32.156 0.579
9.1949 32.583 0.583
9.2153 35.385 0.607
9.2358 37.302 0.623
9.2563 40.167 0.647
9.2767 43.688 0.675
9.2972 46.208 0.694
9.3177 48.948 0.714
9.3381 50.885 0.728
9.3586 51.083 0.729
9.3790 52.750 0.741
9.3995 53.833 0.749
9.4200 55.792 0.762
9.4404 57.271 0.772
9.4609 56.740 0.769
9.4814 60.656 0.795
9.5018 61.719 0.802
9.5223 66.771 0.834
9.5427 73.302 0.874
9.5632 78.521 0.904
9.5837 82.740 0.928
9.6041 91.510 0.976
9.6246 96.969 1.005
9.6451 104.958 1.046
9.6655 110.760 1.074
9.6860 123.250 1.133
9.7064 140.750 1.211
9.7269 164.198 1.308
9.7474 202.073 1.451
9.7678 258.240 1.640
9.7883 347.896 1.904
9.8088 483.688 2.245
9.8292 684.813 2.671
9.8497 981.240 3.197
9.8701 1345.135 3.743
9.8906 1413.115 3.837
9.9111 978.188 3.192
9.9315 496.594 2.274
9.9520 255.302 1.631
9.9725 154.010 1.267
9.9929 116.021 1.099
10.0134 96.667 1.003
10.0338 85.448 0.943
10.0543 78.260 0.903
10.0748 71.198 0.861
10.0952 67.333 0.837
10.1157 60.052 0.791
10.1362 53.521 0.747
10.1566 48.115 0.708
10.1771 43.427 0.673
10.1976 41.302 0.656
10.2180 40.000 0.645
10.2385 36.865 0.620
10.2589 36.125 0.613
10.2794 35.948 0.612
10.2999 34.177 0.597
10.3203 33.406 0.590
10.3408 34.135 0.596
10.3613 32.990 0.586
10.3817 31.792 0.575
10.4022 31.698 0.575
10.4226 33.156 0.588
10.4431 32.240 0.580
10.4636 30.208 0.561
10.4840 31.115 0.569
10.5045 29.854 0.558
10.5250 30.354 0.562
10.5454 30.031 0.559
10.5659 29.385 0.553
10.5863 29.823 0.557
10.6068 29.427 0.554
10.6273 27.823 0.538
10.6477 29.052 0.550
10.6682 28.438 0.544
10.6887 28.115 0.541
10.7091 28.510 0.545
10.7296 28.240 0.542
10.7500 27.938 0.539
10.7705 27.479 0.535
10.7910 27.594 0.536
10.8114 27.854 0.539
10.8319 27.073 0.531
10.8524 26.917 0.530
10.8728 26.240 0.523
10.8933 26.313 0.524
10.9137 25.313 0.513
10.9342 25.792 0.518
10.9547 26.146 0.522
10.9751 25.927 0.520
10.9956 26.104 0.521
11.0161 25.927 0.520
11.0365 25.365 0.514
11.0570 25.115 0.511
11.0775 25.188 0.512
11.0979 24.000 0.500
11.1184 23.875 0.499
11.1388 25.208 0.512
11.1593 23.688 0.497
11.1798 24.156 0.502
11.2002 23.729 0.497
11.2207 23.563 0.495
11.2412 23.708 0.497
11.2616 23.458 0.494
11.2821 23.427 0.494
11.3025 22.698 0.486
11.3230 23.688 0.497
11.3435 23.708 0.497
11.3639 22.813 0.487
11.3844 22.948 0.489
11.4049 22.115 0.480
11.4253 22.260 0.482
11.4458 22.135 0.480
11.4662 23.083 0.490
11.4867 22.271 0.482
11.5072 21.573 0.474
11.5276 22.365 0.483
11.5481 21.604 0.474
11.5686 22.396 0.483
11.5890 21.427 0.472
11.6095 21.500 0.473
11.6299 22.438 0.483
11.6504 21.865 0.477
11.6709 21.938 0.478
11.6913 22.938 0.489
11.7118 21.906 0.478
11.7323 21.354 0.472
11.7527 20.760 0.465
11.7732 19.823 0.454
11.7937 20.208 0.459
11.8141 19.656 0.452
11.8346 20.021 0.457
11.8550 19.240 0.448
11.8755 19.156 0.447
11.8960 19.677 0.453
11.9164 19.448 0.450
11.9369 18.427 0.438
11.9574 18.917 0.444
11.9778 19.208 0.447
11.9983 19.219 0.447
12.0187 18.531 0.439
12.0392 18.042 0.434
12.0597 18.896 0.444
12.0801 17.938 0.432
12.1006 18.104 0.434
12.1211 18.292 0.437
12.1415 17.479 0.427
12.1620 17.021 0.421
12.1824 17.698 0.429
12.2029 17.323 0.425
12.2234 17.313 0.425
12.2438 18.094 0.434
12.2643 17.635 0.429
12.2848 16.875 0.419
12.3052 17.396 0.426
12.3257 17.417 0.426
12.3461 16.948 0.420
12.3666 16.458 0.414
12.3871 17.396 0.426
12.4075 16.823 0.419
12.4280 16.958 0.420
12.4485 15.917 0.407
12.4689 16.281 0.412
12.4894 15.542 0.402
12.5098 16.073 0.409
12.5303 15.813 0.406
12.5508 16.135 0.410
12.5712 15.802 0.406
12.5917 15.760 0.405
12.6122 15.667 0.404
12.6326 15.021 0.396
12.6531 15.615 0.403
12.6736 15.719 0.405
12.6940 16.073 0.409
12.7145 15.344 0.400
12.7349 15.240 0.398
12.7554 15.135 0.397
12.7759 14.844 0.393
12.7963 14.750 0.392
12.8168 15.313 0.399
12.8373 15.885 0.407
12.8577 14.896 0.394
12.8782 14.927 0.394
12.8986 14.615 0.390
12.9191 13.938 0.381
12.9396 14.406 0.387
12.9600 14.167 0.384
12.9805 13.896 0.380
13.0010 14.656 0.391
13.0214 14.375 0.387
13.0419 13.958 0.381
13.0623 14.479 0.388
13.0828 13.760 0.379
13.1033 13.667 0.377
13.1237 13.896 0.380
13.1442 13.573 0.376
13.1647 13.438 0.374
13.1851 13.792 0.379
13.2056 12.865 0.366
13.2260 13.021 0.368
13.2465 13.500 0.375
13.2670 13.375 0.373
13.2874 12.729 0.364
13.3079 13.042 0.369
13.3284 13.448 0.374
13.3488 13.750 0.378
13.3693 13.646 0.377
13.3897 13.708 0.378
13.4102 13.646 0.377
13.4307 13.594 0.376
13.4511 13.292 0.372
13.4716 12.573 0.362
13.4921 13.115 0.370
13.5125 13.063 0.369
13.5330 12.490 0.361
13.5535 12.927 0.367
13.5739 12.448 0.360
13.5944 12.542 0.361
13.6148 12.573 0.362
13.6353 11.865 0.352
13.6558 12.396 0.359
13.6762 12.052 0.354
13.6967 12.573 0.362
13.7172 11.552 0.347
13.7376 11.219 0.342
13.7581 11.844 0.351
13.7785 12.094 0.355
13.7990 11.854 0.351
13.8195 12.167 0.356
13.8399 11.573 0.347
13.8604 11.906 0.352
13.8809 11.958 0.353
13.9013 11.500 0.346
13.9218 10.938 0.338
13.9422 11.302 0.343
13.9627 11.906 0.352
13.9832 11.271 0.343
14.0036 11.833 0.351
14.0241 11.490 0.346
14.0446 11.542 0.347
14.0650 11.260 0.342
14.0855 10.688 0.334
14.1059 11.219 0.342
14.1264 11.375 0.344
14.1469 11.427 0.345
14.1673 11.719 0.349
14.1878 11.031 0.339
14.2083 11.667 0.349
14.2287 10.813 0.336
14.2492 11.406 0.345
14.2696 10.885 0.337
14.2901 10.510 0.331
14.3106 10.740 0.334
14.3310 11.438 0.345
14.3515 11.323 0.343
14.3720 11.406 0.345
14.3924 11.521 0.346
14.4129 10.594 0.332
14.4334 11.417 0.345
14.4538 10.708 0.334
14.4743 11.135 0.341
14.4947 10.677 0.333
14.5152 10.771 0.335
14.5357 11.229 0.342
14.5561 10.406 0.329
14.5766 11.052 0.339
14.5971 10.698 0.334
14.6175 10.792 0.335
14.6380 10.708 0.334
14.6584 10.125 0.325
14.6789 10.677 0.333
14.6994 10.313 0.328
14.7198 10.385 0.329
14.7403 10.521 0.331
14.7608 10.385 0.329
14.7812 10.885 0.337
14.8017 10.344 0.328
14.8221 10.677 0.333
14.8426 9.719 0.318
14.8631 10.281 0.327
14.8835 10.500 0.331
14.9040 9.938 0.322
14.9245 9.729 0.318
14.9449 10.406 0.329
14.9654 10.490 0.331
14.9858 10.583 0.332
15.0063 10.115 0.325
15.0268 10.344 0.328
15.0472 9.615 0.316
15.0677 10.135 0.325
15.0882 9.906 0.321
15.1086 9.958 0.322
15.1291 10.073 0.324
15.1495 9.583 0.316
15.1700 10.198 0.326
15.1905 9.979 0.322
15.2109 10.094 0.324
15.2314 10.323 0.328
15.2519 9.521 0.315
15.2723 9.854 0.320
15.2928 10.000 0.323
15.3133 10.229 0.326
15.3337 9.865 0.321
15.3542 9.573 0.316
15.3746 9.854 0.320
15.3951 9.417 0.313
15.4156 9.750 0.319
15.4360 9.583 0.316
15.4565 10.125 0.325
15.4770 9.125 0.308
15.4974 9.448 0.314
15.5179 9.729 0.318
15.5383 9.667 0.317
15.5588 9.448 0.314
15.5793 9.667 0.317
15.5997 10.240 0.327
15.6202 9.688 0.318
15.6407 9.958 0.322
15.6611 9.323 0.312
15.6816 9.292 0.311
15.7020 9.448 0.314
15.7225 9.448 0.314
15.7430 8.854 0.304
15.7634 9.448 0.314
15.7839 8.854 0.304
15.8044 9.938 0.322
15.8248 9.792 0.319
15.8453 9.677 0.317
15.8657 9.417 0.313
15.8862 9.781 0.319
15.9067 9.427 0.313
15.9271 9.656 0.317
15.9476 8.896 0.304
15.9681 9.146 0.309
15.9885 8.990 0.306
16.0090 8.854 0.304
16.0295 9.875 0.321
16.0499 9.260 0.311
16.0704 9.563 0.316
16.0908 9.260 0.311
16.1113 8.927 0.305
16.1318 9.844 0.320
16.1522 9.427 0.313
16.1727 9.229 0.310
16.1932 9.615 0.316
16.2136 9.490 0.314
16.2341 9.000 0.306
16.2545 9.635 0.317
16.2750 8.823 0.303
16.2955 8.927 0.305
16.3159 9.188 0.309
16.3364 9.188 0.309
16.3569 8.823 0.303
16.3773 9.302 0.311
16.3978 9.219 0.310
16.4182 9.646 0.317
16.4387 9.438 0.314
16.4592 9.625 0.317
16.4796 9.583 0.316
16.5001 9.292 0.311
16.5206 8.865 0.304
16.5410 9.281 0.311
16.5615 9.427 0.313
16.5819 9.271 0.311
16.6024 9.438 0.314
16.6229 8.740 0.302
16.6433 8.865 0.304
16.6638 8.875 0.304
16.6843 9.313 0.311
16.7047 9.052 0.307
16.7252 8.708 0.301
16.7456 9.167 0.309
16.7661 8.802 0.303
16.7866 9.073 0.307
16.8070 8.927 0.305
16.8275 8.531 0.298
16.8480 9.208 0.310
16.8684 9.063 0.307
16.8889 9.104 0.308
16.9094 9.063 0.307
16.9298 8.677 0.301
16.9503 9.198 0.310
16.9707 9.438 0.314
16.9912 9.156 0.309
17.0117 8.625 0.300
17.0321 9.177 0.309
17.0526 8.458 0.297
17.0731 8.948 0.305
17.0935 8.771 0.302
17.1140 9.188 0.309
17.1344 9.406 0.313
17.1549 8.750 0.302
17.1754 9.115 0.308
17.1958 9.396 0.313
17.2163 9.354 0.312
17.2368 10.167 0.325
17.2572 9.813 0.320
17.2777 10.552 0.332
17.2981 10.844 0.336
17.3186 11.708 0.349
17.3391 10.406 0.329
17.3595 11.177 0.341
17.3800 11.313 0.343
17.4005 10.688 0.334
17.4209 9.531 0.315
17.4414 9.375 0.313
17.4618 9.427 0.313
17.4823 9.604 0.316
17.5028 9.083 0.308
17.5232 9.323 0.312
17.5437 9.865 0.321
17.5642 10.083 0.324
17.5846 10.240 0.327
17.6051 9.385 0.313
17.6255 9.625 0.317
17.6460 9.271 0.311
17.6665 9.760 0.319
17.6869 9.115 0.308
17.7074 9.938 0.322
17.7279 9.667 0.317
17.7483 9.896 0.321
17.7688 10.042 0.323
17.7893 10.792 0.335
17.8097 11.646 0.348
17.8302 11.594 0.348
17.8506 11.354 0.344
17.8711 12.104 0.355
17.8916 12.885 0.366
17.9120 13.188 0.371
17.9325 13.573 0.376
17.9530 13.010 0.368
17.9734 14.333 0.386
17.9939 15.917 0.407
18.0143 17.354 0.425
18.0348 19.969 0.456
18.0553 23.240 0.492
18.0757 24.490 0.505
18.0962 24.115 0.501
18.1167 24.010 0.500
18.1371 24.260 0.503
18.1576 24.563 0.506
18.1780 27.729 0.537
18.1985 32.854 0.585
18.2190 39.344 0.640
18.2394 49.198 0.716
18.2599 59.896 0.790
18.2804 67.208 0.837
18.3008 72.542 0.869
18.3213 69.625 0.852
18.3417 60.250 0.792
18.3622 51.813 0.735
18.3827 43.188 0.671
18.4031 36.833 0.619
18.4236 33.771 0.593
18.4441 31.406 0.572
18.4645 28.948 0.549
18.4850 27.813 0.538
18.5054 26.844 0.529
18.5259 26.177 0.522
18.5464 25.490 0.515
18.5668 24.396 0.504
18.5873 24.396 0.504
18.6078 24.635 0.507
18.6282 22.813 0.487
18.6487 23.302 0.493
18.6692 22.979 0.489
18.6896 23.094 0.490
18.7101 22.240 0.481
18.7305 22.521 0.484
18.7510 23.458 0.494
18.7715 22.969 0.489
18.7919 22.156 0.480
18.8124 22.042 0.479
18.8329 21.490 0.473
18.8533 19.646 0.452
18.8738 18.844 0.443
18.8942 17.208 0.423
18.9147 16.354 0.413
18.9352 17.083 0.422
18.9556 17.010 0.421
18.9761 16.240 0.411
18.9966 15.865 0.407
19.0170 15.833 0.406
19.0375 14.750 0.392
19.0579 15.698 0.404
19.0784 15.698 0.404
19.0989 16.177 0.411
19.1193 16.208 0.411
19.1398 16.229 0.411
19.1603 15.813 0.406
19.1807 16.323 0.412
19.2012 16.240 0.411
19.2216 17.146 0.423
19.2421 16.646 0.416
19.2626 17.583 0.428
19.2830 17.406 0.426
19.3035 17.271 0.424
19.3240 17.698 0.429
19.3444 17.271 0.424
19.3649 17.594 0.428
19.3853 18.667 0.441
19.4058 18.781 0.442
19.4263 20.031 0.457
19.4467 19.958 0.456
19.4672 20.521 0.462
19.4877 23.250 0.492
19.5081 23.375 0.493
19.5286 25.771 0.518
19.5491 27.302 0.533
19.5695 29.260 0.552
19.5900 31.594 0.574
19.6104 33.479 0.591
19.6309 37.510 0.625
19.6514 39.865 0.644
19.6718 46.073 0.693
19.6923 55.510 0.760
19.7128 69.490 0.851
19.7332 91.271 0.975
19.7537 127.635 1.153
19.7741 193.083 1.418
19.7946 294.573 1.752
19.8151 415.854 2.081
19.8355 429.281 2.115
19.8560 316.208 1.815
19.8765 260.219 1.646
19.8969 164.469 1.309
19.9174 92.094 0.979
19.9378 60.740 0.795
19.9583 46.875 0.699
19.9788 39.750 0.643
19.9992 33.781 0.593
20.0197 31.427 0.572
20.0402 30.125 0.560
20.0606 26.906 0.529
20.0811 25.396 0.514
20.1015 23.583 0.496
20.1220 22.552 0.485
20.1425 20.677 0.464
20.1629 21.948 0.478
20.1834 23.760 0.497
20.2039 26.208 0.522
20.2243 28.125 0.541
20.2448 32.406 0.581
20.2653 35.490 0.608
20.2857 36.323 0.615
20.3062 36.229 0.614
20.3266 34.573 0.600
20.3471 31.969 0.577
20.3676 28.010 0.540
20.3880 24.958 0.510
20.4085 24.958 0.510
20.4290 24.823 0.508
20.4494 23.333 0.493
20.4699 22.854 0.488
20.4903 23.656 0.496
20.5108 25.156 0.512
20.5313 24.229 0.502
20.5517 23.521 0.495
20.5722 21.719 0.476
20.5927 20.573 0.463
20.6131 18.010 0.433
20.6336 16.740 0.418
20.6540 15.438 0.401
20.6745 14.521 0.389
20.6950 12.854 0.366
20.7154 12.823 0.365
20.7359 11.917 0.352
20.7564 11.510 0.346
20.7768 11.302 0.343
20.7973 10.875 0.337
20.8177 11.573 0.347
20.8382 11.177 0.341
20.8587 11.229 0.342
20.8791 10.302 0.328
20.8996 10.438 0.330
20.9201 10.406 0.329
20.9405 11.208 0.342
20.9610 10.271 0.327
20.9814 10.823 0.336
21.0019 10.719 0.334
21.0224 10.458 0.330
21.0428 10.750 0.335
21.0633 10.490 0.331
21.0838 10.729 0.334
21.1042 10.375 0.329
21.1247 10.365 0.329
21.1452 10.135 0.325
21.1656 10.063 0.324
21.1861 10.260 0.327
21.2065 10.156 0.325
21.2270 9.958 0.322
21.2475 9.771 0.319
21.2679 10.323 0.328
21.2884 9.635 0.317
21.3089 10.167 0.325
21.3293 9.917 0.321
21.3498 10.781 0.335
21.3702 9.906 0.321
21.3907 10.052 0.324
21.4112 10.833 0.336
21.4316 9.854 0.320
21.4521 10.563 0.332
21.4726 9.250 0.310
21.4930 10.135 0.325
21.5135 9.729 0.318
21.5339 9.552 0.315
21.5544 10.188 0.326
21.5749 9.896 0.321
21.5953 10.490 0.331
21.6158 9.677 0.317
21.6363 10.156 0.325
21.6567 9.063 0.307
21.6772 10.219 0.326
21.6976 9.563 0.316
21.7181 10.146 0.325
21.7386 9.427 0.313
21.7590 9.625 0.317
21.7795 10.219 0.326
21.8000 9.635 0.317
21.8204 10.563 0.332
21.8409 10.625 0.333
21.8613 10.490 0.331
21.8818 10.667 0.333
21.9023 11.365 0.344
21.9227 11.042 0.339
21.9432 11.688 0.349
21.9637 11.823 0.351
21.9841 13.323 0.373
22.0046 14.021 0.382
22.0251 15.448 0.401
22.0455 17.271 0.424
22.0660 19.490 0.451
22.0864 24.292 0.503
22.1069 32.792 0.584
22.1274 47.927 0.707
22.1478 67.969 0.841
22.1683 87.479 0.955
22.1888 91.781 0.978
22.2092 74.656 0.882
22.2297 63.490 0.813
22.2501 49.271 0.716
22.2706 34.000 0.595
22.2911 24.823 0.508
22.3115 20.188 0.459
22.3320 16.896 0.420
22.3525 15.552 0.402
22.3729 15.104 0.397
22.3934 14.208 0.385
22.4138 13.667 0.377
22.4343 13.000 0.368
22.4548 12.198 0.356
22.4752 11.698 0.349
22.4957 10.677 0.333
22.5162 10.823 0.336
22.5366 10.302 0.328
22.5571 10.271 0.327
22.5775 10.365 0.329
22.5980 10.292 0.327
22.6185 9.833 0.320
22.6389 9.698 0.318
22.6594 10.073 0.324
22.6799 10.229 0.326
22.7003 9.271 0.311
22.7208 9.219 0.310
22.7412 9.885 0.321
22.7617 9.292 0.311
22.7822 9.646 0.317
22.8026 10.010 0.323
22.8231 9.146 0.309
22.8436 9.813 0.320
22.8640 9.146 0.309
22.8845 9.490 0.314
22.9050 8.979 0.306
22.9254 9.563 0.316
22.9459 8.500 0.298
22.9663 8.594 0.299
22.9868 9.323 0.312
23.0073 9.333 0.312
23.0277 9.552 0.315
23.0482 9.563 0.316
23.0687 8.781 0.302
23.0891 8.823 0.303
23.1096 8.490 0.297
23.1300 9.083 0.308
23.1505 9.031 0.307
23.1710 8.604 0.299
23.1914 9.125 0.308
23.2119 8.667 0.300
23.2324 8.792 0.303
23.2528 8.823 0.303
23.2733 9.042 0.307
23.2937 8.885 0.304
23.3142 8.333 0.295
23.3347 8.760 0.302
23.3551 8.427 0.296
23.3756 8.792 0.303
23.3961 8.604 0.299
23.4165 8.760 0.302
23.4370 8.281 0.294
23.4574 8.760 0.302
23.4779 8.406 0.296
23.4984 9.344 0.312
23.5188 9.219 0.310
23.5393 8.438 0.296
23.5598 8.865 0.304
23.5802 9.000 0.306
23.6007 9.052 0.307
23.6211 9.156 0.309
23.6416 8.833 0.303
23.6621 8.802 0.303
23.6825 8.927 0.305
23.7030 8.719 0.301
23.7235 8.344 0.295
23.7439 7.979 0.288
23.7644 7.917 0.287
23.7849 7.677 0.283
23.8053 7.740 0.284
23.8258 7.344 0.277
23.8462 7.833 0.286
23.8667 7.604 0.281
23.8872 7.458 0.279
23.9076 7.698 0.283
23.9281 8.292 0.294
23.9486 7.573 0.281
23.9690 7.219 0.274
23.9895 7.333 0.276
24.0099 8.063 0.290
24.0304 7.604 0.281
24.0509 7.938 0.288
24.0713 7.875 0.286
24.0918 7.875 0.286
24.1123 8.000 0.289
24.1327 8.000 0.289
24.1532 7.844 0.286
24.1736 8.344 0.295
24.1941 8.125 0.291
24.2146 9.052 0.307
24.2350 9.219 0.310
24.2555 10.167 0.325
24.2760 11.958 0.353
24.2964 13.990 0.382
24.3169 15.948 0.408
24.3373 15.635 0.404
24.3578 13.490 0.375
24.3783 12.813 0.365
24.3987 11.115 0.340
24.4192 9.708 0.318
24.4397 8.896 0.304
24.4601 9.229 0.310
24.4806 7.906 0.287
24.5011 7.740 0.284
24.5215 7.823 0.285
24.5420 7.563 0.281
24.5624 7.927 0.287
24.5829 7.854 0.286
24.6034 7.406 0.278
24.6238 7.833 0.286
24.6443 7.385 0.277
24.6648 7.146 0.273
24.6852 7.469 0.279
24.7057 7.177 0.273
24.7261 7.323 0.276
24.7466 7.542 0.280
24.7671 7.469 0.279
24.7875 7.323 0.276
24.8080 7.219 0.274
24.8285 7.250 0.275
24.8489 7.479 0.279
24.8694 7.823 0.285
24.8898 7.427 0.278
24.9103 7.042 0.271
24.9308 7.042 0.271
24.9512 7.396 0.278
24.9717 7.625 0.282
24.9922 6.802 0.266
25.0126 7.500 0.280
25.0331 7.229 0.274
25.0535 6.760 0.265
25.0740 7.396 0.278
25.0945 7.385 0.277
25.1149 7.031 0.271
25.1354 6.719 0.265
25.1559 6.844 0.267
25.1763 6.990 0.270
25.1968 6.990 0.270
25.2172 6.844 0.267
25.2377 6.635 0.263
25.2582 6.917 0.268
25.2786 6.531 0.261
25.2991 6.969 0.269
25.3196 7.323 0.276
25.3400 7.167 0.273
25.3605 7.021 0.270
25.3810 6.573 0.262
25.4014 7.000 0.270
25.4219 6.854 0.267
25.4423 7.406 0.278
25.4628 7.313 0.276
25.4833 7.010 0.270
25.5037 6.792 0.266
25.5242 6.542 0.261
25.5447 7.167 0.273
25.5651 6.552 0.261
25.5856 7.229 0.274
25.6060 6.969 0.269
25.6265 6.813 0.266
25.6470 7.021 0.270
25.6674 6.927 0.269
25.6879 7.333 0.276
25.7084 6.875 0.268
25.7288 6.927 0.269
25.7493 7.323 0.276
25.7697 7.052 0.271
25.7902 7.135 0.273
25.8107 7.073 0.271
25.8311 7.344 0.277
25.8516 6.802 0.266
25.8721 7.000 0.270
25.8925 6.500 0.260
25.9130 7.521 0.280
25.9334 6.750 0.265
25.9539 6.833 0.267
25.9744 7.125 0.272
25.9948 7.281 0.275
26.0153 7.344 0.277
26.0358 6.740 0.265
26.0562 6.792 0.266
26.0767 6.833 0.267
26.0971 6.792 0.266
26.1176 6.729 0.265
26.1381 6.927 0.269
26.1585 7.052 0.271
26.1790 7.115 0.272
26.1995 6.583 0.262
26.2199 6.927 0.269
26.2404 7.281 0.275
26.2609 7.469 0.279
26.2813 7.208 0.274
26.3018 7.698 0.283
26.3222 7.604 0.281
26.3427 8.063 0.290
26.3632 8.135 0.291
26.3836 7.896 0.287
26.4041 8.448 0.297
26.4246 7.896 0.287
26.4450 8.552 0.298
26.4655 8.875 0.304
26.4859 9.042 0.307
26.5064 8.802 0.303
26.5269 9.490 0.314
26.5473 9.333 0.312
26.5678 8.990 0.306
26.5883 9.115 0.308
26.6087 8.760 0.302
26.6292 9.281 0.311
26.6496 8.813 0.303
26.6701 8.917 0.305
26.6906 8.417 0.296
26.7110 8.958 0.305
26.7315 8.854 0.304
26.7520 9.104 0.308
26.7724 9.344 0.312
26.7929 8.969 0.306
26.8133 9.490 0.314
26.8338 9.802 0.320
26.8543 9.781 0.319
26.8747 10.260 0.327
26.8952 10.333 0.328
26.9157 10.240 0.327
26.9361 9.615 0.316
26.9566 9.354 0.312
26.9770 9.604 0.316
26.9975 8.396 0.296
27.0180 7.969 0.288
27.0384 8.396 0.296
27.0589 7.552 0.280
27.0794 8.042 0.289
27.0998 7.667 0.283
27.1203 7.281 0.275
27.1408 7.427 0.278
27.1612 7.531 0.280
27.1817 7.031 0.271
27.2021 7.156 0.273
27.2226 7.104 0.272
27.2431 7.042 0.271
27.2635 7.219 0.274
27.2840 6.906 0.268
27.3045 6.594 0.262
27.3249 6.729 0.265
27.3454 7.167 0.273
27.3658 6.865 0.267
27.3863 7.250 0.275
27.4068 6.677 0.264
27.4272 6.917 0.268
27.4477 7.260 0.275
27.4682 6.875 0.268
27.4886 6.719 0.265
27.5091 7.000 0.270
27.5295 7.073 0.271
27.5500 6.979 0.270
27.5705 7.135 0.273
27.5909 7.729 0.284
27.6114 7.781 0.285
27.6319 7.156 0.273
27.6523 7.708 0.283
27.6728 7.573 0.281
27.6932 7.094 0.272
27.7137 7.667 0.283
27.7342 7.729 0.284
27.7546 7.865 0.286
27.7751 8.198 0.292
27.7956 8.073 0.290
27.8160 7.917 0.287
27.8365 8.510 0.298
27.8569 8.156 0.291
27.8774 8.719 0.301
27.8979 8.344 0.295
27.9183 9.115 0.308
27.9388 9.573 0.316
27.9593 8.990 0.306
27.9797 9.219 0.310
28.0002 9.583 0.316
28.0207 9.844 0.320
28.0411 9.833 0.320
28.0616 9.042 0.307
28.0820 8.375 0.295
28.1025 8.458 0.297
28.1230 7.688 0.283
28.1434 7.750 0.284
28.1639 7.667 0.283
28.1844 7.594 0.281
28.2048 7.688 0.283
28.2253 7.344 0.277
28.2457 7.302 0.276
28.2662 7.208 0.274
28.2867 6.708 0.264
28.3071 7.292 0.276
28.3276 6.615 0.262
28.3481 6.719 0.265
28.3685 6.385 0.258
28.3890 7.052 0.271
28.4094 6.990 0.270
28.4299 7.198 0.274
28.4504 7.219 0.274
28.4708 7.469 0.279
28.4913 7.552 0.280
28.5118 7.344 0.277
28.5322 7.354 0.277
28.5527 7.646 0.282
28.5731 6.844 0.267
28.5936 6.781 0.266
28.6141 8.000 0.289
28.6345 7.406 0.278
28.6550 7.385 0.277
28.6755 7.448 0.279
28.6959 7.250 0.275
28.7164 7.521 0.280
28.7368 7.448 0.279
28.7573 6.865 0.267
28.7778 7.344 0.277
28.7982 6.344 0.257
28.8187 7.250 0.275
28.8392 6.938 0.269
28.8596 6.802 0.266
28.8801 6.865 0.267
28.9006 6.854 0.267
28.9210 6.656 0.263
28.9415 6.198 0.254
28.9619 6.010 0.250
28.9824 6.469 0.260
29.0029 6.417 0.259
29.0233 6.406 0.258
29.0438 6.323 0.257
29.0643 6.010 0.250
29.0847 6.500 0.260
29.1052 6.167 0.253
29.1256 6.031 0.251
29.1461 6.427 0.259
29.1666 6.563 0.261
29.1870 6.021 0.250
29.2075 6.760 0.265
29.2280 6.052 0.251
29.2484 6.563 0.261
29.2689 6.271 0.256
29.2893 6.740 0.265
29.3098 6.917 0.268
29.3303 7.250 0.275
29.3507 6.938 0.269
29.3712 6.917 0.268
29.3917 7.198 0.274
29.4121 6.198 0.254
29.4326 6.125 0.253
29.4530 6.313 0.256
29.4735 6.344 0.257
29.4940 6.323 0.257
29.5144 6.000 0.250
29.5349 6.583 0.262
29.5554 6.208 0.254
29.5758 6.406 0.258
29.5963 6.302 0.256
29.6168 6.188 0.254
29.6372 6.219 0.255
29.6577 6.146 0.253
29.6781 6.156 0.253
29.6986 6.677 0.264
29.7191 6.302 0.256
29.7395 6.354 0.257
29.7600 6.125 0.253
29.7805 5.771 0.245
29.8009 5.948 0.249
29.8214 6.219 0.255
29.8418 6.219 0.255
29.8623 6.063 0.251
29.8828 6.260 0.255
29.9032 6.813 0.266
29.9237 6.396 0.258
29.9442 6.708 0.264
29.9646 5.917 0.248
29.9851 6.563 0.261
30.0055 6.146 0.253
30.0260 6.563 0.261
30.0465 5.615 0.242
30.0669 5.854 0.247
30.0874 5.885 0.248
30.1079 5.708 0.244
30.1283 5.948 0.249
30.1488 5.969 0.249
30.1692 6.385 0.258
30.1897 6.135 0.253
30.2102 6.240 0.255
30.2306 5.688 0.243
30.2511 5.698 0.244
30.2716 6.135 0.253
30.2920 6.344 0.257
30.3125 6.219 0.255
30.3329 5.583 0.241
30.3534 5.792 0.246
30.3739 5.844 0.247
30.3943 5.542 0.240
30.4148 5.417 0.238
30.4353 6.156 0.253
30.4557 5.813 0.246
30.4762 5.729 0.244
30.4967 5.563 0.241
30.5171 6.188 0.254
30.5376 6.115 0.252
30.5580 5.781 0.245
30.5785 6.021 0.250
30.5990 6.156 0.253
30.6194 6.010 0.250
30.6399 6.229 0.255
30.6604 6.490 0.260
30.6808 6.594 0.262
30.7013 6.510 0.260
30.7217 6.656 0.263
30.7422 6.792 0.266
30.7627 6.948 0.269
30.7831 7.354 0.277
30.8036 7.490 0.279
30.8241 8.010 0.289
30.8445 8.271 0.294
30.8650 8.490 0.297
30.8854 10.052 0.324
30.9059 11.833 0.351
30.9264 14.375 0.387
30.9468 19.938 0.456
30.9673 29.469 0.554
30.9878 45.583 0.689
31.0082 60.667 0.795
31.0287 60.115 0.791
31.0491 44.188 0.678
31.0696 39.844 0.644
31.0901 39.052 0.638
31.1105 32.427 0.581
31.1310 21.917 0.478
31.1515 14.375 0.387
31.1719 10.635 0.333
31.1924 9.094 0.308
31.2128 8.302 0.294
31.2333 8.052 0.290
31.2538 7.385 0.277
31.2742 6.833 0.267
31.2947 6.615 0.262
31.3152 6.594 0.262
31.3356 6.563 0.261
31.3561 6.063 0.251
31.3766 6.083 0.252
31.3970 6.281 0.256
31.4175 6.052 0.251
31.4379 6.344 0.257
31.4584 6.323 0.257
31.4789 5.552 0.240
31.4993 5.854 0.247
31.5198 6.125 0.253
31.5403 6.448 0.259
31.5607 5.875 0.247
31.5812 6.063 0.251
31.6016 6.115 0.252
31.6221 5.719 0.244
31.6426 5.969 0.249
31.6630 6.323 0.257
31.6835 5.885 0.248
31.7040 5.833 0.247
31.7244 5.979 0.250
31.7449 6.479 0.260
31.7653 6.365 0.257
31.7858 6.604 0.262
31.8063 6.281 0.256
31.8267 6.500 0.260
31.8472 6.927 0.269
31.8677 6.531 0.261
31.8881 7.063 0.271
31.9086 7.010 0.270
31.9290 7.115 0.272
31.9495 7.865 0.286
31.9700 7.052 0.271
31.9904 7.354 0.277
32.0109 7.771 0.285
32.0314 8.594 0.299
32.0518 9.188 0.309
32.0723 9.969 0.322
32.0927 11.844 0.351
32.1132 11.365 0.344
32.1337 10.167 0.325
32.1541 9.615 0.316
32.1746 9.281 0.311
32.1951 8.542 0.298
32.2155 8.552 0.298
32.2360 6.990 0.270
32.2565 7.344 0.277
32.2769 6.573 0.262
32.2974 6.896 0.268
32.3178 6.344 0.257
32.3383 6.563 0.261
32.3588 6.979 0.270
32.3792 7.094 0.272
32.3997 7.125 0.272
32.4202 7.667 0.283
32.4406 7.844 0.286
32.4611 9.219 0.310
32.4815 9.240 0.310
32.5020 10.042 0.323
32.5225 12.000 0.354
32.5429 13.771 0.379
32.5634 17.021 0.421
32.5839 22.854 0.488
32.6043 28.667 0.546
32.6248 31.010 0.568
32.6452 25.552 0.516
32.6657 20.292 0.460
32.6862 19.208 0.447
32.7066 19.396 0.449
32.7271 15.240 0.398
32.7476 11.167 0.341
32.7680 8.646 0.300
32.7885 8.208 0.292
32.8089 7.698 0.283
32.8294 7.156 0.273
32.8499 6.396 0.258
32.8703 6.594 0.262
32.8908 6.917 0.268
32.9113 6.260 0.255
32.9317 6.167 0.253
32.9522 5.969 0.249
32.9726 6.448 0.259
32.9931 6.125 0.253
33.0136 6.271 0.256
33.0340 5.896 0.248
33.0545 5.625 0.242
33.0750 6.052 0.251
33.0954 6.104 0.252
33.1159 5.865 0.247
33.1364 5.823 0.246
33.1568 5.698 0.244
33.1773 5.906 0.248
33.1977 5.979 0.250
33.2182 5.531 0.240
33.2387 5.604 0.242
33.2591 5.969 0.249
33.2796 5.917 0.248
33.3001 5.917 0.248
33.3205 5.948 0.249
33.3410 5.760 0.245
33.3614 6.146 0.253
33.3819 5.969 0.249
33.4024 5.448 0.238
33.4228 5.469 0.239
33.4433 5.927 0.248
33.4638 5.521 0.240
33.4842 5.646 0.243
33.5047 6.229 0.255
33.5251 5.938 0.249
33.5456 5.698 0.244
33.5661 5.073 0.230
33.5865 5.313 0.235
33.6070 5.688 0.243
33.6275 5.240 0.234
33.6479 5.490 0.239
33.6684 5.542 0.240
33.6888 6.219 0.255
33.7093 5.594 0.241
33.7298 5.406 0.237
33.7502 5.594 0.241
33.7707 6.063 0.251
33.7912 5.521 0.240
33.8116 5.458 0.238
33.8321 5.240 0.234
33.8526 5.375 0.237
33.8730 5.969 0.249
33.8935 5.740 0.245
33.9139 5.448 0.238
33.9344 5.760 0.245
33.9549 5.521 0.240
33.9753 5.479 0.239
33.9958 5.521 0.240
34.0163 4.917 0.226
34.0367 5.115 0.231
34.0572 5.083 0.230
34.0776 5.313 0.235
34.0981 5.323 0.235
34.1186 5.031 0.229
34.1390 5.688 0.243
34.1595 5.896 0.248
34.1800 5.438 0.238
34.2004 5.500 0.239
34.2209 5.427 0.238
34.2413 5.052 0.229
34.2618 5.063 0.230
34.2823 4.979 0.228
34.3027 5.417 0.238
34.3232 5.219 0.233
34.3437 5.323 0.235
34.3641 5.052 0.229
34.3846 5.635 0.242
34.4050 5.521 0.240
34.4255 5.000 0.228
34.4460 5.563 0.241
34.4664 5.427 0.238
34.4869 5.573 0.241
34.5074 5.219 0.233
34.5278 5.302 0.235
34.5483 5.010 0.228
34.5687 5.333 0.236
34.5892 4.958 0.227
34.6097 5.427 0.238
34.6301 5.302 0.235
34.6506 5.188 0.232
34.6711 5.750 0.245
34.6915 5.458 0.238
34.7120 5.271 0.234
34.7325 4.948 0.227
34.7529 5.125 0.231
34.7734 5.823 0.246
34.7938 5.344 0.236
34.8143 4.792 0.223
34.8348 5.635 0.242
34.8552 5.323 0.235
34.8757 5.260 0.234
34.8962 5.375 0.237
34.9166 5.469 0.239
34.9371 5.052 0.229
34.9575 5.490 0.239
34.9780 5.219 0.233
34.9985 5.500 0.239
35.0189 5.344 0.236
35.0394 5.479 0.239
35.0599 5.177 0.232
35.0803 5.229 0.233
35.1008 5.021 0.229
35.1212 5.427 0.238
35.1417 5.417 0.238
35.1622 5.802 0.246
35.1826 5.385 0.237
35.2031 5.948 0.249
35.2236 5.531 0.240
35.2440 5.563 0.241
35.2645 5.292 0.235
35.2849 5.542 0.240
35.3054 5.479 0.239
35.3259 5.813 0.246
35.3463 5.229 0.233
35.3668 5.740 0.245
35.3873 5.302 0.235
35.4077 5.771 0.245
35.4282 5.583 0.241
35.4486 5.198 0.233
35.4691 5.594 0.241
35.4896 5.625 0.242
35.5100 5.948 0.249
35.5305 5.542 0.240
35.5510 5.292 0.235
35.5714 5.490 0.239
35.5919 5.354 0.236
35.6124 5.688 0.243
35.6328 5.625 0.242
35.6533 6.073 0.252
35.6737 5.896 0.248
35.6942 5.896 0.248
35.7147 5.354 0.236
35.7351 5.990 0.250
35.7556 6.208 0.254
35.7761 6.000 0.250
35.7965 6.031 0.251
35.8170 6.146 0.253
35.8374 6.052 0.251
35.8579 6.010 0.250
35.8784 6.250 0.255
35.8988 6.448 0.259
35.9193 6.313 0.256
35.9398 6.854 0.267
35.9602 6.844 0.267
35.9807 6.667 0.264
36.0011 7.750 0.284
36.0216 7.031 0.271
36.0421 8.313 0.294
36.0625 8.802 0.303
36.0830 9.500 0.315
36.1035 9.938 0.322
36.1239 10.844 0.336
36.1444 11.052 0.339
36.1648 10.073 0.324
36.1853 10.688 0.334
36.2058 10.500 0.331
36.2262 10.531 0.331
36.2467 10.188 0.326
36.2672 10.427 0.330
36.2876 10.563 0.332
36.3081 11.458 0.345
36.3285 11.458 0.345
36.3490 11.781 0.350
36.3695 12.771 0.365
36.3899 13.042 0.369
36.4104 13.521 0.375
36.4309 14.177 0.384
36.4513 15.354 0.400
36.4718 16.125 0.410
36.4923 17.927 0.432
36.5127 18.385 0.438
36.5332 22.271 0.482
36.5536 27.219 0.532
36.5741 36.208 0.614
36.5946 43.667 0.674
36.6150 39.948 0.645
36.6355 31.625 0.574
36.6560 27.958 0.540
36.6764 28.219 0.542
36.6969 27.542 0.536
36.7173 23.271 0.492
36.7378 18.781 0.442
36.7583 15.396 0.400
36.7787 14.167 0.384
36.7992 13.760 0.379
36.8197 13.854 0.380
36.8401 13.250 0.372
36.8606 13.396 0.374
36.8810 14.198 0.385
36.9015 14.010 0.382
36.9220 15.583 0.403
36.9424 17.135 0.422
36.9629 19.198 0.447
36.9834 23.240 0.492
37.0038 27.635 0.537
37.0243 38.167 0.631
37.0447 49.844 0.721
37.0652 60.490 0.794
37.0857 58.354 0.780
37.1061 47.813 0.706
37.1266 39.615 0.642
37.1471 37.469 0.625
37.1675 37.750 0.627
37.1880 31.760 0.575
37.2084 23.302 0.493
37.2289 16.750 0.418
37.2494 14.177 0.384
37.2698 12.063 0.354
37.2903 11.208 0.342
37.3108 10.208 0.326
37.3312 9.823 0.320
37.3517 9.844 0.320
37.3722 9.708 0.318
37.3926 9.938 0.322
37.4131 9.406 0.313
37.4335 9.042 0.307
37.4540 9.573 0.316
37.4745 9.500 0.315
37.4949 9.865 0.321
37.5154 10.208 0.326
37.5359 10.781 0.335
37.5563 10.313 0.328
37.5768 11.281 0.343
37.5972 11.979 0.353
37.6177 12.594 0.362
37.6382 13.354 0.373
37.6586 13.854 0.380
37.6791 13.865 0.380
37.6996 14.010 0.382
37.7200 13.875 0.380
37.7405 13.354 0.373
37.7609 12.667 0.363
37.7814 12.740 0.364
37.8019 11.854 0.351
37.8223 11.875 0.352
37.8428 11.479 0.346
37.8633 11.271 0.343
37.8837 11.396 0.345
37.9042 12.146 0.356
37.9246 12.740 0.364
37.9451 15.198 0.398
37.9656 18.552 0.440
37.9860 24.417 0.504
38.0065 28.552 0.545
38.0270 29.229 0.552
38.0474 22.635 0.486
38.0679 20.188 0.459
38.0884 20.583 0.463
38.1088 20.656 0.464
38.1293 18.417 0.438
38.1497 14.490 0.389
38.1702 12.927 0.367
38.1907 11.417 0.345
38.2111 10.625 0.333
38.2316 10.563 0.332
38.2521 9.938 0.322
38.2725 9.094 0.308
38.2930 10.365 0.329
38.3134 9.875 0.321
38.3339 10.031 0.323
38.3544 10.052 0.324
38.3748 11.615 0.348
38.3953 12.729 0.364
38.4158 13.906 0.381
38.4362 17.667 0.429
38.4567 18.833 0.443
38.4771 16.500 0.415
38.4976 14.458 0.388
38.5181 13.802 0.379
38.5385 14.188 0.384
38.5590 13.552 0.376
38.5795 12.792 0.365
38.5999 10.135 0.325
38.6204 9.354 0.312
38.6408 8.125 0.291
38.6613 8.208 0.292
38.6818 8.031 0.289
38.7022 8.208 0.292
38.7227 8.156 0.291
38.7432 6.885 0.268
38.7636 7.865 0.286
38.7841 7.125 0.272
38.8045 7.479 0.279
38.8250 7.042 0.271
38.8455 6.844 0.267
38.8659 6.969 0.269
38.8864 6.656 0.263
38.9069 7.125 0.272
38.9273 6.990 0.270
38.9478 6.917 0.268
38.9683 6.906 0.268
38.9887 7.021 0.270
39.0092 7.146 0.273
39.0296 6.969 0.269
39.0501 6.708 0.264
39.0706 6.917 0.268
39.0910 7.198 0.274
39.1115 7.219 0.274
39.1320 7.000 0.270
39.1524 7.594 0.281
39.1729 7.229 0.274
39.1933 7.844 0.286
39.2138 7.844 0.286
39.2343 7.979 0.288
39.2547 8.500 0.298
39.2752 8.865 0.304
39.2957 8.979 0.306
39.3161 9.177 0.309
39.3366 9.000 0.306
39.3570 8.781 0.302
39.3775 8.729 0.302
39.3980 8.656 0.300
39.4184 9.740 0.319
39.4389 8.604 0.299
39.4594 7.854 0.286
39.4798 7.979 0.288
39.5003 8.219 0.293
39.5207 8.354 0.295
39.5412 8.406 0.296
39.5617 8.010 0.289
39.5821 7.865 0.286
39.6026 7.677 0.283
39.6231 8.104 0.291
39.6435 7.979 0.288
39.6640 8.104 0.291
39.6844 8.635 0.300
39.7049 9.635 0.317
39.7254 9.615 0.316
39.7458 11.052 0.339
39.7663 12.479 0.361
39.7868 14.333 0.386
39.8072 15.854 0.406
39.8277 12.833 0.366
39.8482 12.052 0.354
39.8686 11.698 0.349
39.8891 12.208 0.357
39.9095 11.490 0.346
39.9300 10.833 0.336
39.9505 10.031 0.323
39.9709 9.594 0.316
39.9914 8.990 0.306
40.0119 9.573 0.316
40.0323 9.156 0.309
40.0528 8.885 0.304
40.0732 9.781 0.319
40.0937 10.208 0.326
40.1142 10.448 0.330
40.1346 10.698 0.334
40.1551 10.917 0.337
40.1756 12.229 0.357
40.1960 13.594 0.376
40.2165 16.083 0.409
40.2369 18.990 0.445
40.2574 24.042 0.500
40.2779 22.583 0.485
40.2983 17.625 0.428
40.3188 14.885 0.394
40.3393 14.948 0.395
40.3597 16.427 0.414
40.3802 16.198 0.411
40.4006 12.865 0.366
40.4211 11.083 0.340
40.4416 10.500 0.331
40.4620 10.094 0.324
40.4825 9.052 0.307
40.5030 9.479 0.314
40.5234 9.219 0.310
40.5439 9.302 0.311
40.5643 9.146 0.309
40.5848 9.250 0.310
40.6053 8.771 0.302
40.6257 8.958 0.305
40.6462 8.563 0.299
40.6667 8.948 0.305
40.6871 8.573 0.299
40.7076 7.885 0.287
40.7281 8.406 0.296
40.7485 8.479 0.297
40.7690 7.990 0.288
40.7894 7.615 0.282
40.8099 7.365 0.277
40.8304 8.115 0.291
40.8508 7.969 0.288
40.8713 7.823 0.285
40.8918 8.229 0.293
40.9122 8.063 0.290
40.9327 8.323 0.294
40.9531 8.115 0.291
40.9736 9.406 0.313
40.9941 9.740 0.319
41.0145 10.427 0.330
41.0350 12.417 0.360
41.0555 15.104 0.397
41.0759 19.063 0.446
41.0964 22.771 0.487
41.1168 25.927 0.520
41.1373 25.396 0.514
41.1578 20.156 0.458
41.1782 17.563 0.428
41.1987 17.698 0.429
41.2192 17.917 0.432
41.2396 16.552 0.415
41.2601 14.229 0.385
41.2805 11.406 0.345
41.3010 10.260 0.327
41.3215 8.625 0.300
41.3419 8.271 0.294
41.3624 7.990 0.288
41.3829 7.938 0.288
41.4033 7.958 0.288
41.4238 7.500 0.280
41.4442 7.531 0.280
41.4647 7.156 0.273
41.4852 7.427 0.278
41.5056 7.448 0.279
41.5261 6.979 0.270
41.5466 7.573 0.281
41.5670 6.875 0.268
41.5875 7.615 0.282
41.6080 7.802 0.285
41.6284 8.177 0.292
41.6489 7.979 0.288
41.6693 8.354 0.295
41.6898 8.656 0.300
41.7103 8.031 0.289
41.7307 8.344 0.295
41.7512 8.073 0.290
41.7717 7.979 0.288
41.7921 8.208 0.292
41.8126 7.302 0.276
41.8330 7.115 0.272
41.8535 7.552 0.280
41.8740 6.594 0.262
41.8944 7.208 0.274
41.9149 6.865 0.267
41.9354 6.573 0.262
41.9558 6.417 0.259
41.9763 6.781 0.266
41.9967 6.167 0.253
42.0172 6.271 0.256
42.0377 5.885 0.248
42.0581 6.042 0.251
42.0786 6.281 0.256
42.0991 5.875 0.247
42.1195 6.063 0.251
42.1400 5.906 0.248
42.1604 6.063 0.251
42.1809 6.760 0.265
42.2014 6.125 0.253
42.2218 5.927 0.248
42.2423 5.667 0.243
42.2628 6.542 0.261
42.2832 6.198 0.254
42.3037 6.365 0.257
42.3242 6.250 0.255
42.3446 6.698 0.264
42.3651 6.438 0.259
42.3855 6.979 0.270
42.4060 6.052 0.251
42.4265 6.417 0.259
42.4469 5.990 0.250
42.4674 6.208 0.254
42.4879 6.333 0.257
42.5083 6.229 0.255
42.5288 6.563 0.261
42.5492 6.552 0.261
42.5697 6.813 0.266
42.5902 6.271 0.256
42.6106 6.583 0.262
42.6311 6.958 0.269
42.6516 6.896 0.268
42.6720 6.427 0.259
42.6925 6.344 0.257
42.7129 6.781 0.266
42.7334 6.865 0.267
42.7539 6.948 0.269
42.7743 7.427 0.278
42.7948 6.583 0.262
42.8153 6.563 0.261
42.8357 6.740 0.265
42.8562 6.625 0.263
42.8766 6.417 0.259
42.8971 6.635 0.263
42.9176 6.073 0.252
42.9380 6.417 0.259
42.9585 6.646 0.263
42.9790 6.323 0.257
42.9994 6.458 0.259
43.0199 6.604 0.262
43.0403 6.344 0.257
43.0608 6.906 0.268
43.0813 7.479 0.279
43.1017 7.177 0.273
43.1222 7.719 0.284
43.1427 8.365 0.295
43.1631 8.990 0.306
43.1836 9.906 0.321
43.2041 10.604 0.332
43.2245 10.385 0.329
43.2450 10.177 0.326
43.2654 9.344 0.312
43.2859 9.313 0.311
43.3064 9.823 0.320
43.3268 10.563 0.332
43.3473 10.479 0.330
43.3678 9.594 0.316
43.3882 9.052 0.307
43.4087 9.510 0.315
43.4291 9.958 0.322
43.4496 10.708 0.334
43.4701 11.135 0.341
43.4905 11.792 0.350
43.5110 14.031 0.382
43.5315 15.375 0.400
43.5519 18.906 0.444
43.5724 24.010 0.500
43.5928 30.625 0.565
43.6133 37.594 0.626
43.6338 38.990 0.637
43.6542 33.125 0.587
43.6747 24.677 0.507
43.6952 23.500 0.495
43.7156 24.083 0.501
43.7361 24.688 0.507
43.7565 22.563 0.485
43.7770 17.458 0.426
43.7975 13.042 0.369
43.8179 11.292 0.343
43.8384 10.125 0.325
43.8589 9.417 0.313
43.8793 8.969 0.306
43.8998 8.677 0.301
43.9202 7.969 0.288
43.9407 8.208 0.292
43.9612 8.188 0.292
43.9816 7.792 0.285
44.0021 8.083 0.290
44.0226 8.698 0.301
44.0430 8.458 0.297
44.0635 9.073 0.307
44.0840 9.031 0.307
44.1044 9.094 0.308
44.1249 9.573 0.316
44.1453 9.760 0.319
44.1658 9.802 0.320
44.1863 9.302 0.311
44.2067 9.365 0.312
44.2272 9.333 0.312
44.2477 8.990 0.306
44.2681 9.750 0.319
44.2886 8.500 0.298
44.3090 8.542 0.298
44.3295 8.323 0.294
44.3500 8.646 0.300
44.3704 7.458 0.279
44.3909 8.167 0.292
44.4114 7.719 0.284
44.4318 7.427 0.278
44.4523 7.229 0.274
44.4727 7.354 0.277
44.4932 7.115 0.272
44.5137 7.125 0.272
44.5341 7.010 0.270
44.5546 7.365 0.277
44.5751 7.240 0.275
44.5955 7.031 0.271
44.6160 7.177 0.273
44.6364 7.063 0.271
44.6569 6.594 0.262
44.6774 7.208 0.274
44.6978 6.656 0.263
44.7183 6.708 0.264
44.7388 7.198 0.274
44.7592 6.615 0.262
44.7797 6.448 0.259
44.8001 6.365 0.257
44.8206 6.583 0.262
44.8411 6.313 0.256
44.8615 6.615 0.262
44.8820 6.573 0.262
44.9025 6.635 0.263
44.9229 7.271 0.275
44.9434 6.802 0.266
44.9639 6.458 0.259
44.9843 6.354 0.257
45.0048 6.760 0.265
45.0252 7.896 0.287
45.0457 6.688 0.264
45.0662 7.177 0.273
45.0866 7.271 0.275
45.1071 7.510 0.280
45.1276 7.573 0.281
45.1480 8.292 0.294
45.1685 9.438 0.314
45.1889 10.885 0.337
45.2094 13.677 0.377
45.2299 15.063 0.396
45.2503 15.031 0.396
45.2708 13.396 0.374
45.2913 12.792 0.365
45.3117 11.531 0.347
45.3322 11.979 0.353
45.3526 12.542 0.361
45.3731 11.646 0.348
45.3936 11.198 0.342
45.4140 9.875 0.321
45.4345 9.260 0.311
45.4550 8.719 0.301
45.4754 9.010 0.306
45.4959 8.427 0.296
45.5163 8.313 0.294
45.5368 7.677 0.283
45.5573 7.302 0.276
45.5777 7.438 0.278
45.5982 7.740 0.284
45.6187 7.177 0.273
45.6391 7.344 0.277
45.6596 6.667 0.264
45.6800 6.583 0.262
45.7005 6.115 0.252
45.7210 6.240 0.255
45.7414 5.927 0.248
45.7619 5.802 0.246
45.7824 5.531 0.240
45.8028 5.531 0.240
45.8233 5.583 0.241
45.8438 5.521 0.240
45.8642 5.740 0.245
45.8847 5.438 0.238
45.9051 5.354 0.236
45.9256 6.115 0.252
45.9461 5.781 0.245
45.9665 5.667 0.243
45.9870 5.500 0.239
46.0075 5.333 0.236
46.0279 4.792 0.223
46.0484 5.104 0.231
46.0688 5.438 0.238
46.0893 5.396 0.237
46.1098 5.563 0.241
46.1302 5.688 0.243
46.1507 5.854 0.247
46.1712 5.667 0.243
46.1916 5.271 0.234
46.2121 5.344 0.236
46.2325 5.219 0.233
46.2530 5.260 0.234
46.2735 5.271 0.234
46.2939 5.708 0.244
46.3144 4.927 0.227
46.3349 4.990 0.228
46.3553 5.448 0.238
46.3758 5.271 0.234
46.3962 4.906 0.226
46.4167 4.844 0.225
46.4372 4.896 0.226
46.4576 4.573 0.218
46.4781 5.177 0.232
46.4986 4.698 0.221
46.5190 4.844 0.225
46.5395 4.583 0.219
46.5600 4.854 0.225
46.5804 4.792 0.223
46.6009 4.917 0.226
46.6213 4.635 0.220
46.6418 4.885 0.226
46.6623 4.760 0.223
46.6827 4.771 0.223
46.7032 4.969 0.228
46.7237 5.104 0.231
46.7441 5.240 0.234
46.7646 4.750 0.222
46.7850 5.271 0.234
46.8055 4.844 0.225
46.8260 5.229 0.233
46.8464 4.938 0.227
46.8669 5.125 0.231
46.8874 4.948 0.227
46.9078 5.292 0.235
46.9283 5.177 0.232
46.9487 4.865 0.225
46.9692 5.406 0.237
46.9897 4.823 0.224
47.0101 5.125 0.231
47.0306 5.583 0.241
47.0511 5.521 0.240
47.0715 4.958 0.227
47.0920 5.323 0.235
47.1124 5.156 0.232
47.1329 5.500 0.239
47.1534 5.354 0.236
47.1738 6.010 0.250
47.1943 5.760 0.245
47.2148 6.000 0.250
47.2352 6.333 0.257
47.2557 6.146 0.253
47.2761 6.948 0.269
47.2966 6.448 0.259
47.3171 7.385 0.277
47.3375 7.167 0.273
47.3580 7.281 0.275
47.3785 7.104 0.272
47.3989 7.500 0.280
47.4194 7.927 0.287
47.4399 8.042 0.289
47.4603 8.479 0.297
47.4808 8.646 0.300
47.5012 10.188 0.326
47.5217 11.260 0.342
47.5422 13.792 0.379
47.5626 16.750 0.418
47.5831 19.302 0.448
47.6036 20.031 0.457
47.6240 17.250 0.424
47.6445 13.917 0.381
47.6649 12.281 0.358
47.6854 13.177 0.370
47.7059 13.573 0.376
47.7263 13.438 0.374
47.7468 12.208 0.357
47.7673 10.156 0.325
47.7877 8.708 0.301
47.8082 7.781 0.285
47.8286 6.896 0.268
47.8491 6.865 0.267
47.8696 7.073 0.271
47.8900 6.281 0.256
47.9105 6.104 0.252
47.9310 5.906 0.248
47.9514 6.292 0.256
47.9719 6.510 0.260
47.9923 5.667 0.243
48.0128 5.875 0.247
48.0333 5.792 0.246
48.0537 5.563 0.241
48.0742 5.521 0.240
48.0947 5.667 0.243
48.1151 5.406 0.237
48.1356 5.219 0.233
48.1560 5.333 0.236
48.1765 5.635 0.242
48.1970 5.333 0.236
48.2174 5.594 0.241
48.2379 5.813 0.246
48.2584 5.781 0.245
48.2788 6.146 0.253
48.2993 6.563 0.261
48.3198 6.813 0.266
48.3402 7.583 0.281
48.3607 5.927 0.248
48.3811 6.010 0.250
48.4016 6.177 0.254
48.4221 6.250 0.255
48.4425 6.177 0.254
48.4630 6.188 0.254
48.4835 5.510 0.240
48.5039 5.208 0.233
48.5244 5.271 0.234
48.5448 5.615 0.242
48.5653 5.615 0.242
48.5858 5.208 0.233
48.6062 4.917 0.226
48.6267 5.813 0.246
48.6472 5.844 0.247
48.6676 6.156 0.253
48.6881 7.010 0.270
48.7085 7.479 0.279
48.7290 7.115 0.272
48.7495 6.115 0.252
48.7699 5.990 0.250
48.7904 6.229 0.255
48.8109 5.688 0.243
48.8313 6.604 0.262
48.8518 5.646 0.243
48.8722 5.115 0.231
48.8927 4.906 0.226
48.9132 4.833 0.224
48.9336 4.990 0.228
48.9541 4.906 0.226
48.9746 4.896 0.226
48.9950 4.677 0.221
49.0155 4.698 0.221
49.0359 4.677 0.221
49.0564 4.740 0.222
49.0769 4.552 0.218
49.0973 4.344 0.213
49.1178 4.417 0.214
49.1383 4.573 0.218
49.1587 4.833 0.224
49.1792 4.510 0.217
49.1997 4.479 0.216
49.2201 4.646 0.220
49.2406 4.448 0.215
49.2610 4.031 0.205
49.2815 5.010 0.228
49.3020 4.729 0.222
49.3224 5.125 0.231
49.3429 4.896 0.226
49.3634 4.646 0.220
49.3838 4.646 0.220
49.4043 4.802 0.224
49.4247 5.031 0.229
49.4452 4.948 0.227
49.4657 4.948 0.227
49.4861 5.552 0.240
49.5066 5.604 0.242
49.5271 5.146 0.232
49.5475 5.438 0.238
49.5680 5.813 0.246
49.5884 5.938 0.249
49.6089 6.396 0.258
49.6294 6.740 0.265
49.6498 7.115 0.272
49.6703 7.354 0.277
49.6908 7.875 0.286
49.7112 8.208 0.292
49.7317 9.813 0.320
49.7521 11.833 0.351
49.7726 14.375 0.387
49.7931 18.417 0.438
49.8135 21.771 0.476
49.8340 26.635 0.527
49.8545 25.260 0.513
49.8749 21.375 0.472
49.8954 17.052 0.421
49.9158 15.615 0.403
49.9363 16.229 0.411
49.9568 17.958 0.433
49.9772 18.021 0.433
49.9977 14.490 0.389
50.0182 12.500 0.361
50.0386 10.417 0.329
50.0591 9.208 0.310
50.0796 8.740 0.302
50.1000 9.010 0.306
50.1205 8.896 0.304
50.1409 9.073 0.307
50.1614 9.740 0.319
50.1819 10.094 0.324
50.2023 10.854 0.336
50.2228 10.552 0.332
50.2433 8.333 0.295
50.2637 8.521 0.298
50.2842 8.719 0.301
50.3046 8.938 0.305
50.3251 9.115 0.308
50.3456 9.156 0.309
50.3660 8.417 0.296
50.3865 7.625 0.282
50.4070 8.104 0.291
50.4274 8.563 0.299
50.4479 7.906 0.287
50.4683 8.021 0.289
50.4888 8.229 0.293
50.5093 8.438 0.296
50.5297 8.094 0.290
50.5502 8.458 0.297
50.5707 8.125 0.291
50.5911 8.031 0.289
50.6116 8.354 0.295
50.6320 8.302 0.294
50.6525 7.844 0.286
50.6730 8.219 0.293
50.6934 7.531 0.280
50.7139 6.948 0.269
50.7344 7.458 0.279
50.7548 6.979 0.270
50.7753 6.302 0.256
50.7958 6.563 0.261
50.8162 6.896 0.268
50.8367 6.323 0.257
50.8571 6.906 0.268
50.8776 7.292 0.276
50.8981 8.073 0.290
50.9185 8.906 0.305
50.9390 9.802 0.320
50.9595 11.625 0.348
50.9799 10.052 0.324
51.0004 8.490 0.297
51.0208 7.635 0.282
51.0413 7.458 0.279
51.0618 7.771 0.285
51.0822 8.740 0.302
51.1027 8.083 0.290
51.1232 7.375 0.277
51.1436 7.229 0.274
51.1641 6.010 0.250
51.1845 6.375 0.258
51.2050 5.979 0.250
51.2255 5.875 0.247
51.2459 5.917 0.248
51.2664 6.583 0.262
51.2869 6.750 0.265
51.3073 6.760 0.265
51.3278 5.750 0.245
51.3482 5.792 0.246
51.3687 5.917 0.248
51.3892 6.052 0.251
51.4096 6.250 0.255
51.4301 6.219 0.255
51.4506 6.125 0.253
51.4710 5.406 0.237
51.4915 5.542 0.240
51.5119 6.094 0.252
51.5324 5.615 0.242
51.5529 5.958 0.249
51.5733 6.500 0.260
51.5938 6.438 0.259
51.6143 7.302 0.276
51.6347 8.375 0.295
51.6552 8.688 0.301
51.6757 8.760 0.302
51.6961 8.271 0.294
51.7166 7.500 0.280
51.7370 6.667 0.264
51.7575 6.708 0.264
51.7780 7.188 0.274
51.7984 7.208 0.274
51.8189 6.823 0.267
51.8394 6.771 0.266
51.8598 6.250 0.255
51.8803 5.740 0.245
51.9007 4.875 0.225
51.9212 5.125 0.231
51.9417 5.521 0.240
51.9621 5.635 0.242
51.9826 5.167 0.232
52.0031 5.635 0.242
52.0235 5.573 0.241
52.0440 5.906 0.248
52.0644 5.698 0.244
52.0849 6.719 0.265
52.1054 5.729 0.244
52.1258 6.458 0.259
52.1463 6.521 0.261
52.1668 6.771 0.266
52.1872 6.760 0.265
52.2077 6.135 0.253
52.2281 7.479 0.279
52.2486 6.604 0.262
52.2691 6.781 0.266
52.2895 6.510 0.260
52.3100 6.906 0.268
52.3305 7.115 0.272
52.3509 6.823 0.267
52.3714 7.771 0.285
52.3918 7.052 0.271
52.4123 6.594 0.262
52.4328 5.708 0.244
52.4532 6.208 0.254
52.4737 6.896 0.268
52.4942 6.000 0.250
52.5146 6.208 0.254
52.5351 5.760 0.245
52.5556 5.958 0.249
52.5760 5.438 0.238
52.5965 5.750 0.245
52.6169 5.792 0.246
52.6374 4.583 0.219
52.6579 5.000 0.228
52.6783 4.500 0.217
52.6988 5.021 0.229
52.7193 5.365 0.236
52.7397 4.896 0.226
52.7602 4.948 0.227
52.7806 4.729 0.222
52.8011 4.615 0.219
52.8216 4.510 0.217
52.8420 4.958 0.227
52.8625 5.000 0.228
52.8830 4.406 0.214
52.9034 4.969 0.228
52.9239 4.646 0.220
52.9443 4.802 0.224
52.9648 4.677 0.221
52.9853 4.698 0.221
53.0057 4.833 0.224
53.0262 4.854 0.225
53.0467 4.979 0.228
53.0671 4.542 0.218
53.0876 4.802 0.224
53.1080 4.760 0.223
53.1285 5.104 0.231
53.1490 4.500 0.217
53.1694 5.135 0.231
53.1899 5.208 0.233
53.2104 5.031 0.229
53.2308 4.729 0.222
53.2513 4.781 0.223
53.2717 4.729 0.222
53.2922 4.635 0.220
53.3127 4.625 0.219
53.3331 4.656 0.220
53.3536 4.396 0.214
53.3741 4.552 0.218
53.3945 4.073 0.206
53.4150 4.500 0.217
53.4355 4.323 0.212
53.4559 4.219 0.210
53.4764 4.604 0.219
53.4968 4.104 0.207
53.5173 4.344 0.213
53.5378 4.333 0.212
53.5582 4.104 0.207
53.5787 4.458 0.216
53.5992 4.635 0.220
53.6196 4.177 0.209
53.6401 4.385 0.214
53.6605 3.833 0.200
53.6810 4.542 0.218
53.7015 4.698 0.221
53.7219 4.823 0.224
53.7424 4.167 0.208
53.7629 4.010 0.204
53.7833 4.198 0.209
53.8038 4.594 0.219
53.8242 4.458 0.216
53.8447 4.531 0.217
53.8652 4.156 0.208
53.8856 4.500 0.217
53.9061 4.729 0.222
53.9266 4.906 0.226
53.9470 4.240 0.210
53.9675 5.219 0.233
53.9879 4.542 0.218
54.0084 4.240 0.210
54.0289 4.646 0.220
54.0493 4.563 0.218
54.0698 5.323 0.235
54.0903 5.469 0.239
54.1107 5.875 0.247
54.1312 5.740 0.245
54.1516 6.156 0.253
54.1721 5.813 0.246
54.1926 5.531 0.240
54.2130 5.344 0.236
54.2335 5.146 0.232
54.2540 6.219 0.255
54.2744 5.948 0.249
54.2949 5.990 0.250
54.3154 6.000 0.250
54.3358 5.906 0.248
54.3563 5.906 0.248
54.3767 6.333 0.257
54.3972 6.458 0.259
54.4177 6.375 0.258
54.4381 5.448 0.238
54.4586 5.625 0.242
54.4791 6.313 0.256
54.4995 6.052 0.251
54.5200 6.021 0.250
54.5404 5.115 0.231
54.5609 6.104 0.252
54.5814 5.167 0.232
54.6018 5.438 0.238
54.6223 5.594 0.241
54.6428 5.677 0.243
54.6632 5.260 0.234
54.6837 5.573 0.241
54.7041 4.604 0.219
54.7246 4.885 0.226
54.7451 5.115 0.231
54.7655 4.240 0.210
54.7860 4.854 0.225
54.8065 4.698 0.221
54.8269 5.177 0.232
54.8474 4.948 0.227
54.8678 4.792 0.223
54.8883 5.052 0.229
54.9088 5.188 0.232
54.9292 4.927 0.227
54.9497 4.844 0.225
54.9702 5.417 0.238
54.9906 5.490 0.239
55.0111 5.594 0.241
55.0316 6.188 0.254
55.0520 6.865 0.267
55.0725 7.656 0.282
55.0929 9.240 0.310
55.1134 11.563 0.347
55.1339 14.740 0.392
55.1543 18.208 0.436
55.1748 19.521 0.451
55.1953 17.167 0.423
55.2157 13.063 0.369
55.2362 11.042 0.339
55.2566 10.656 0.333
55.2771 11.281 0.343
55.2976 12.698 0.364
55.3180 13.542 0.376
55.3385 11.833 0.351
55.3590 10.125 0.325
55.3794 8.167 0.292
55.3999 6.750 0.265
55.4203 6.635 0.263
55.4408 5.958 0.249
55.4613 5.365 0.236
55.4817 5.260 0.234
55.5022 5.021 0.229
55.5227 5.021 0.229
55.5431 4.906 0.226
55.5636 4.750 0.222
55.5840 4.573 0.218
55.6045 4.646 0.220
55.6250 4.656 0.220
55.6454 4.729 0.222
55.6659 4.271 0.211
55.6864 4.646 0.220
55.7068 4.854 0.225
55.7273 5.000 0.228
55.7477 4.604 0.219
55.7682 4.990 0.228
55.7887 5.646 0.243
55.8091 5.760 0.245
55.8296 6.292 0.256
55.8501 6.823 0.267
55.8705 6.917 0.268
55.8910 6.573 0.262
55.9115 5.865 0.247
55.9319 5.688 0.243
55.9524 6.219 0.255
55.9728 6.094 0.252
55.9933 6.292 0.256
56.0138 6.188 0.254
56.0342 6.583 0.262
56.0547 5.885 0.248
56.0752 6.458 0.259
56.0956 6.948 0.269
56.1161 8.458 0.297
56.1365 9.813 0.320
56.1570 11.625 0.348
56.1775 13.688 0.378
56.1979 14.281 0.386
56.2184 12.958 0.367
56.2389 9.917 0.321
56.2593 8.531 0.298
56.2798 7.563 0.281
56.3002 8.240 0.293
56.3207 8.719 0.301
56.3412 10.063 0.324
56.3616 8.781 0.302
56.3821 7.031 0.271
56.4026 6.313 0.256
56.4230 5.302 0.235
56.4435 4.333 0.212
56.4639 4.948 0.227
56.4844 4.344 0.213
56.5049 4.177 0.209
56.5253 3.771 0.198
56.5458 4.146 0.208
56.5663 3.604 0.194
56.5867 4.021 0.205
56.6072 4.219 0.210
56.6276 3.583 0.193
56.6481 3.583 0.193
56.6686 3.740 0.197
56.6890 3.604 0.194
56.7095 3.469 0.190
56.7300 3.917 0.202
56.7504 3.667 0.195
56.7709 3.906 0.202
56.7914 3.906 0.202
56.8118 3.823 0.200
56.8323 3.448 0.190
56.8527 3.792 0.199
56.8732 3.615 0.194
56.8937 3.375 0.188
56.9141 3.427 0.189
56.9346 3.833 0.200
56.9551 3.646 0.195
56.9755 3.719 0.197
56.9960 3.406 0.188
57.0164 3.719 0.197
57.0369 3.917 0.202
57.0574 3.292 0.185
57.0778 3.583 0.193
57.0983 3.510 0.191
57.1188 3.760 0.198
57.1392 3.656 0.195
57.1597 3.583 0.193
57.1801 3.542 0.192
57.2006 3.542 0.192
57.2211 3.563 0.193
57.2415 3.844 0.200
57.2620 3.635 0.195
57.2825 3.531 0.192
57.3029 3.656 0.195
57.3234 3.521 0.192
57.3438 4.115 0.207
57.3643 3.531 0.192
57.3848 3.635 0.195
57.4052 4.042 0.205
57.4257 3.542 0.192
57.4462 4.073 0.206
57.4666 3.677 0.196
57.4871 3.854 0.200
57.5075 3.844 0.200
57.5280 4.031 0.205
57.5485 4.781 0.223
57.5689 4.313 0.212
57.5894 4.500 0.217
57.6099 4.385 0.214
57.6303 4.719 0.222
57.6508 4.677 0.221
57.6713 4.802 0.224
57.6917 4.906 0.226
57.7122 5.385 0.237
57.7326 5.365 0.236
57.7531 6.365 0.257
57.7736 6.333 0.257
57.7940 7.708 0.283
57.8145 8.146 0.291
57.8350 10.083 0.324
57.8554 11.698 0.349
57.8759 13.344 0.373
57.8963 15.865 0.407
57.9168 14.115 0.383
57.9373 12.927 0.367
57.9577 10.333 0.328
57.9782 9.854 0.320
57.9987 9.333 0.312
58.0191 10.354 0.328
58.0396 10.396 0.329
58.0600 10.531 0.331
58.0805 9.156 0.309
58.1010 8.865 0.304
58.1214 7.063 0.271
58.1419 6.365 0.257
58.1624 5.792 0.246
58.1828 5.365 0.236
58.2033 4.677 0.221
58.2237 4.813 0.224
58.2442 4.760 0.223
58.2647 5.250 0.234
58.2851 5.177 0.232
58.3056 4.646 0.220
58.3261 4.240 0.210
58.3465 4.260 0.211
58.3670 4.604 0.219
58.3874 4.156 0.208
58.4079 4.104 0.207
58.4284 4.302 0.212
58.4488 4.167 0.208
58.4693 4.177 0.209
58.4898 4.313 0.212
58.5102 4.229 0.210
58.5307 4.031 0.205
58.5512 4.375 0.213
58.5716 4.656 0.220
58.5921 4.354 0.213
58.6125 4.073 0.206
58.6330 4.385 0.214
58.6535 4.500 0.217
58.6739 4.469 0.216
58.6944 4.688 0.221
58.7149 4.458 0.216
58.7353 4.240 0.210
58.7558 4.292 0.211
58.7762 4.448 0.215
58.7967 4.063 0.206
58.8172 4.292 0.211
58.8376 4.031 0.205
58.8581 4.167 0.208
58.8786 4.344 0.213
58.8990 4.500 0.217
58.9195 4.458 0.216
58.9399 4.208 0.209
58.9604 4.510 0.217
58.9809 4.469 0.216
59.0013 4.594 0.219
59.0218 5.104 0.231
59.0423 4.760 0.223
59.0627 5.417 0.238
59.0832 5.448 0.238
59.1036 5.729 0.244
59.1241 6.083 0.252
59.1446 7.385 0.277
59.1650 8.042 0.289
59.1855 8.896 0.304
59.2060 9.469 0.314
59.2264 8.885 0.304
59.2469 6.781 0.266
59.2674 6.917 0.268
59.2878 5.750 0.245
59.3083 6.125 0.253
59.3287 6.365 0.257
59.3492 6.542 0.261
59.3697 6.896 0.268
59.3901 6.125 0.253
59.4106 5.729 0.244
59.4311 4.927 0.227
59.4515 4.500 0.217
59.4720 4.729 0.222
59.4924 4.292 0.211
59.5129 4.438 0.215
59.5334 3.854 0.200
59.5538 4.042 0.205
59.5743 4.135 0.208
59.5948 4.063 0.206
59.6152 4.313 0.212
59.6357 4.438 0.215
59.6561 4.021 0.205
59.6766 4.417 0.214
59.6971 4.208 0.209
59.7175 4.313 0.212
59.7380 4.542 0.218
59.7585 4.594 0.219
59.7789 5.000 0.228
59.7994 6.094 0.252
59.8198 6.271 0.256
59.8403 8.083 0.290
59.8608 9.135 0.308
59.8812 8.854 0.304
59.9017 8.063 0.290
59.9222 7.156 0.273
59.9426 5.708 0.244
59.9631 5.865 0.247
59.9835 5.760 0.245
60.0040 6.385 0.258
60.0245 6.510 0.260
60.0449 6.188 0.254
60.0654 6.198 0.254
60.0859 5.375 0.237
60.1063 4.688 0.221
60.1268 4.240 0.210
60.1473 4.344 0.213
60.1677 4.208 0.209
60.1882 3.885 0.201
60.2086 3.688 0.196
60.2291 3.917 0.202
60.2496 4.115 0.207
60.2700 3.927 0.202
60.2905 3.667 0.195
60.3110 3.677 0.196
60.3314 3.646 0.195
60.3519 3.979 0.204
60.3723 3.594 0.193
60.3928 3.438 0.189
60.4133 3.479 0.190
60.4337 3.615 0.194
60.4542 3.323 0.186
60.4747 3.771 0.198
60.4951 3.406 0.188
60.5156 3.458 0.190
60.5360 3.688 0.196
60.5565 3.635 0.195
60.5770 3.604 0.194
60.5974 3.344 0.187
60.6179 3.521 0.192
60.6384 3.458 0.190
60.6588 3.479 0.190
60.6793 3.625 0.194
60.6997 3.167 0.182
60.7202 3.344 0.187
60.7407 3.656 0.195
60.7611 3.417 0.189
60.7816 3.698 0.196
60.8021 3.573 0.193
60.8225 3.729 0.197
60.8430 4.052 0.205
60.8634 4.125 0.207
60.8839 3.781 0.198
60.9044 3.906 0.202
60.9248 3.573 0.193
60.9453 3.427 0.189
60.9658 3.646 0.195
60.9862 3.698 0.196
61.0067 3.719 0.197
61.0272 3.750 0.198
61.0476 4.010 0.204
61.0681 3.823 0.200
61.0885 3.865 0.201
61.1090 3.635 0.195
61.1295 3.563 0.193
61.1499 3.313 0.186
61.1704 3.438 0.189
61.1909 3.698 0.196
61.2113 3.375 0.188
61.2318 3.354 0.187
61.2522 3.365 0.187
61.2727 3.531 0.192
61.2932 3.167 0.182
61.3136 3.344 0.187
61.3341 3.750 0.198
61.3546 3.927 0.202
61.3750 3.333 0.186
61.3955 3.677 0.196
61.4159 3.365 0.187
61.4364 3.625 0.194
61.4569 3.646 0.195
61.4773 3.260 0.184
61.4978 3.490 0.191
61.5183 3.958 0.203
61.5387 3.708 0.197
61.5592 3.740 0.197
61.5796 3.688 0.196
61.6001 3.469 0.190
61.6206 3.427 0.189
61.6410 3.531 0.192
61.6615 3.552 0.192
61.6820 3.375 0.188
61.7024 3.594 0.193
61.7229 3.208 0.183
61.7433 3.344 0.187
61.7638 3.271 0.185
61.7843 3.615 0.194
61.8047 3.083 0.179
61.8252 3.208 0.183
61.8457 3.521 0.192
61.8661 3.760 0.198
61.8866 3.688 0.196
61.9071 3.563 0.193
61.9275 3.823 0.200
61.9480 3.396 0.188
61.9684 3.813 0.199
61.9889 3.625 0.194
62.0094 4.094 0.207
62.0298 4.167 0.208
62.0503 4.771 0.223
62.0708 4.802 0.224
62.0912 5.167 0.232
62.1117 6.042 0.251
62.1321 6.458 0.259
62.1526 6.115 0.252
62.1731 5.542 0.240
62.1935 4.823 0.224
62.2140 4.802 0.224
62.2345 4.531 0.217
62.2549 4.406 0.214
62.2754 4.552 0.218
62.2958 5.031 0.229
62.3163 5.104 0.231
62.3368 5.010 0.228
62.3572 3.708 0.197
62.3777 4.042 0.205
62.3982 3.573 0.193
62.4186 3.458 0.190
62.4391 3.521 0.192
62.4595 3.531 0.192
62.4800 3.438 0.189
62.5005 3.490 0.191
62.5209 3.292 0.185
62.5414 3.219 0.183
62.5619 3.375 0.188
62.5823 3.521 0.192
62.6028 3.156 0.181
62.6232 3.177 0.182
62.6437 3.417 0.189
62.6642 3.448 0.190
62.6846 3.458 0.190
62.7051 3.271 0.185
62.7256 3.292 0.185
62.7460 3.021 0.177
62.7665 3.208 0.183
62.7870 3.406 0.188
62.8074 2.896 0.174
62.8279 3.146 0.181
62.8483 2.865 0.173
62.8688 3.240 0.184
62.8893 2.885 0.173
62.9097 3.063 0.179
62.9302 3.448 0.190
62.9507 3.458 0.190
62.9711 3.031 0.178
62.9916 2.917 0.174
63.0120 3.479 0.190
63.0325 2.938 0.175
63.0530 3.385 0.188
63.0734 3.188 0.182
63.0939 3.240 0.184
63.1144 2.854 0.172
63.1348 3.323 0.186
63.1553 2.990 0.176
63.1757 2.938 0.175
63.1962 3.240 0.184
63.2167 3.063 0.179
63.2371 3.365 0.187
63.2576 3.385 0.188
63.2781 3.094 0.180
63.2985 3.010 0.177
63.3190 3.313 0.186
63.3394 3.177 0.182
63.3599 3.510 0.191
63.3804 3.438 0.189
63.4008 3.281 0.185
63.4213 3.375 0.188
63.4418 3.135 0.181
63.4622 3.240 0.184
63.4827 3.490 0.191
63.5032 3.094 0.180
63.5236 3.385 0.188
63.5441 3.490 0.191
63.5645 3.865 0.201
63.5850 4.156 0.208
63.6055 3.990 0.204
63.6259 4.156 0.208
63.6464 4.688 0.221
63.6669 4.865 0.225
63.6873 5.479 0.239
63.7078 4.781 0.223
63.7282 5.052 0.229
63.7487 5.813 0.246
63.7692 6.469 0.260
63.7896 5.781 0.245
63.8101 5.958 0.249
63.8306 5.823 0.246
63.8510 5.406 0.237
63.8715 5.667 0.243
63.8919 5.125 0.231
63.9124 5.323 0.235
63.9329 5.146 0.232
63.9533 5.469 0.239
63.9738 5.219 0.233
63.9943 5.292 0.235
64.0147 5.615 0.242
64.0352 5.573 0.241
64.0556 5.115 0.231
64.0761 4.563 0.218
64.0966 4.427 0.215
64.1170 4.604 0.219
64.1375 4.073 0.206
64.1580 3.823 0.200
64.1784 4.156 0.208
64.1989 4.531 0.217
64.2193 4.323 0.212
64.2398 4.333 0.212
64.2603 3.979 0.204
64.2807 3.802 0.199
64.3012 4.021 0.205
64.3217 3.760 0.198
64.3421 3.604 0.194
64.3626 3.865 0.201
64.3831 3.927 0.202
64.4035 3.802 0.199
64.4240 4.281 0.211
64.4444 4.219 0.210
64.4649 4.479 0.216
64.4854 4.802 0.224
64.5058 4.417 0.214
64.5263 4.979 0.228
64.5468 5.750 0.245
64.5672 6.135 0.253
64.5877 6.771 0.266
64.6081 8.104 0.291
64.6286 9.188 0.309
64.6491 9.917 0.321
64.6695 9.583 0.316
64.6900 7.656 0.282
64.7105 6.594 0.262
64.7309 6.615 0.262
64.7514 5.771 0.245
64.7718 6.052 0.251
64.7923 6.240 0.255
64.8128 6.979 0.270
64.8332 6.500 0.260
64.8537 5.708 0.244
64.8742 5.250 0.234
64.8946 4.917 0.226
64.9151 4.594 0.219
64.9355 3.948 0.203
64.9560 4.135 0.208
64.9765 3.656 0.195
64.9969 3.323 0.186
65.0174 3.385 0.188
65.0379 3.625 0.194
65.0583 3.667 0.195
65.0788 3.594 0.193
65.0992 3.313 0.186
65.1197 3.208 0.183
65.1402 3.260 0.184
65.1606 3.292 0.185
65.1811 3.271 0.185
65.2016 3.042 0.178
65.2220 3.583 0.193
65.2425 3.104 0.180
65.2630 3.271 0.185
65.2834 3.240 0.184
65.3039 3.719 0.197
65.3243 3.344 0.187
65.3448 3.146 0.181
65.3653 3.083 0.179
65.3857 3.448 0.190
65.4062 3.167 0.182
65.4267 3.521 0.192
65.4471 3.646 0.195
65.4676 3.281 0.185
65.4880 3.979 0.204
65.5085 4.135 0.208
65.5290 4.729 0.222
65.5494 4.990 0.228
65.5699 4.958 0.227
65.5904 5.406 0.237
65.6108 4.948 0.227
65.6313 4.490 0.216
65.6517 3.927 0.202
65.6722 3.823 0.200
65.6927 3.906 0.202
65.7131 3.906 0.202
65.7336 4.271 0.211
65.7541 4.135 0.208
65.7745 4.438 0.215
65.7950 4.208 0.209
65.8154 3.844 0.200
65.8359 3.875 0.201
65.8564 3.781 0.198
65.8768 4.063 0.206
65.8973 3.583 0.193
65.9178 3.458 0.190
65.9382 3.438 0.189
65.9587 3.625 0.194
65.9791 3.833 0.200
65.9996 3.844 0.200
66.0201 3.781 0.198
66.0405 3.917 0.202
66.0610 3.823 0.200
66.0815 4.208 0.209
66.1019 4.271 0.211
66.1224 4.208 0.209
66.1429 4.635 0.220
66.1633 3.990 0.204
66.1838 4.406 0.214
66.2042 4.469 0.216
66.2247 4.260 0.211
66.2452 4.010 0.204
66.2656 4.156 0.208
66.2861 4.333 0.212
66.3066 4.052 0.205
66.3270 3.833 0.200
66.3475 4.188 0.209
66.3679 3.875 0.201
66.3884 4.115 0.207
66.4089 3.917 0.202
66.4293 4.042 0.205
66.4498 4.240 0.210
66.4703 3.854 0.200
66.4907 3.750 0.198
66.5112 3.781 0.198
66.5316 3.885 0.201
66.5521 3.823 0.200
66.5726 4.198 0.209
66.5930 4.323 0.212
66.6135 4.229 0.210
66.6340 4.458 0.216
66.6544 4.198 0.209
66.6749 3.958 0.203
66.6953 3.875 0.201
66.7158 4.177 0.209
66.7363 3.781 0.198
66.7567 4.104 0.207
66.7772 3.948 0.203
66.7977 3.844 0.200
66.8181 4.125 0.207
66.8386 4.000 0.204
66.8590 4.417 0.214
66.8795 4.094 0.207
66.9000 4.219 0.210
66.9204 4.469 0.216
66.9409 4.448 0.215
66.9614 4.906 0.226
66.9818 4.833 0.224
67.0023 5.865 0.247
67.0228 6.010 0.250
67.0432 7.021 0.270
67.0637 7.854 0.286
67.0841 9.292 0.311
67.1046 10.958 0.338
67.1251 12.219 0.357
67.1455 13.073 0.369
67.1660 12.406 0.359
67.1865 10.333 0.328
67.2069 8.594 0.299
67.2274 7.771 0.285
67.2478 7.281 0.275
67.2683 7.292 0.276
67.2888 8.167 0.292
67.3092 8.531 0.298
67.3297 8.417 0.296
67.3502 8.313 0.294
67.3706 7.135 0.273
67.3911 5.771 0.245
67.4115 5.240 0.234
67.4320 4.625 0.219
67.4525 4.896 0.226
67.4729 4.313 0.212
67.4934 4.198 0.209
67.5139 3.979 0.204
67.5343 4.063 0.206
67.5548 3.708 0.197
67.5752 3.719 0.197
67.5957 3.542 0.192
67.6162 3.563 0.193
67.6366 3.885 0.201
67.6571 4.302 0.212
67.6776 3.552 0.192
67.6980 3.854 0.200
67.7185 4.125 0.207
67.7389 4.438 0.215
67.7594 3.719 0.197
67.7799 3.979 0.204
67.8003 4.000 0.204
67.8208 3.760 0.198
67.8413 3.844 0.200
67.8617 3.604 0.194
67.8822 3.802 0.199
67.9027 3.729 0.197
67.9231 4.094 0.207
67.9436 3.781 0.198
67.9640 3.781 0.198
67.9845 3.667 0.195
68.0050 3.969 0.203
68.0254 3.750 0.198
68.0459 3.854 0.200
68.0664 3.885 0.201
68.0868 4.000 0.204
68.1073 3.698 0.196
68.1277 3.927 0.202
68.1482 3.708 0.197
68.1687 3.667 0.195
68.1891 3.667 0.195
68.2096 4.458 0.216
68.2301 3.854 0.200
68.2505 4.396 0.214
68.2710 4.719 0.222
68.2914 5.313 0.235
68.3119 5.542 0.240
68.3324 6.000 0.250
68.3528 5.948 0.249
68.3733 5.594 0.241
68.3938 4.875 0.225
68.4142 4.688 0.221
68.4347 4.708 0.221
68.4551 4.094 0.207
68.4756 4.229 0.210
68.4961 4.458 0.216
68.5165 4.604 0.219
68.5370 4.563 0.218
68.5575 4.271 0.211
68.5779 4.031 0.205
68.5984 3.573 0.193
68.6189 4.135 0.208
68.6393 3.521 0.192
68.6598 3.313 0.186
68.6802 3.313 0.186
68.7007 3.792 0.199
68.7212 3.552 0.192
68.7416 3.667 0.195
68.7621 3.583 0.193
68.7826 3.531 0.192
68.8030 3.823 0.200
68.8235 4.063 0.206
68.8439 4.365 0.213
68.8644 4.375 0.213
68.8849 4.615 0.219
68.9053 5.156 0.232
68.9258 6.000 0.250
68.9463 6.510 0.260
68.9667 6.396 0.258
68.9872 6.677 0.264
69.0076 6.323 0.257
69.0281 5.552 0.240
69.0486 5.177 0.232
69.0690 4.813 0.224
69.0895 4.969 0.228
69.1100 4.792 0.223
69.1304 5.073 0.230
69.1509 4.854 0.225
69.1713 5.552 0.240
69.1918 5.781 0.245
69.2123 5.542 0.240
69.2327 5.354 0.236
69.2532 5.115 0.231
69.2737 4.917 0.226
69.2941 4.688 0.221
69.3146 4.083 0.206
69.3350 3.583 0.193
69.3555 3.750 0.198
69.3760 4.063 0.206
69.3964 4.010 0.204
69.4169 4.375 0.213
69.4374 4.208 0.209
69.4578 3.969 0.203
69.4783 3.417 0.189
69.4988 3.188 0.182
69.5192 3.469 0.190
69.5397 3.510 0.191
69.5601 3.438 0.189
69.5806 3.188 0.182
69.6011 2.854 0.172
69.6215 2.875 0.173
69.6420 3.115 0.180
69.6625 3.177 0.182
69.6829 3.292 0.185
69.7034 3.104 0.180
69.7238 3.156 0.181
69.7443 2.990 0.176
69.7648 3.063 0.179
69.7852 2.906 0.174
69.8057 3.188 0.182
69.8262 3.385 0.188
69.8466 3.010 0.177
69.8671 3.052 0.178
69.8875 3.292 0.185
69.9080 3.083 0.179
69.9285 2.865 0.173
69.9489 2.917 0.174
69.9694 3.042 0.178
69.9899 3.250 0.184
70.0103 2.865 0.173
70.0308 3.073 0.179
70.0512 2.865 0.173
70.0717 2.833 0.172
70.0922 3.031 0.178
70.1126 3.260 0.184
70.1331 3.365 0.187
70.1536 3.021 0.177
70.1740 3.063 0.179
70.1945 3.063 0.179
70.2149 2.979 0.176
70.2354 3.010 0.177
70.2559 2.802 0.171
70.2763 3.052 0.178
70.2968 2.677 0.167
70.3173 2.917 0.174
70.3377 2.802 0.171
70.3582 3.052 0.178
70.3787 3.292 0.185
70.3991 3.167 0.182
70.4196 3.354 0.187
70.4400 2.656 0.166
70.4605 2.542 0.163
70.4810 3.063 0.179
70.5014 3.052 0.178
70.5219 3.135 0.181
70.5424 3.198 0.183
70.5628 3.031 0.178
70.5833 3.031 0.178
70.6037 3.344 0.187
70.6242 3.385 0.188
70.6447 3.615 0.194
70.6651 3.500 0.191
70.6856 3.583 0.193
70.7061 3.063 0.179
70.7265 3.646 0.195
70.7470 2.885 0.173
70.7674 3.094 0.180
70.7879 3.104 0.180
70.8084 3.198 0.183
70.8288 2.750 0.169
70.8493 3.240 0.184
70.8698 3.083 0.179
70.8902 3.229 0.183
70.9107 3.052 0.178
70.9311 2.792 0.171
70.9516 3.260 0.184
70.9721 3.240 0.184
70.9925 3.479 0.190
71.0130 3.979 0.204
71.0335 3.688 0.196
71.0539 3.573 0.193
71.0744 3.854 0.200
71.0948 3.542 0.192
71.1153 3.469 0.190
71.1358 3.375 0.188
71.1562 3.198 0.183
71.1767 3.115 0.180
71.1972 2.958 0.176
71.2176 3.302 0.185
71.2381 3.427 0.189
71.2586 3.208 0.183
71.2790 3.323 0.186
71.2995 3.188 0.182
71.3199 3.021 0.177
71.3404 3.010 0.177
71.3609 3.094 0.180
71.3813 3.010 0.177
71.4018 3.188 0.182
71.4223 3.052 0.178
71.4427 2.792 0.171
71.4632 2.688 0.167
71.4836 2.688 0.167
71.5041 3.063 0.179
71.5246 2.781 0.170
71.5450 2.865 0.173
71.5655 2.646 0.166
71.5860 2.625 0.165
71.6064 3.198 0.183
71.6269 2.833 0.172
71.6473 2.927 0.175
71.6678 3.208 0.183
71.6883 3.094 0.180
71.7087 2.813 0.171
71.7292 3.042 0.178
71.7497 2.604 0.165
71.7701 2.750 0.169
71.7906 2.771 0.170
71.8110 2.625 0.165
71.8315 2.781 0.170
71.8520 2.802 0.171
71.8724 2.719 0.168
71.8929 2.708 0.168
71.9134 2.510 0.162
71.9338 2.615 0.165
71.9543 2.771 0.170
71.9747 2.281 0.154
71.9952 2.635 0.166
72.0157 2.604 0.165
72.0361 2.594 0.164
72.0566 2.698 0.168
72.0771 2.729 0.169
72.0975 2.542 0.163
72.1180 2.448 0.160
72.1385 2.552 0.163
72.1589 2.823 0.171
72.1794 2.760 0.170
72.1998 2.740 0.169
72.2203 2.448 0.160
72.2408 2.583 0.164
72.2612 2.198 0.151
72.2817 2.417 0.159
72.3022 2.375 0.157
72.3226 2.698 0.168
72.3431 2.625 0.165
72.3635 2.573 0.164
72.3840 2.385 0.158
72.4045 2.573 0.164
72.4249 2.781 0.170
72.4454 2.510 0.162
72.4659 2.469 0.160
72.4863 2.677 0.167
72.5068 2.573 0.164
72.5272 2.604 0.165
72.5477 2.896 0.174
72.5682 2.573 0.164
72.5886 2.500 0.161
72.6091 2.885 0.173
72.6296 2.979 0.176
72.6500 2.594 0.164
72.6705 2.750 0.169
72.6909 2.885 0.173
72.7114 2.635 0.166
72.7319 2.667 0.167
72.7523 3.052 0.178
72.7728 3.000 0.177
72.7933 3.469 0.190
72.8137 3.469 0.190
72.8342 3.604 0.194
72.8547 3.708 0.197
72.8751 3.094 0.180
72.8956 3.250 0.184
72.9160 3.104 0.180
72.9365 2.802 0.171
72.9570 2.802 0.171
72.9774 2.938 0.175
72.9979 3.010 0.177
73.0184 2.927 0.175
73.0388 3.271 0.185
73.0593 2.896 0.174
73.0797 2.865 0.173
73.1002 2.625 0.165
73.1207 2.542 0.163
73.1411 2.646 0.166
73.1616 2.479 0.161
73.1821 2.104 0.148
73.2025 2.490 0.161
73.2230 2.594 0.164
73.2434 2.469 0.160
73.2639 2.323 0.156
73.2844 2.708 0.168
73.3048 2.396 0.158
73.3253 2.646 0.166
73.3458 2.260 0.153
73.3662 2.260 0.153
73.3867 2.094 0.148
73.4071 2.365 0.157
73.4276 2.438 0.159
73.4481 2.438 0.159
73.4685 2.396 0.158
73.4890 2.479 0.161
73.5095 2.552 0.163
73.5299 2.375 0.157
73.5504 2.458 0.160
73.5708 2.510 0.162
73.5913 2.313 0.155
73.6118 2.510 0.162
73.6322 2.615 0.165
73.6527 2.292 0.155
73.6732 2.313 0.155
73.6936 2.313 0.155
73.7141 2.396 0.158
73.7346 2.385 0.158
73.7550 2.615 0.165
73.7755 2.229 0.152
73.7959 2.427 0.159
73.8164 2.469 0.160
73.8369 2.354 0.157
73.8573 2.281 0.154
73.8778 2.615 0.165
73.8983 2.438 0.159
73.9187 2.333 0.156
73.9392 2.385 0.158
73.9596 2.844 0.172
73.9801 2.740 0.169
74.0006 2.813 0.171
74.0210 2.802 0.171
74.0415 2.823 0.171
74.0620 2.958 0.176
74.0824 2.885 0.173
74.1029 2.917 0.174
74.1233 2.781 0.170
74.1438 2.510 0.162
74.1643 2.688 0.167
74.1847 2.417 0.159
74.2052 2.594 0.164
74.2257 2.750 0.169
74.2461 2.625 0.165
74.2666 2.490 0.161
74.2870 2.604 0.165
74.3075 2.854 0.172
74.3280 2.542 0.163
74.3484 2.823 0.171
74.3689 2.396 0.158
74.3894 2.396 0.158
74.4098 2.417 0.159
74.4303 2.438 0.159
74.4507 2.521 0.162
74.4712 2.354 0.157
74.4917 2.625 0.165
74.5121 2.281 0.154
74.5326 2.385 0.158
74.5531 2.135 0.149
74.5735 2.271 0.154
74.5940 2.333 0.156
74.6145 2.583 0.164
74.6349 2.229 0.152
74.6554 2.156 0.150
74.6758 2.375 0.157
74.6963 2.417 0.159
74.7168 2.375 0.157
74.7372 2.365 0.157
74.7577 2.417 0.159
74.7782 2.313 0.155
74.7986 2.604 0.165
74.8191 2.802 0.171
74.8395 2.490 0.161
74.8600 2.531 0.162
74.8805 2.438 0.159
74.9009 2.448 0.160
74.9214 2.344 0.156
74.9419 2.479 0.161
74.9623 2.458 0.160
74.9828 2.365 0.157
75.0032 2.073 0.147
75.0237 2.458 0.160
75.0442 2.396 0.158
75.0646 2.198 0.151
75.0851 2.292 0.155
75.1056 2.396 0.158
75.1260 2.406 0.158
75.1465 2.260 0.153
75.1669 2.365 0.157
75.1874 2.563 0.163
75.2079 2.573 0.164
75.2283 2.583 0.164
75.2488 2.667 0.167
75.2693 2.667 0.167
75.2897 2.396 0.158
75.3102 2.240 0.153
75.3306 2.156 0.150
75.3511 2.250 0.153
75.3716 2.469 0.160
75.3920 2.406 0.158
75.4125 2.417 0.159
75.4330 2.271 0.154
75.4534 2.490 0.161
75.4739 2.344 0.156
75.4944 2.615 0.165
75.5148 2.906 0.174
75.5353 2.448 0.160
75.5557 2.875 0.173
75.5762 3.021 0.177
75.5967 2.615 0.165
75.6171 3.083 0.179
75.6376 3.188 0.182
75.6581 3.354 0.187
75.6785 3.813 0.199
75.6990 3.729 0.197
75.7194 4.281 0.211
75.7399 5.083 0.230
75.7604 5.469 0.239
75.7808 5.625 0.242
75.8013 6.344 0.257
75.8218 5.521 0.240
75.8422 5.073 0.230
75.8627 4.156 0.208
75.8831 4.104 0.207
75.9036 3.802 0.199
75.9241 3.563 0.193
75.9445 4.063 0.206
75.9650 3.813 0.199
75.9855 4.260 0.211
76.0059 4.240 0.210
76.0264 4.510 0.217
76.0468 3.927 0.202
76.0673 3.979 0.204
76.0878 3.958 0.203
76.1082 3.073 0.179
76.1287 3.010 0.177
76.1492 2.854 0.172
76.1696 3.188 0.182
76.1901 2.990 0.176
76.2105 3.063 0.179
76.2310 2.771 0.170
76.2515 2.719 0.168
76.2719 2.750 0.169
76.2924 2.781 0.170
76.3129 2.510 0.162
76.3333 2.854 0.172
76.3538 2.635 0.166
76.3743 2.479 0.161
76.3947 2.583 0.164
76.4152 2.427 0.159
76.4356 2.500 0.161
76.4561 2.438 0.159
76.4766 2.500 0.161
76.4970 2.417 0.159
76.5175 2.719 0.168
76.5380 2.563 0.163
76.5584 2.417 0.159
76.5789 2.594 0.164
76.5993 2.615 0.165
76.6198 2.542 0.163
76.6403 2.281 0.154
76.6607 2.438 0.159
76.6812 2.427 0.159
76.7017 2.313 0.155
76.7221 2.146 0.150
76.7426 2.521 0.162
76.7630 2.292 0.155
76.7835 2.302 0.155
76.8040 2.365 0.157
76.8244 2.521 0.162
76.8449 2.469 0.160
76.8654 2.583 0.164
76.8858 2.594 0.164
76.9063 2.625 0.165
76.9267 2.292 0.155
76.9472 2.240 0.153
76.9677 2.167 0.150
76.9881 2.271 0.154
77.0086 2.563 0.163
77.0291 2.302 0.155
77.0495 2.510 0.162
77.0700 2.281 0.154
77.0905 2.458 0.160
77.1109 2.469 0.160
77.1314 2.542 0.163
77.1518 2.438 0.159
77.1723 2.688 0.167
77.1928 2.500 0.161
77.2132 2.823 0.171
77.2337 2.604 0.165
77.2542 2.573 0.164
77.2746 2.646 0.166
77.2951 2.719 0.168
77.3155 2.750 0.169
77.3360 2.677 0.167
77.3565 2.688 0.167
77.3769 2.406 0.158
77.3974 3.177 0.182
77.4179 3.031 0.178
77.4383 3.146 0.181
77.4588 3.458 0.190
77.4792 3.677 0.196
77.4997 3.542 0.192
77.5202 3.698 0.196
77.5406 4.083 0.206
77.5611 3.698 0.196
77.5816 3.875 0.201
77.6020 3.146 0.181
77.6225 2.969 0.176
77.6429 3.115 0.180
77.6634 3.021 0.177
77.6839 3.073 0.179
77.7043 3.438 0.189
77.7248 3.323 0.186
77.7453 3.896 0.201
77.7657 3.490 0.191
77.7862 3.302 0.185
77.8066 3.563 0.193
77.8271 3.281 0.185
77.8476 3.563 0.193
77.8680 3.240 0.184
77.8885 2.813 0.171
77.9090 3.156 0.181
77.9294 2.833 0.172
77.9499 2.750 0.169
77.9704 2.906 0.174
77.9908 3.063 0.179
78.0113 2.771 0.170
78.0317 3.104 0.180
78.0522 2.781 0.170
78.0727 2.563 0.163
78.0931 2.552 0.163
78.1136 2.708 0.168
78.1341 2.677 0.167
78.1545 2.510 0.162
78.1750 2.458 0.160
78.1954 2.615 0.165
78.2159 2.552 0.163
78.2364 2.927 0.175
78.2568 2.698 0.168
78.2773 2.833 0.172
78.2978 2.854 0.172
78.3182 3.021 0.177
78.3387 3.063 0.179
78.3591 2.865 0.173
78.3796 3.208 0.183
78.4001 3.240 0.184
78.4205 3.260 0.184
78.4410 3.042 0.178
78.4615 2.938 0.175
78.4819 2.802 0.171
78.5024 3.125 0.180
78.5228 2.802 0.171
78.5433 3.094 0.180
78.5638 3.052 0.178
78.5842 3.177 0.182
78.6047 3.292 0.185
78.6252 3.448 0.190
78.6456 3.427 0.189
78.6661 3.417 0.189
78.6865 3.302 0.185
78.7070 2.958 0.176
78.7275 3.125 0.180
78.7479 2.979 0.176
78.7684 2.885 0.173
78.7889 3.073 0.179
78.8093 3.042 0.178
78.8298 3.031 0.178
78.8503 3.031 0.178
78.8707 2.813 0.171
78.8912 3.208 0.183
78.9116 3.188 0.182
78.9321 3.573 0.193
78.9526 3.167 0.182
78.9730 3.510 0.191
78.9935 3.375 0.188
79.0140 3.063 0.179
79.0344 3.156 0.181
79.0549 3.229 0.183
79.0753 2.813 0.171
79.0958 3.260 0.184
79.1163 2.792 0.171
79.1367 2.990 0.176
79.1572 3.000 0.177
79.1777 2.771 0.170
79.1981 3.031 0.178
79.2186 3.083 0.179
79.2390 2.885 0.173
79.2595 2.740 0.169
79.2800 2.813 0.171
79.3004 2.844 0.172
79.3209 2.750 0.169
79.3414 2.677 0.167
79.3618 2.802 0.171
79.3823 2.698 0.168
79.4027 2.885 0.173
79.4232 3.094 0.180
79.4437 2.896 0.174
79.4641 3.365 0.187
79.4846 3.250 0.184
79.5051 3.396 0.188
79.5255 3.458 0.190
79.5460 3.510 0.191
79.5664 3.479 0.190
79.5869 3.646 0.195
79.6074 3.375 0.188
79.6278 2.938 0.175
79.6483 2.729 0.169
79.6688 3.167 0.182
79.6892 2.750 0.169
79.7097 2.969 0.176
79.7302 2.760 0.170
79.7506 3.396 0.188
79.7711 3.104 0.180
79.7915 2.958 0.176
79.8120 2.979 0.176
79.8325 3.073 0.179
79.8529 2.896 0.174
79.8734 2.573 0.164
79.8939 2.823 0.171
79.9143 2.479 0.161
79.9348 2.354 0.157
79.9552 2.521 0.162
79.9757 2.385 0.158
79.9962 2.844 0.172
