'Id: "" Comment: "" Operator: "Lab Manager" Anode: "Cu" Scantype: "Locked Coupled" TimePerStep: "96" X: "0" Y: "0" Z: "0" 
5.0000 24.323 0.503
5.0205 23.510 0.495
5.0409 23.469 0.494
5.0614 23.271 0.492
5.0819 23.104 0.491
5.1023 24.375 0.504
5.1228 23.427 0.494
5.1432 22.417 0.483
5.1637 22.698 0.486
5.1842 23.115 0.491
5.2046 23.792 0.498
5.2251 23.292 0.493
5.2456 22.948 0.489
5.2660 22.427 0.483
5.2865 22.323 0.482
5.3069 22.906 0.488
5.3274 22.500 0.484
5.3479 23.188 0.491
5.3683 22.938 0.489
5.3888 22.365 0.483
5.4093 22.573 0.485
5.4297 21.906 0.478
5.4502 21.979 0.478
5.4706 21.823 0.477
5.4911 21.542 0.474
5.5116 22.396 0.483
5.5320 22.260 0.482
5.5525 22.771 0.487
5.5730 22.052 0.479
5.5934 22.198 0.481
5.6139 20.833 0.466
5.6343 21.833 0.477
5.6548 22.323 0.482
5.6753 21.583 0.474
5.6957 20.250 0.459
5.7162 21.667 0.475
5.7367 20.885 0.466
5.7571 22.417 0.483
5.7776 21.750 0.476
5.7980 21.438 0.473
5.8185 21.594 0.474
5.8390 20.698 0.464
5.8594 21.031 0.468
5.8799 21.406 0.472
5.9004 21.260 0.471
5.9208 20.781 0.465
5.9413 20.719 0.465
5.9618 21.229 0.470
5.9822 20.458 0.462
6.0027 20.198 0.459
6.0231 21.167 0.470
6.0436 20.229 0.459
6.0641 20.229 0.459
6.0845 20.000 0.456
6.1050 20.323 0.460
6.1255 20.563 0.463
6.1459 19.990 0.456
6.1664 20.656 0.464
6.1868 19.281 0.448
6.2073 20.063 0.457
6.2278 19.938 0.456
6.2482 19.969 0.456
6.2687 20.427 0.461
6.2892 20.604 0.463
6.3096 20.552 0.463
6.3301 19.313 0.449
6.3505 20.823 0.466
6.3710 20.552 0.463
6.3915 21.125 0.469
6.4119 19.563 0.451
6.4324 20.219 0.459
6.4529 20.458 0.462
6.4733 20.365 0.461
6.4938 20.250 0.459
6.5142 20.844 0.466
6.5347 20.990 0.468
6.5552 20.708 0.464
6.5756 20.740 0.465
6.5961 21.823 0.477
6.6166 22.021 0.479
6.6370 23.948 0.499
6.6575 25.365 0.514
6.6779 32.583 0.583
6.6984 40.573 0.650
6.7189 43.740 0.675
6.7393 37.979 0.629
6.7598 30.188 0.561
6.7803 24.906 0.509
6.8007 22.771 0.487
6.8212 21.177 0.470
6.8417 20.948 0.467
6.8621 20.875 0.466
6.8826 20.688 0.464
6.9030 20.948 0.467
6.9235 20.854 0.466
6.9440 20.333 0.460
6.9644 21.063 0.468
6.9849 20.323 0.460
7.0054 20.854 0.466
7.0258 19.729 0.453
7.0463 19.271 0.448
7.0667 20.667 0.464
7.0872 20.281 0.460
7.1077 20.729 0.465
7.1281 20.042 0.457
7.1486 21.115 0.469
7.1691 19.927 0.456
7.1895 19.281 0.448
7.2100 20.458 0.462
7.2304 20.552 0.463
7.2509 20.521 0.462
7.2714 19.604 0.452
7.2918 19.917 0.455
7.3123 20.052 0.457
7.3328 20.313 0.460
7.3532 20.750 0.465
7.3737 20.833 0.466
7.3941 19.813 0.454
7.4146 19.896 0.455
7.4351 19.979 0.456
7.4555 20.760 0.465
7.4760 20.219 0.459
7.4965 20.250 0.459
7.5169 19.917 0.455
7.5374 19.406 0.450
7.5579 20.125 0.458
7.5783 20.031 0.457
7.5988 20.677 0.464
7.6192 20.219 0.459
7.6397 20.510 0.462
7.6602 21.125 0.469
7.6806 20.667 0.464
7.7011 19.823 0.454
7.7216 20.010 0.457
7.7420 20.198 0.459
7.7625 20.052 0.457
7.7829 19.938 0.456
7.8034 19.510 0.451
7.8239 21.885 0.477
7.8443 19.813 0.454
7.8648 20.333 0.460
7.8853 20.583 0.463
7.9057 20.813 0.466
7.9262 20.063 0.457
7.9466 19.646 0.452
7.9671 20.229 0.459
7.9876 20.688 0.464
8.0080 19.563 0.451
8.0285 20.313 0.460
8.0490 20.167 0.458
8.0694 20.208 0.459
8.0899 19.813 0.454
8.1103 20.344 0.460
8.1308 19.938 0.456
8.1513 19.990 0.456
8.1717 20.063 0.457
8.1922 20.563 0.463
8.2127 20.573 0.463
8.2331 19.771 0.454
8.2536 21.073 0.469
8.2740 20.094 0.458
8.2945 21.094 0.469
8.3150 20.323 0.460
8.3354 20.333 0.460
8.3559 20.927 0.467
8.3764 20.417 0.461
8.3968 20.833 0.466
8.4173 21.188 0.470
8.4378 19.844 0.455
8.4582 20.573 0.463
8.4787 20.719 0.465
8.4991 20.479 0.462
8.5196 20.365 0.461
8.5401 20.927 0.467
8.5605 21.344 0.472
8.5810 20.948 0.467
8.6015 20.844 0.466
8.6219 20.208 0.459
8.6424 20.302 0.460
8.6628 20.719 0.465
8.6833 20.688 0.464
8.7038 20.344 0.460
8.7242 20.729 0.465
8.7447 20.938 0.467
8.7652 20.740 0.465
8.7856 21.156 0.469
8.8061 20.948 0.467
8.8265 21.104 0.469
8.8470 21.458 0.473
8.8675 21.906 0.478
8.8879 22.333 0.482
8.9084 23.083 0.490
8.9289 23.323 0.493
8.9493 22.740 0.487
8.9698 22.146 0.480
8.9902 22.760 0.487
9.0107 22.604 0.485
9.0312 23.344 0.493
9.0516 24.313 0.503
9.0721 24.542 0.506
9.0926 26.948 0.530
9.1130 26.667 0.527
9.1335 27.240 0.533
9.1539 28.719 0.547
9.1744 30.479 0.563
9.1949 34.906 0.603
9.2153 38.281 0.631
9.2358 41.167 0.655
9.2563 48.563 0.711
9.2767 51.958 0.736
9.2972 54.177 0.751
9.3177 55.521 0.760
9.3381 52.729 0.741
9.3586 50.521 0.725
9.3790 48.281 0.709
9.3995 46.500 0.696
9.4200 46.094 0.693
9.4404 45.406 0.688
9.4609 45.625 0.689
9.4814 48.042 0.707
9.5018 49.052 0.715
9.5223 50.094 0.722
9.5427 52.771 0.741
9.5632 57.344 0.773
9.5837 59.698 0.789
9.6041 62.750 0.808
9.6246 66.083 0.830
9.6451 70.531 0.857
9.6655 74.313 0.880
9.6860 80.563 0.916
9.7064 87.417 0.954
9.7269 97.698 1.009
9.7474 111.844 1.079
9.7678 134.906 1.185
9.7883 166.010 1.315
9.8088 212.115 1.486
9.8292 277.771 1.701
9.8497 361.188 1.940
9.8701 466.750 2.205
9.8906 567.500 2.431
9.9111 537.865 2.367
9.9315 374.031 1.974
9.9520 203.740 1.457
9.9725 115.198 1.095
9.9929 81.188 0.920
10.0134 64.792 0.822
10.0338 56.042 0.764
10.0543 50.177 0.723
10.0748 47.323 0.702
10.0952 44.260 0.679
10.1157 40.646 0.651
10.1362 37.688 0.627
10.1566 34.469 0.599
10.1771 32.260 0.580
10.1976 30.188 0.561
10.2180 29.490 0.554
10.2385 28.323 0.543
10.2589 26.833 0.529
10.2794 27.010 0.530
10.2999 25.667 0.517
10.3203 25.615 0.517
10.3408 24.260 0.503
10.3613 24.396 0.504
10.3817 23.979 0.500
10.4022 22.563 0.485
10.4226 23.635 0.496
10.4431 23.094 0.490
10.4636 23.333 0.493
10.4840 22.490 0.484
10.5045 22.292 0.482
10.5250 21.229 0.470
10.5454 21.583 0.474
10.5659 21.135 0.469
10.5863 21.802 0.477
10.6068 20.750 0.465
10.6273 20.875 0.466
10.6477 20.875 0.466
10.6682 20.875 0.466
10.6887 20.573 0.463
10.7091 21.479 0.473
10.7296 20.406 0.461
10.7500 19.833 0.455
10.7705 19.917 0.455
10.7910 19.729 0.453
10.8114 20.156 0.458
10.8319 19.688 0.453
10.8524 18.656 0.441
10.8728 20.115 0.458
10.8933 19.844 0.455
10.9137 19.198 0.447
10.9342 19.240 0.448
10.9547 18.771 0.442
10.9751 18.781 0.442
10.9956 19.427 0.450
11.0161 18.635 0.441
11.0365 19.177 0.447
11.0570 17.958 0.433
11.0775 18.938 0.444
11.0979 17.917 0.432
11.1184 18.146 0.435
11.1388 18.438 0.438
11.1593 17.552 0.428
11.1798 17.802 0.431
11.2002 17.740 0.430
11.2207 17.229 0.424
11.2412 17.781 0.430
11.2616 17.625 0.428
11.2821 17.031 0.421
11.3025 17.333 0.425
11.3230 18.083 0.434
11.3435 16.594 0.416
11.3639 17.365 0.425
11.3844 16.708 0.417
11.4049 16.719 0.417
11.4253 17.354 0.425
11.4458 17.104 0.422
11.4662 16.448 0.414
11.4867 16.969 0.420
11.5072 16.583 0.416
11.5276 17.042 0.421
11.5481 16.146 0.410
11.5686 16.271 0.412
11.5890 16.771 0.418
11.6095 16.292 0.412
11.6299 16.667 0.417
11.6504 16.938 0.420
11.6709 16.833 0.419
11.6913 16.417 0.414
11.7118 16.469 0.414
11.7323 16.656 0.417
11.7527 15.813 0.406
11.7732 15.760 0.405
11.7937 16.146 0.410
11.8141 15.865 0.407
11.8346 16.083 0.409
11.8550 16.135 0.410
11.8755 15.438 0.401
11.8960 15.281 0.399
11.9164 15.927 0.407
11.9369 15.083 0.396
11.9574 15.385 0.400
11.9778 15.333 0.400
11.9983 15.417 0.401
12.0187 15.646 0.404
12.0392 15.510 0.402
12.0597 15.552 0.402
12.0801 15.063 0.396
12.1006 14.948 0.395
12.1211 15.219 0.398
12.1415 14.813 0.393
12.1620 14.948 0.395
12.1824 14.531 0.389
12.2029 14.563 0.389
12.2234 14.667 0.391
12.2438 15.010 0.395
12.2643 13.979 0.382
12.2848 14.990 0.395
12.3052 14.833 0.393
12.3257 14.188 0.384
12.3461 14.094 0.383
12.3666 14.656 0.391
12.3871 14.885 0.394
12.4075 14.385 0.387
12.4280 14.188 0.384
12.4485 13.469 0.375
12.4689 14.156 0.384
12.4894 13.990 0.382
12.5098 14.604 0.390
12.5303 13.844 0.380
12.5508 14.156 0.384
12.5712 13.594 0.376
12.5917 13.656 0.377
12.6122 14.427 0.388
12.6326 13.323 0.373
12.6531 13.688 0.378
12.6736 13.719 0.378
12.6940 12.698 0.364
12.7145 13.177 0.370
12.7349 12.969 0.368
12.7554 13.635 0.377
12.7759 14.063 0.383
12.7963 13.031 0.368
12.8168 13.021 0.368
12.8373 13.396 0.374
12.8577 12.708 0.364
12.8782 13.427 0.374
12.8986 13.125 0.370
12.9191 13.094 0.369
12.9396 13.188 0.371
12.9600 12.302 0.358
12.9805 12.635 0.363
13.0010 12.604 0.362
13.0214 12.927 0.367
13.0419 13.021 0.368
13.0623 12.635 0.363
13.0828 12.948 0.367
13.1033 13.740 0.378
13.1237 12.656 0.363
13.1442 13.031 0.368
13.1647 12.354 0.359
13.1851 12.281 0.358
13.2056 12.979 0.368
13.2260 12.719 0.364
13.2465 12.865 0.366
13.2670 13.021 0.368
13.2874 12.521 0.361
13.3079 12.885 0.366
13.3284 11.979 0.353
13.3488 13.542 0.376
13.3693 13.333 0.373
13.3897 13.458 0.374
13.4102 13.646 0.377
13.4307 13.990 0.382
13.4511 13.531 0.375
13.4716 13.229 0.371
13.4921 12.219 0.357
13.5125 12.438 0.360
13.5330 12.281 0.358
13.5535 12.031 0.354
13.5739 11.813 0.351
13.5944 11.708 0.349
13.6148 11.948 0.353
13.6353 12.542 0.361
13.6558 12.490 0.361
13.6762 12.052 0.354
13.6967 11.813 0.351
13.7172 11.177 0.341
13.7376 11.958 0.353
13.7581 11.646 0.348
13.7785 11.177 0.341
13.7990 11.792 0.350
13.8195 11.448 0.345
13.8399 11.479 0.346
13.8604 11.396 0.345
13.8809 12.083 0.355
13.9013 11.344 0.344
13.9218 11.781 0.350
13.9422 11.542 0.347
13.9627 10.969 0.338
13.9832 11.146 0.341
14.0036 11.313 0.343
14.0241 11.625 0.348
14.0446 10.979 0.338
14.0650 11.083 0.340
14.0855 11.354 0.344
14.1059 11.313 0.343
14.1264 10.458 0.330
14.1469 11.542 0.347
14.1673 10.938 0.338
14.1878 11.375 0.344
14.2083 11.385 0.344
14.2287 11.469 0.346
14.2492 11.740 0.350
14.2696 10.958 0.338
14.2901 11.667 0.349
14.3106 10.948 0.338
14.3310 10.625 0.333
14.3515 10.792 0.335
14.3720 10.313 0.328
14.3924 10.740 0.334
14.4129 10.802 0.335
14.4334 11.292 0.343
14.4538 10.677 0.333
14.4743 11.000 0.339
14.4947 11.083 0.340
14.5152 10.646 0.333
14.5357 10.135 0.325
14.5561 10.354 0.328
14.5766 10.729 0.334
14.5971 10.573 0.332
14.6175 10.375 0.329
14.6380 10.396 0.329
14.6584 11.281 0.343
14.6789 10.594 0.332
14.6994 11.177 0.341
14.7198 10.635 0.333
14.7403 10.625 0.333
14.7608 10.885 0.337
14.7812 10.073 0.324
14.8017 10.396 0.329
14.8221 10.563 0.332
14.8426 10.521 0.331
14.8631 10.521 0.331
14.8835 10.490 0.331
14.9040 10.677 0.333
14.9245 10.781 0.335
14.9449 10.219 0.326
14.9654 10.208 0.326
14.9858 10.167 0.325
15.0063 10.677 0.333
15.0268 10.010 0.323
15.0472 11.167 0.341
15.0677 10.365 0.329
15.0882 10.438 0.330
15.1086 10.375 0.329
15.1291 10.323 0.328
15.1495 10.531 0.331
15.1700 9.719 0.318
15.1905 10.458 0.330
15.2109 10.010 0.323
15.2314 9.792 0.319
15.2519 9.708 0.318
15.2723 10.031 0.323
15.2928 9.542 0.315
15.3133 10.063 0.324
15.3337 9.844 0.320
15.3542 10.646 0.333
15.3746 10.854 0.336
15.3951 9.729 0.318
15.4156 9.792 0.319
15.4360 10.417 0.329
15.4565 10.427 0.330
15.4770 9.604 0.316
15.4974 9.771 0.319
15.5179 9.479 0.314
15.5383 9.729 0.318
15.5588 9.583 0.316
15.5793 10.156 0.325
15.5997 10.281 0.327
15.6202 10.396 0.329
15.6407 9.948 0.322
15.6611 9.750 0.319
15.6816 10.292 0.327
15.7020 9.906 0.321
15.7225 10.042 0.323
15.7430 10.406 0.329
15.7634 10.604 0.332
15.7839 9.990 0.323
15.8044 9.208 0.310
15.8248 10.198 0.326
15.8453 9.844 0.320
15.8657 9.042 0.307
15.8862 9.656 0.317
15.9067 9.573 0.316
15.9271 9.865 0.321
15.9476 9.865 0.321
15.9681 10.094 0.324
15.9885 9.438 0.314
16.0090 9.333 0.312
16.0295 9.656 0.317
16.0499 9.948 0.322
16.0704 9.781 0.319
16.0908 9.427 0.313
16.1113 9.729 0.318
16.1318 9.448 0.314
16.1522 9.198 0.310
16.1727 9.146 0.309
16.1932 9.594 0.316
16.2136 9.875 0.321
16.2341 9.510 0.315
16.2545 9.854 0.320
16.2750 10.625 0.333
16.2955 9.594 0.316
16.3159 9.521 0.315
16.3364 10.104 0.324
16.3569 9.573 0.316
16.3773 9.802 0.320
16.3978 9.990 0.323
16.4182 9.698 0.318
16.4387 9.979 0.322
16.4592 9.906 0.321
16.4796 10.021 0.323
16.5001 10.271 0.327
16.5206 8.792 0.303
16.5410 9.240 0.310
16.5615 10.385 0.329
16.5819 10.510 0.331
16.6024 9.354 0.312
16.6229 9.781 0.319
16.6433 9.656 0.317
16.6638 9.885 0.321
16.6843 10.063 0.324
16.7047 9.469 0.314
16.7252 9.823 0.320
16.7456 10.302 0.328
16.7661 10.042 0.323
16.7866 9.667 0.317
16.8070 9.719 0.318
16.8275 9.635 0.317
16.8480 9.844 0.320
16.8684 10.271 0.327
16.8889 10.010 0.323
16.9094 9.729 0.318
16.9298 9.802 0.320
16.9503 9.656 0.317
16.9707 9.604 0.316
16.9912 10.313 0.328
17.0117 9.240 0.310
17.0321 8.875 0.304
17.0526 9.490 0.314
17.0731 9.917 0.321
17.0935 9.719 0.318
17.1140 9.625 0.317
17.1344 9.510 0.315
17.1549 10.031 0.323
17.1754 9.667 0.317
17.1958 10.635 0.333
17.2163 10.104 0.324
17.2368 10.323 0.328
17.2572 10.385 0.329
17.2777 9.906 0.321
17.2981 10.375 0.329
17.3186 10.719 0.334
17.3391 10.604 0.332
17.3595 10.844 0.336
17.3800 10.469 0.330
17.4005 10.438 0.330
17.4209 10.938 0.338
17.4414 10.010 0.323
17.4618 11.240 0.342
17.4823 10.938 0.338
17.5028 10.823 0.336
17.5232 10.781 0.335
17.5437 11.531 0.347
17.5642 11.656 0.348
17.5846 12.427 0.360
17.6051 11.740 0.350
17.6255 11.385 0.344
17.6460 11.406 0.345
17.6665 11.813 0.351
17.6869 11.969 0.353
17.7074 12.354 0.359
17.7279 12.938 0.367
17.7483 12.781 0.365
17.7688 13.302 0.372
17.7893 13.688 0.378
17.8097 13.938 0.381
17.8302 13.979 0.382
17.8506 14.729 0.392
17.8711 14.354 0.387
17.8916 15.125 0.397
17.9120 15.052 0.396
17.9325 15.823 0.406
17.9530 15.698 0.404
17.9734 16.531 0.415
17.9939 16.396 0.413
18.0143 17.313 0.425
18.0348 18.594 0.440
18.0553 20.438 0.461
18.0757 22.438 0.483
18.0962 22.938 0.489
18.1167 21.500 0.473
18.1371 21.865 0.477
18.1576 20.688 0.464
18.1780 20.063 0.457
18.1985 20.260 0.459
18.2190 19.813 0.454
18.2394 20.177 0.458
18.2599 20.406 0.461
18.2804 21.438 0.473
18.3008 20.729 0.465
18.3213 22.313 0.482
18.3417 21.917 0.478
18.3622 22.594 0.485
18.3827 22.635 0.486
18.4031 21.906 0.478
18.4236 22.229 0.481
18.4441 22.125 0.480
18.4645 23.740 0.497
18.4850 23.479 0.495
18.5054 24.385 0.504
18.5259 25.219 0.513
18.5464 25.396 0.514
18.5668 26.865 0.529
18.5873 28.396 0.544
18.6078 29.792 0.557
18.6282 30.156 0.560
18.6487 28.281 0.543
18.6692 27.833 0.538
18.6896 27.052 0.531
18.7101 25.969 0.520
18.7305 26.073 0.521
18.7510 23.438 0.494
18.7715 24.010 0.500
18.7919 23.552 0.495
18.8124 22.625 0.485
18.8329 22.510 0.484
18.8533 21.135 0.469
18.8738 21.125 0.469
18.8942 20.354 0.460
18.9147 19.573 0.452
18.9352 19.531 0.451
18.9556 19.281 0.448
18.9761 18.333 0.437
18.9966 16.302 0.412
19.0170 17.417 0.426
19.0375 17.531 0.427
19.0579 17.417 0.426
19.0784 16.552 0.415
19.0989 16.438 0.414
19.1193 17.083 0.422
19.1398 16.917 0.420
19.1603 16.479 0.414
19.1807 16.729 0.417
19.2012 17.208 0.423
19.2216 16.740 0.418
19.2421 16.458 0.414
19.2626 16.198 0.411
19.2830 15.771 0.405
19.3035 16.198 0.411
19.3240 16.781 0.418
19.3444 16.063 0.409
19.3649 16.188 0.411
19.3853 15.813 0.406
19.4058 15.938 0.407
19.4263 16.823 0.419
19.4467 17.719 0.430
19.4672 17.177 0.423
19.4877 17.510 0.427
19.5081 16.844 0.419
19.5286 18.375 0.438
19.5491 18.438 0.438
19.5695 18.656 0.441
19.5900 20.635 0.464
19.6104 20.896 0.467
19.6309 21.719 0.476
19.6514 23.875 0.499
19.6718 25.490 0.515
19.6923 27.219 0.532
19.7128 30.615 0.565
19.7332 34.917 0.603
19.7537 42.094 0.662
19.7741 54.010 0.750
19.7946 72.490 0.869
19.8151 98.115 1.011
19.8355 125.979 1.146
19.8560 133.240 1.178
19.8765 102.698 1.034
19.8969 85.198 0.942
19.9174 60.281 0.792
19.9378 37.802 0.628
19.9583 27.667 0.537
19.9788 23.656 0.496
19.9992 20.979 0.467
20.0197 19.927 0.456
20.0402 19.354 0.449
20.0606 18.750 0.442
20.0811 17.990 0.433
20.1015 17.167 0.423
20.1220 18.354 0.437
20.1425 17.833 0.431
20.1629 18.708 0.441
20.1834 19.333 0.449
20.2039 19.010 0.445
20.2243 19.344 0.449
20.2448 19.688 0.453
20.2653 19.625 0.452
20.2857 20.323 0.460
20.3062 19.969 0.456
20.3266 20.750 0.465
20.3471 21.240 0.470
20.3676 20.344 0.460
20.3880 21.667 0.475
20.4085 20.010 0.457
20.4290 20.563 0.463
20.4494 20.260 0.459
20.4699 19.979 0.456
20.4903 20.146 0.458
20.5108 19.594 0.452
20.5313 19.104 0.446
20.5517 19.240 0.448
20.5722 18.427 0.438
20.5927 17.438 0.426
20.6131 16.510 0.415
20.6336 15.948 0.408
20.6540 14.948 0.395
20.6745 14.458 0.388
20.6950 14.625 0.390
20.7154 13.969 0.381
20.7359 13.521 0.375
20.7564 12.563 0.362
20.7768 13.042 0.369
20.7973 11.906 0.352
20.8177 12.073 0.355
20.8382 11.990 0.353
20.8587 11.958 0.353
20.8791 11.969 0.353
20.8996 11.302 0.343
20.9201 11.479 0.346
20.9405 11.302 0.343
20.9610 10.448 0.330
20.9814 10.604 0.332
21.0019 11.073 0.340
21.0224 10.688 0.334
21.0428 10.594 0.332
21.0633 10.219 0.326
21.0838 10.094 0.324
21.1042 10.563 0.332
21.1247 10.302 0.328
21.1452 10.198 0.326
21.1656 10.094 0.324
21.1861 9.625 0.317
21.2065 10.073 0.324
21.2270 10.927 0.337
21.2475 10.250 0.327
21.2679 10.292 0.327
21.2884 10.469 0.330
21.3089 10.271 0.327
21.3293 9.979 0.322
21.3498 9.677 0.317
21.3702 10.073 0.324
21.3907 9.552 0.315
21.4112 9.625 0.317
21.4316 9.667 0.317
21.4521 10.313 0.328
21.4726 10.292 0.327
21.4930 9.604 0.316
21.5135 9.813 0.320
21.5339 9.875 0.321
21.5544 10.760 0.335
21.5749 10.281 0.327
21.5953 10.167 0.325
21.6158 10.552 0.332
21.6363 10.656 0.333
21.6567 10.594 0.332
21.6772 10.646 0.333
21.6976 11.052 0.339
21.7181 11.552 0.347
21.7386 10.323 0.328
21.7590 11.052 0.339
21.7795 10.656 0.333
21.8000 11.688 0.349
21.8204 10.438 0.330
21.8409 10.573 0.332
21.8613 10.656 0.333
21.8818 10.177 0.326
21.9023 10.094 0.324
21.9227 10.542 0.331
21.9432 11.021 0.339
21.9637 12.229 0.357
21.9841 12.156 0.356
22.0046 11.583 0.347
22.0251 12.740 0.364
22.0455 13.406 0.374
22.0660 13.979 0.382
22.0864 16.344 0.413
22.1069 19.000 0.445
22.1274 23.625 0.496
22.1478 30.656 0.565
22.1683 42.104 0.662
22.1888 49.635 0.719
22.2092 50.823 0.728
22.2297 44.135 0.678
22.2501 38.760 0.635
22.2706 31.708 0.575
22.2911 25.073 0.511
22.3115 20.469 0.462
22.3320 18.406 0.438
22.3525 16.479 0.414
22.3729 16.146 0.410
22.3934 15.073 0.396
22.4138 14.417 0.388
22.4343 13.667 0.377
22.4548 13.469 0.375
22.4752 12.854 0.366
22.4957 12.406 0.359
22.5162 12.344 0.359
22.5366 11.125 0.340
22.5571 11.500 0.346
22.5775 11.292 0.343
22.5980 11.208 0.342
22.6185 10.271 0.327
22.6389 10.677 0.333
22.6594 10.490 0.331
22.6799 10.677 0.333
22.7003 10.531 0.331
22.7208 9.979 0.322
22.7412 9.958 0.322
22.7617 10.177 0.326
22.7822 10.823 0.336
22.8026 9.885 0.321
22.8231 9.896 0.321
22.8436 10.188 0.326
22.8640 9.854 0.320
22.8845 10.073 0.324
22.9050 10.063 0.324
22.9254 10.219 0.326
22.9459 10.104 0.324
22.9663 9.927 0.322
22.9868 9.698 0.318
23.0073 10.188 0.326
23.0277 9.552 0.315
23.0482 9.146 0.309
23.0687 9.708 0.318
23.0891 9.260 0.311
23.1096 10.073 0.324
23.1300 9.813 0.320
23.1505 9.313 0.311
23.1710 9.229 0.310
23.1914 9.333 0.312
23.2119 9.177 0.309
23.2324 9.646 0.317
23.2528 9.323 0.312
23.2733 9.698 0.318
23.2937 9.667 0.317
23.3142 9.698 0.318
23.3347 9.167 0.309
23.3551 9.208 0.310
23.3756 9.458 0.314
23.3961 9.573 0.316
23.4165 8.938 0.305
23.4370 9.490 0.314
23.4574 9.865 0.321
23.4779 10.010 0.323
23.4984 9.896 0.321
23.5188 10.010 0.323
23.5393 9.479 0.314
23.5598 10.094 0.324
23.5802 10.563 0.332
23.6007 10.760 0.335
23.6211 11.417 0.345
23.6416 12.271 0.358
23.6621 12.302 0.358
23.6825 11.677 0.349
23.7030 11.344 0.344
23.7235 11.292 0.343
23.7439 10.104 0.324
23.7644 9.583 0.316
23.7849 9.521 0.315
23.8053 8.802 0.303
23.8258 8.781 0.302
23.8462 8.917 0.305
23.8667 8.479 0.297
23.8872 8.260 0.293
23.9076 8.313 0.294
23.9281 8.135 0.291
23.9486 8.469 0.297
23.9690 8.271 0.294
23.9895 8.115 0.291
24.0099 7.917 0.287
24.0304 7.948 0.288
24.0509 8.094 0.290
24.0713 7.813 0.285
24.0918 7.688 0.283
24.1123 8.260 0.293
24.1327 8.490 0.297
24.1532 8.313 0.294
24.1736 8.229 0.293
24.1941 8.594 0.299
24.2146 8.396 0.296
24.2350 8.333 0.295
24.2555 8.542 0.298
24.2760 9.365 0.312
24.2964 9.677 0.317
24.3169 11.844 0.351
24.3373 11.594 0.348
24.3578 11.625 0.348
24.3783 10.563 0.332
24.3987 10.354 0.328
24.4192 9.125 0.308
24.4397 9.438 0.314
24.4601 7.708 0.283
24.4806 8.635 0.300
24.5011 8.177 0.292
24.5215 8.115 0.291
24.5420 7.667 0.283
24.5624 7.635 0.282
24.5829 8.104 0.291
24.6034 7.531 0.280
24.6238 7.896 0.287
24.6443 7.302 0.276
24.6648 7.635 0.282
24.6852 7.385 0.277
24.7057 7.500 0.280
24.7261 7.875 0.286
24.7466 7.156 0.273
24.7671 7.510 0.280
24.7875 7.917 0.287
24.8080 7.250 0.275
24.8285 7.292 0.276
24.8489 6.906 0.268
24.8694 7.323 0.276
24.8898 7.344 0.277
24.9103 7.990 0.288
24.9308 7.104 0.272
24.9512 7.448 0.279
24.9717 6.917 0.268
24.9922 6.938 0.269
25.0126 7.781 0.285
25.0331 6.979 0.270
25.0535 7.260 0.275
25.0740 7.396 0.278
25.0945 7.802 0.285
25.1149 7.677 0.283
25.1354 7.583 0.281
25.1559 7.146 0.273
25.1763 7.281 0.275
25.1968 7.177 0.273
25.2172 7.427 0.278
25.2377 7.135 0.273
25.2582 6.771 0.266
25.2786 7.802 0.285
25.2991 7.083 0.272
25.3196 7.146 0.273
25.3400 7.146 0.273
25.3605 7.490 0.279
25.3810 7.271 0.275
25.4014 7.063 0.271
25.4219 7.219 0.274
25.4423 7.198 0.274
25.4628 6.750 0.265
25.4833 7.344 0.277
25.5037 7.229 0.274
25.5242 7.396 0.278
25.5447 7.177 0.273
25.5651 7.083 0.272
25.5856 7.677 0.283
25.6060 7.302 0.276
25.6265 6.875 0.268
25.6470 7.521 0.280
25.6674 7.302 0.276
25.6879 7.115 0.272
25.7084 7.469 0.279
25.7288 7.094 0.272
25.7493 6.750 0.265
25.7697 7.094 0.272
25.7902 7.219 0.274
25.8107 7.104 0.272
25.8311 7.448 0.279
25.8516 7.271 0.275
25.8721 7.281 0.275
25.8925 7.385 0.277
25.9130 7.500 0.280
25.9334 7.563 0.281
25.9539 7.240 0.275
25.9744 7.344 0.277
25.9948 7.188 0.274
26.0153 6.646 0.263
26.0358 6.917 0.268
26.0562 7.333 0.276
26.0767 7.990 0.288
26.0971 6.917 0.268
26.1176 7.802 0.285
26.1381 7.427 0.278
26.1585 7.542 0.280
26.1790 7.823 0.285
26.1995 7.240 0.275
26.2199 7.469 0.279
26.2404 7.875 0.286
26.2609 7.260 0.275
26.2813 7.427 0.278
26.3018 7.281 0.275
26.3222 7.094 0.272
26.3427 7.646 0.282
26.3632 7.344 0.277
26.3836 7.625 0.282
26.4041 7.323 0.276
26.4246 7.844 0.286
26.4450 7.438 0.278
26.4655 7.167 0.273
26.4859 7.802 0.285
26.5064 7.365 0.277
26.5269 7.531 0.280
26.5473 8.010 0.289
26.5678 7.375 0.277
26.5883 7.938 0.288
26.6087 8.292 0.294
26.6292 7.635 0.282
26.6496 8.031 0.289
26.6701 7.917 0.287
26.6906 7.510 0.280
26.7110 7.479 0.279
26.7315 7.990 0.288
26.7520 7.760 0.284
26.7724 7.542 0.280
26.7929 7.135 0.273
26.8133 7.365 0.277
26.8338 7.292 0.276
26.8543 7.594 0.281
26.8747 6.969 0.269
26.8952 7.229 0.274
26.9157 7.708 0.283
26.9361 7.542 0.280
26.9566 6.771 0.266
26.9770 7.844 0.286
26.9975 7.167 0.273
27.0180 7.219 0.274
27.0384 7.365 0.277
27.0589 6.917 0.268
27.0794 7.885 0.287
27.0998 7.427 0.278
27.1203 7.427 0.278
27.1408 6.990 0.270
27.1612 7.500 0.280
27.1817 7.188 0.274
27.2021 7.479 0.279
27.2226 7.104 0.272
27.2431 7.333 0.276
27.2635 7.125 0.272
27.2840 6.542 0.261
27.3045 7.271 0.275
27.3249 7.333 0.276
27.3454 7.646 0.282
27.3658 7.052 0.271
27.3863 7.208 0.274
27.4068 7.333 0.276
27.4272 7.198 0.274
27.4477 7.177 0.273
27.4682 7.365 0.277
27.4886 7.208 0.274
27.5091 7.521 0.280
27.5295 6.854 0.267
27.5500 7.104 0.272
27.5705 7.073 0.271
27.5909 6.802 0.266
27.6114 7.281 0.275
27.6319 7.406 0.278
27.6523 7.885 0.287
27.6728 7.479 0.279
27.6932 7.740 0.284
27.7137 7.365 0.277
27.7342 6.990 0.270
27.7546 7.531 0.280
27.7751 7.167 0.273
27.7956 7.292 0.276
27.8160 7.302 0.276
27.8365 7.521 0.280
27.8569 7.188 0.274
27.8774 7.563 0.281
27.8979 7.563 0.281
27.9183 6.927 0.269
27.9388 7.448 0.279
27.9593 7.531 0.280
27.9797 7.917 0.287
28.0002 7.990 0.288
28.0207 7.615 0.282
28.0411 7.594 0.281
28.0616 7.292 0.276
28.0820 7.042 0.271
28.1025 7.135 0.273
28.1230 6.833 0.267
28.1434 7.625 0.282
28.1639 7.021 0.270
28.1844 7.198 0.274
28.2048 6.844 0.267
28.2253 7.052 0.271
28.2457 6.760 0.265
28.2662 6.792 0.266
28.2867 7.063 0.271
28.3071 6.823 0.267
28.3276 7.052 0.271
28.3481 7.240 0.275
28.3685 7.021 0.270
28.3890 7.260 0.275
28.4094 6.844 0.267
28.4299 6.635 0.263
28.4504 6.583 0.262
28.4708 6.927 0.269
28.4913 7.344 0.277
28.5118 7.188 0.274
28.5322 6.823 0.267
28.5527 6.698 0.264
28.5731 6.677 0.264
28.5936 6.781 0.266
28.6141 7.010 0.270
28.6345 6.448 0.259
28.6550 6.594 0.262
28.6755 6.958 0.269
28.6959 6.500 0.260
28.7164 7.417 0.278
28.7368 7.094 0.272
28.7573 6.667 0.264
28.7778 6.906 0.268
28.7982 7.167 0.273
28.8187 6.833 0.267
28.8392 6.635 0.263
28.8596 6.552 0.261
28.8801 6.958 0.269
28.9006 6.490 0.260
28.9210 7.073 0.271
28.9415 6.531 0.261
28.9619 6.469 0.260
28.9824 6.458 0.259
29.0029 6.750 0.265
29.0233 6.813 0.266
29.0438 6.573 0.262
29.0643 6.771 0.266
29.0847 6.344 0.257
29.1052 6.385 0.258
29.1256 6.313 0.256
29.1461 6.771 0.266
29.1666 6.354 0.257
29.1870 6.542 0.261
29.2075 6.917 0.268
29.2280 6.510 0.260
29.2484 6.177 0.254
29.2689 6.240 0.255
29.2893 7.156 0.273
29.3098 6.771 0.266
29.3303 7.583 0.281
29.3507 7.229 0.274
29.3712 7.281 0.275
29.3917 7.198 0.274
29.4121 7.188 0.274
29.4326 6.958 0.269
29.4530 6.958 0.269
29.4735 6.354 0.257
29.4940 6.521 0.261
29.5144 6.448 0.259
29.5349 6.354 0.257
29.5554 6.479 0.260
29.5758 6.885 0.268
29.5963 6.500 0.260
29.6168 6.271 0.256
29.6372 6.260 0.255
29.6577 6.531 0.261
29.6781 6.260 0.255
29.6986 6.406 0.258
29.7191 6.427 0.259
29.7395 6.573 0.262
29.7600 6.333 0.257
29.7805 6.406 0.258
29.8009 6.385 0.258
29.8214 6.208 0.254
29.8418 5.740 0.245
29.8623 6.302 0.256
29.8828 6.260 0.255
29.9032 6.083 0.252
29.9237 6.406 0.258
29.9442 6.563 0.261
29.9646 6.479 0.260
29.9851 6.104 0.252
30.0055 6.854 0.267
30.0260 6.646 0.263
30.0465 6.135 0.253
30.0669 6.375 0.258
30.0874 6.521 0.261
30.1079 6.115 0.252
30.1283 6.719 0.265
30.1488 6.063 0.251
30.1692 5.969 0.249
30.1897 6.500 0.260
30.2102 5.552 0.240
30.2306 6.646 0.263
30.2511 5.802 0.246
30.2716 6.656 0.263
30.2920 6.427 0.259
30.3125 5.906 0.248
30.3329 6.125 0.253
30.3534 6.427 0.259
30.3739 6.438 0.259
30.3943 6.740 0.265
30.4148 6.042 0.251
30.4353 6.396 0.258
30.4557 6.594 0.262
30.4762 6.646 0.263
30.4967 5.917 0.248
30.5171 6.323 0.257
30.5376 6.313 0.256
30.5580 6.729 0.265
30.5785 6.365 0.257
30.5990 6.896 0.268
30.6194 6.615 0.262
30.6399 6.792 0.266
30.6604 6.667 0.264
30.6808 6.458 0.259
30.7013 7.229 0.274
30.7217 6.500 0.260
30.7422 6.813 0.266
30.7627 7.448 0.279
30.7831 7.667 0.283
30.8036 7.094 0.272
30.8241 8.094 0.290
30.8445 8.552 0.298
30.8650 8.750 0.302
30.8854 10.250 0.327
30.9059 11.167 0.341
30.9264 13.896 0.380
30.9468 17.302 0.425
30.9673 22.031 0.479
30.9878 31.292 0.571
31.0082 46.656 0.697
31.0287 58.708 0.782
31.0491 58.115 0.778
31.0696 52.031 0.736
31.0901 46.896 0.699
31.1105 43.115 0.670
31.1310 33.500 0.591
31.1515 26.281 0.523
31.1719 18.271 0.436
31.1924 13.885 0.380
31.2128 11.292 0.343
31.2333 10.406 0.329
31.2538 9.333 0.312
31.2742 7.969 0.288
31.2947 7.896 0.287
31.3152 7.656 0.282
31.3356 7.156 0.273
31.3561 7.427 0.278
31.3766 6.875 0.268
31.3970 6.990 0.270
31.4175 7.313 0.276
31.4379 6.969 0.269
31.4584 6.667 0.264
31.4789 6.385 0.258
31.4993 6.573 0.262
31.5198 6.000 0.250
31.5403 6.375 0.258
31.5607 6.510 0.260
31.5812 5.979 0.250
31.6016 5.938 0.249
31.6221 6.604 0.262
31.6426 6.229 0.255
31.6630 6.969 0.269
31.6835 6.240 0.255
31.7040 6.500 0.260
31.7244 6.604 0.262
31.7449 6.000 0.250
31.7653 6.125 0.253
31.7858 6.323 0.257
31.8063 6.167 0.253
31.8267 6.448 0.259
31.8472 6.531 0.261
31.8677 6.625 0.263
31.8881 6.531 0.261
31.9086 6.052 0.251
31.9290 6.396 0.258
31.9495 6.646 0.263
31.9700 6.552 0.261
31.9904 6.708 0.264
32.0109 6.688 0.264
32.0314 6.344 0.257
32.0518 7.146 0.273
32.0723 6.938 0.269
32.0927 8.063 0.290
32.1132 8.479 0.297
32.1337 8.094 0.290
32.1541 8.417 0.296
32.1746 7.969 0.288
32.1951 8.229 0.293
32.2155 7.188 0.274
32.2360 7.667 0.283
32.2565 7.656 0.282
32.2769 7.604 0.281
32.2974 7.375 0.277
32.3178 7.177 0.273
32.3383 6.865 0.267
32.3588 7.656 0.282
32.3792 8.583 0.299
32.3997 8.917 0.305
32.4202 9.729 0.318
32.4406 10.021 0.323
32.4611 11.167 0.341
32.4815 12.135 0.356
32.5020 13.948 0.381
32.5225 14.167 0.384
32.5429 15.427 0.401
32.5634 17.354 0.425
32.5839 19.604 0.452
32.6043 22.854 0.488
32.6248 26.313 0.524
32.6452 24.052 0.501
32.6657 21.031 0.468
32.6862 17.552 0.428
32.7066 16.844 0.419
32.7271 15.583 0.403
32.7476 12.510 0.361
32.7680 9.271 0.311
32.7885 9.073 0.307
32.8089 8.229 0.293
32.8294 7.677 0.283
32.8499 7.083 0.272
32.8703 7.198 0.274
32.8908 6.635 0.263
32.9113 6.823 0.267
32.9317 6.688 0.264
32.9522 6.438 0.259
32.9726 5.771 0.245
32.9931 6.448 0.259
33.0136 6.344 0.257
33.0340 6.260 0.255
33.0545 6.594 0.262
33.0750 6.708 0.264
33.0954 6.125 0.253
33.1159 6.073 0.252
33.1364 6.656 0.263
33.1568 6.052 0.251
33.1773 6.156 0.253
33.1977 5.979 0.250
33.2182 5.896 0.248
33.2387 6.115 0.252
33.2591 6.010 0.250
33.2796 6.063 0.251
33.3001 5.948 0.249
33.3205 6.052 0.251
33.3410 5.833 0.247
33.3614 5.906 0.248
33.3819 6.146 0.253
33.4024 5.750 0.245
33.4228 5.979 0.250
33.4433 6.510 0.260
33.4638 6.052 0.251
33.4842 6.031 0.251
33.5047 5.875 0.247
33.5251 6.073 0.252
33.5456 5.760 0.245
33.5661 5.750 0.245
33.5865 5.719 0.244
33.6070 6.271 0.256
33.6275 6.000 0.250
33.6479 5.833 0.247
33.6684 5.927 0.248
33.6888 5.958 0.249
33.7093 5.698 0.244
33.7298 5.802 0.246
33.7502 5.542 0.240
33.7707 5.635 0.242
33.7912 6.010 0.250
33.8116 6.135 0.253
33.8321 5.906 0.248
33.8526 5.958 0.249
33.8730 6.021 0.250
33.8935 5.750 0.245
33.9139 5.458 0.238
33.9344 5.615 0.242
33.9549 5.708 0.244
33.9753 5.417 0.238
33.9958 5.625 0.242
34.0163 5.396 0.237
34.0367 5.844 0.247
34.0572 5.885 0.248
34.0776 5.656 0.243
34.0981 5.313 0.235
34.1186 5.313 0.235
34.1390 5.979 0.250
34.1595 5.219 0.233
34.1800 5.563 0.241
34.2004 5.865 0.247
34.2209 5.677 0.243
34.2413 5.344 0.236
34.2618 6.021 0.250
34.2823 6.167 0.253
34.3027 5.563 0.241
34.3232 5.698 0.244
34.3437 5.469 0.239
34.3641 5.875 0.247
34.3846 5.417 0.238
34.4050 5.990 0.250
34.4255 6.167 0.253
34.4460 5.656 0.243
34.4664 5.813 0.246
34.4869 5.625 0.242
34.5074 5.750 0.245
34.5278 5.969 0.249
34.5483 5.583 0.241
34.5687 5.375 0.237
34.5892 5.615 0.242
34.6097 5.438 0.238
34.6301 6.073 0.252
34.6506 5.625 0.242
34.6711 5.688 0.243
34.6915 5.240 0.234
34.7120 5.854 0.247
34.7325 5.438 0.238
34.7529 5.750 0.245
34.7734 5.844 0.247
34.7938 5.906 0.248
34.8143 5.635 0.242
34.8348 5.698 0.244
34.8552 5.615 0.242
34.8757 6.208 0.254
34.8962 5.833 0.247
34.9166 5.573 0.241
34.9371 6.052 0.251
34.9575 6.458 0.259
34.9780 5.729 0.244
34.9985 5.969 0.249
35.0189 5.635 0.242
35.0394 6.323 0.257
35.0599 5.781 0.245
35.0803 5.938 0.249
35.1008 6.260 0.255
35.1212 5.719 0.244
35.1417 5.844 0.247
35.1622 5.563 0.241
35.1826 5.604 0.242
35.2031 5.854 0.247
35.2236 5.521 0.240
35.2440 5.750 0.245
35.2645 6.073 0.252
35.2849 5.656 0.243
35.3054 6.365 0.257
35.3259 5.573 0.241
35.3463 5.844 0.247
35.3668 6.271 0.256
35.3873 6.042 0.251
35.4077 6.135 0.253
35.4282 6.021 0.250
35.4486 6.594 0.262
35.4691 6.094 0.252
35.4896 6.365 0.257
35.5100 6.448 0.259
35.5305 6.313 0.256
35.5510 6.156 0.253
35.5714 6.250 0.255
35.5919 6.448 0.259
35.6124 6.865 0.267
35.6328 6.365 0.257
35.6533 6.125 0.253
35.6737 6.188 0.254
35.6942 6.042 0.251
35.7147 6.406 0.258
35.7351 6.656 0.263
35.7556 6.552 0.261
35.7761 6.500 0.260
35.7965 6.875 0.268
35.8170 6.781 0.266
35.8374 7.542 0.280
35.8579 6.854 0.267
35.8784 7.990 0.288
35.8988 7.667 0.283
35.9193 7.427 0.278
35.9398 7.948 0.288
35.9602 8.146 0.291
35.9807 9.073 0.307
36.0011 9.563 0.316
36.0216 9.146 0.309
36.0421 10.240 0.327
36.0625 10.708 0.334
36.0830 11.865 0.352
36.1035 12.323 0.358
36.1239 14.219 0.385
36.1444 14.458 0.388
36.1648 15.656 0.404
36.1853 16.750 0.418
36.2058 16.365 0.413
36.2262 15.771 0.405
36.2467 15.729 0.405
36.2672 16.104 0.410
36.2876 14.583 0.390
36.3081 14.750 0.392
36.3285 14.417 0.388
36.3490 15.156 0.397
36.3695 14.729 0.392
36.3899 15.750 0.405
36.4104 17.375 0.425
36.4309 17.219 0.424
36.4513 19.219 0.447
36.4718 20.135 0.458
36.4923 21.042 0.468
36.5127 21.688 0.475
36.5332 23.708 0.497
36.5536 25.031 0.511
36.5741 28.740 0.547
36.5946 31.792 0.575
36.6150 33.938 0.595
36.6355 30.896 0.567
36.6560 26.135 0.522
36.6764 25.719 0.518
36.6969 24.281 0.503
36.7173 23.906 0.499
36.7378 21.427 0.472
36.7583 17.760 0.430
36.7787 17.094 0.422
36.7992 16.385 0.413
36.8197 16.948 0.420
36.8401 16.958 0.420
36.8606 16.875 0.419
36.8810 16.760 0.418
36.9015 17.323 0.425
36.9220 17.552 0.428
36.9424 18.594 0.440
36.9629 20.156 0.458
36.9834 22.177 0.481
37.0038 24.479 0.505
37.0243 27.833 0.538
37.0447 31.979 0.577
37.0652 36.240 0.614
37.0857 39.979 0.645
37.1061 36.740 0.619
37.1266 31.208 0.570
37.1471 28.229 0.542
37.1675 27.240 0.533
37.1880 24.875 0.509
37.2084 21.125 0.469
37.2289 17.240 0.424
37.2494 15.271 0.399
37.2698 12.896 0.367
37.2903 12.885 0.366
37.3108 12.042 0.354
37.3312 11.302 0.343
37.3517 10.719 0.334
37.3722 10.667 0.333
37.3926 10.094 0.324
37.4131 10.792 0.335
37.4335 10.052 0.324
37.4540 10.438 0.330
37.4745 9.240 0.310
37.4949 10.375 0.329
37.5154 9.271 0.311
37.5359 9.813 0.320
37.5563 9.531 0.315
37.5768 9.719 0.318
37.5972 9.708 0.318
37.6177 9.396 0.313
37.6382 9.198 0.310
37.6586 10.031 0.323
37.6791 9.531 0.315
37.6996 9.885 0.321
37.7200 9.948 0.322
37.7405 10.021 0.323
37.7609 9.260 0.311
37.7814 9.604 0.316
37.8019 9.615 0.316
37.8223 10.115 0.325
37.8428 9.979 0.322
37.8633 9.698 0.318
37.8837 10.083 0.324
37.9042 10.646 0.333
37.9246 10.844 0.336
37.9451 12.042 0.354
37.9656 12.917 0.367
37.9860 13.552 0.376
38.0065 15.781 0.405
38.0270 17.313 0.425
38.0474 16.792 0.418
38.0679 16.594 0.416
38.0884 15.010 0.395
38.1088 14.958 0.395
38.1293 14.406 0.387
38.1497 14.813 0.393
38.1702 13.823 0.379
38.1907 13.021 0.368
38.2111 12.969 0.368
38.2316 12.573 0.362
38.2521 12.490 0.361
38.2725 12.240 0.357
38.2930 11.583 0.347
38.3134 12.219 0.357
38.3339 12.094 0.355
38.3544 11.906 0.352
38.3748 11.792 0.350
38.3953 12.323 0.358
38.4158 13.354 0.373
38.4362 14.323 0.386
38.4567 16.313 0.412
38.4771 15.521 0.402
38.4976 15.188 0.398
38.5181 13.531 0.375
38.5385 13.740 0.378
38.5590 13.948 0.381
38.5795 12.875 0.366
38.5999 12.208 0.357
38.6204 10.760 0.335
38.6408 10.438 0.330
38.6613 10.104 0.324
38.6818 9.865 0.321
38.7022 10.219 0.326
38.7227 9.271 0.311
38.7432 8.865 0.304
38.7636 9.313 0.311
38.7841 9.000 0.306
38.8045 8.177 0.292
38.8250 9.271 0.311
38.8455 8.625 0.300
38.8659 8.510 0.298
38.8864 9.000 0.306
38.9069 9.656 0.317
38.9273 9.021 0.307
38.9478 8.635 0.300
38.9683 9.240 0.310
38.9887 8.615 0.300
39.0092 9.000 0.306
39.0296 9.208 0.310
39.0501 9.010 0.306
39.0706 9.198 0.310
39.0910 8.927 0.305
39.1115 9.646 0.317
39.1320 8.667 0.300
39.1524 8.906 0.305
39.1729 8.802 0.303
39.1933 8.760 0.302
39.2138 8.990 0.306
39.2343 8.219 0.293
39.2547 8.583 0.299
39.2752 8.510 0.298
39.2957 8.938 0.305
39.3161 8.229 0.293
39.3366 9.260 0.311
39.3570 8.938 0.305
39.3775 8.438 0.296
39.3980 9.188 0.309
39.4184 8.750 0.302
39.4389 9.625 0.317
39.4594 8.771 0.302
39.4798 9.031 0.307
39.5003 9.010 0.306
39.5207 8.573 0.299
39.5412 8.594 0.299
39.5617 8.219 0.293
39.5821 8.271 0.294
39.6026 8.563 0.299
39.6231 8.917 0.305
39.6435 8.271 0.294
39.6640 8.490 0.297
39.6844 8.375 0.295
39.7049 9.135 0.308
39.7254 8.917 0.305
39.7458 9.979 0.322
39.7663 10.802 0.335
39.7868 11.292 0.343
39.8072 11.646 0.348
39.8277 11.844 0.351
39.8482 10.740 0.334
39.8686 10.073 0.324
39.8891 9.958 0.322
39.9095 9.927 0.322
39.9300 9.708 0.318
39.9505 9.417 0.313
39.9709 8.635 0.300
39.9914 8.313 0.294
40.0119 8.396 0.296
40.0323 8.219 0.293
40.0528 8.167 0.292
40.0732 7.958 0.288
40.0937 7.469 0.279
40.1142 8.531 0.298
40.1346 8.500 0.298
40.1551 8.198 0.292
40.1756 8.760 0.302
40.1960 8.854 0.304
40.2165 8.250 0.293
40.2369 9.458 0.314
40.2574 9.896 0.321
40.2779 10.854 0.336
40.2983 11.104 0.340
40.3188 10.781 0.335
40.3393 10.010 0.323
40.3597 9.333 0.312
40.3802 9.083 0.308
40.4006 9.906 0.321
40.4211 9.104 0.308
40.4416 8.052 0.290
40.4620 8.333 0.295
40.4825 7.583 0.281
40.5030 8.146 0.291
40.5234 7.958 0.288
40.5439 8.260 0.293
40.5643 8.219 0.293
40.5848 8.177 0.292
40.6053 8.125 0.291
40.6257 7.781 0.285
40.6462 8.031 0.289
40.6667 8.302 0.294
40.6871 7.833 0.286
40.7076 7.271 0.275
40.7281 7.594 0.281
40.7485 8.031 0.289
40.7690 7.958 0.288
40.7894 7.125 0.272
40.8099 7.125 0.272
40.8304 7.167 0.273
40.8508 7.563 0.281
40.8713 7.604 0.281
40.8918 7.917 0.287
40.9122 7.802 0.285
40.9327 8.177 0.292
40.9531 7.854 0.286
40.9736 8.313 0.294
40.9941 8.240 0.293
41.0145 8.667 0.300
41.0350 8.927 0.305
41.0555 10.219 0.326
41.0759 10.375 0.329
41.0964 11.365 0.344
41.1168 12.510 0.361
41.1373 13.573 0.376
41.1578 13.531 0.375
41.1782 12.385 0.359
41.1987 10.823 0.336
41.2192 11.333 0.344
41.2396 10.552 0.332
41.2601 10.417 0.329
41.2805 9.573 0.316
41.3010 8.865 0.304
41.3215 8.635 0.300
41.3419 8.031 0.289
41.3624 7.469 0.279
41.3829 7.688 0.283
41.4033 7.281 0.275
41.4238 7.406 0.278
41.4442 7.240 0.275
41.4647 7.271 0.275
41.4852 7.010 0.270
41.5056 6.792 0.266
41.5261 6.948 0.269
41.5466 6.906 0.268
41.5670 7.146 0.273
41.5875 6.250 0.255
41.6080 6.250 0.255
41.6284 7.063 0.271
41.6489 6.917 0.268
41.6693 6.604 0.262
41.6898 6.323 0.257
41.7103 6.698 0.264
41.7307 6.823 0.267
41.7512 5.833 0.247
41.7717 6.229 0.255
41.7921 6.938 0.269
41.8126 6.135 0.253
41.8330 6.594 0.262
41.8535 6.323 0.257
41.8740 6.406 0.258
41.8944 6.240 0.255
41.9149 6.490 0.260
41.9354 6.667 0.264
41.9558 6.365 0.257
41.9763 6.281 0.256
41.9967 6.406 0.258
42.0172 6.510 0.260
42.0377 6.583 0.262
42.0581 6.792 0.266
42.0786 6.854 0.267
42.0991 6.521 0.261
42.1195 6.708 0.264
42.1400 6.885 0.268
42.1604 6.813 0.266
42.1809 7.146 0.273
42.2014 7.333 0.276
42.2218 7.135 0.273
42.2423 7.323 0.276
42.2628 7.438 0.278
42.2832 8.260 0.293
42.3037 7.990 0.288
42.3242 9.083 0.308
42.3446 8.667 0.300
42.3651 9.292 0.311
42.3855 9.542 0.315
42.4060 9.448 0.314
42.4265 9.396 0.313
42.4469 9.313 0.311
42.4674 9.500 0.315
42.4879 9.479 0.314
42.5083 8.583 0.299
42.5288 8.615 0.300
42.5492 8.698 0.301
42.5697 8.750 0.302
42.5902 8.552 0.298
42.6106 8.479 0.297
42.6311 8.333 0.295
42.6516 8.563 0.299
42.6720 8.167 0.292
42.6925 7.875 0.286
42.7129 7.958 0.288
42.7334 7.729 0.284
42.7539 8.104 0.291
42.7743 8.063 0.290
42.7948 8.021 0.289
42.8153 7.635 0.282
42.8357 7.667 0.283
42.8562 7.646 0.282
42.8766 7.740 0.284
42.8971 7.750 0.284
42.9176 7.219 0.274
42.9380 8.208 0.292
42.9585 7.719 0.284
42.9790 7.646 0.282
42.9994 7.510 0.280
43.0199 8.229 0.293
43.0403 8.188 0.292
43.0608 7.729 0.284
43.0813 8.083 0.290
43.1017 7.698 0.283
43.1222 8.240 0.293
43.1427 8.542 0.298
43.1631 8.938 0.305
43.1836 9.010 0.306
43.2041 9.458 0.314
43.2245 9.896 0.321
43.2450 10.708 0.334
43.2654 10.490 0.331
43.2859 9.875 0.321
43.3064 9.740 0.319
43.3268 9.688 0.318
43.3473 10.375 0.329
43.3678 10.448 0.330
43.3882 10.177 0.326
43.4087 10.021 0.323
43.4291 10.229 0.326
43.4496 10.823 0.336
43.4701 11.000 0.339
43.4905 11.635 0.348
43.5110 11.844 0.351
43.5315 12.896 0.367
43.5519 14.438 0.388
43.5724 15.708 0.405
43.5928 18.531 0.439
43.6133 20.583 0.463
43.6338 21.615 0.475
43.6542 22.208 0.481
43.6747 20.333 0.460
43.6952 17.354 0.425
43.7156 15.750 0.405
43.7361 15.448 0.401
43.7565 15.313 0.399
43.7770 14.292 0.386
43.7975 12.458 0.360
43.8179 10.896 0.337
43.8384 9.188 0.309
43.8589 8.802 0.303
43.8793 8.604 0.299
43.8998 8.802 0.303
43.9202 8.177 0.292
43.9407 8.302 0.294
43.9612 7.323 0.276
43.9816 7.313 0.276
44.0021 7.906 0.287
44.0226 7.729 0.284
44.0430 7.188 0.274
44.0635 7.208 0.274
44.0840 7.500 0.280
44.1044 7.208 0.274
44.1249 7.667 0.283
44.1453 7.542 0.280
44.1658 7.083 0.272
44.1863 7.354 0.277
44.2067 7.229 0.274
44.2272 7.156 0.273
44.2477 7.698 0.283
44.2681 7.802 0.285
44.2886 7.781 0.285
44.3090 7.708 0.283
44.3295 7.042 0.271
44.3500 6.906 0.268
44.3704 6.938 0.269
44.3909 7.302 0.276
44.4114 7.313 0.276
44.4318 6.563 0.261
44.4523 6.729 0.265
44.4727 6.719 0.265
44.4932 7.000 0.270
44.5137 6.604 0.262
44.5341 6.969 0.269
44.5546 6.885 0.268
44.5751 6.844 0.267
44.5955 6.552 0.261
44.6160 6.677 0.264
44.6364 6.823 0.267
44.6569 6.490 0.260
44.6774 6.365 0.257
44.6978 6.458 0.259
44.7183 6.219 0.255
44.7388 6.708 0.264
44.7592 6.156 0.253
44.7797 6.594 0.262
44.8001 6.510 0.260
44.8206 6.375 0.258
44.8411 6.656 0.263
44.8615 6.510 0.260
44.8820 6.677 0.264
44.9025 6.708 0.264
44.9229 6.552 0.261
44.9434 7.281 0.275
44.9639 6.896 0.268
44.9843 7.125 0.272
45.0048 6.792 0.266
45.0252 6.854 0.267
45.0457 6.865 0.267
45.0662 7.563 0.281
45.0866 7.542 0.280
45.1071 6.885 0.268
45.1276 7.198 0.274
45.1480 7.844 0.286
45.1685 7.656 0.282
45.1889 8.365 0.295
45.2094 9.344 0.312
45.2299 9.406 0.313
45.2503 9.719 0.318
45.2708 10.000 0.323
45.2913 9.292 0.311
45.3117 8.927 0.305
45.3322 8.802 0.303
45.3526 9.063 0.307
45.3731 8.406 0.296
45.3936 8.635 0.300
45.4140 8.083 0.290
45.4345 7.292 0.276
45.4550 6.708 0.264
45.4754 6.688 0.264
45.4959 6.698 0.264
45.5163 6.010 0.250
45.5368 6.563 0.261
45.5573 6.667 0.264
45.5777 6.083 0.252
45.5982 5.990 0.250
45.6187 6.000 0.250
45.6391 6.385 0.258
45.6596 6.354 0.257
45.6800 5.927 0.248
45.7005 5.635 0.242
45.7210 6.542 0.261
45.7414 6.156 0.253
45.7619 6.031 0.251
45.7824 5.771 0.245
45.8028 6.333 0.257
45.8233 5.740 0.245
45.8438 6.313 0.256
45.8642 5.906 0.248
45.8847 5.875 0.247
45.9051 6.094 0.252
45.9256 5.656 0.243
45.9461 6.031 0.251
45.9665 5.781 0.245
45.9870 5.958 0.249
46.0075 5.875 0.247
46.0279 6.115 0.252
46.0484 5.417 0.238
46.0688 5.583 0.241
46.0893 6.260 0.255
46.1098 6.313 0.256
46.1302 6.021 0.250
46.1507 6.146 0.253
46.1712 6.073 0.252
46.1916 5.823 0.246
46.2121 5.083 0.230
46.2325 5.729 0.244
46.2530 5.250 0.234
46.2735 5.750 0.245
46.2939 5.438 0.238
46.3144 5.500 0.239
46.3349 5.490 0.239
46.3553 5.615 0.242
46.3758 5.563 0.241
46.3962 5.396 0.237
46.4167 5.281 0.235
46.4372 5.104 0.231
46.4576 5.323 0.235
46.4781 5.958 0.249
46.4986 5.510 0.240
46.5190 5.104 0.231
46.5395 5.073 0.230
46.5600 5.646 0.243
46.5804 5.833 0.247
46.6009 5.802 0.246
46.6213 5.177 0.232
46.6418 5.385 0.237
46.6623 5.125 0.231
46.6827 5.948 0.249
46.7032 5.615 0.242
46.7237 5.292 0.235
46.7441 5.396 0.237
46.7646 5.344 0.236
46.7850 5.333 0.236
46.8055 5.344 0.236
46.8260 5.302 0.235
46.8464 5.844 0.247
46.8669 5.260 0.234
46.8874 5.219 0.233
46.9078 5.542 0.240
46.9283 5.354 0.236
46.9487 5.083 0.230
46.9692 5.552 0.240
46.9897 5.219 0.233
47.0101 5.594 0.241
47.0306 5.125 0.231
47.0511 5.740 0.245
47.0715 5.771 0.245
47.0920 5.823 0.246
47.1124 5.792 0.246
47.1329 5.719 0.244
47.1534 5.781 0.245
47.1738 5.885 0.248
47.1943 5.542 0.240
47.2148 5.719 0.244
47.2352 6.125 0.253
47.2557 5.375 0.237
47.2761 5.688 0.243
47.2966 5.813 0.246
47.3171 5.885 0.248
47.3375 5.646 0.243
47.3580 5.948 0.249
47.3785 5.958 0.249
47.3989 5.885 0.248
47.4194 5.865 0.247
47.4399 6.365 0.257
47.4603 6.688 0.264
47.4808 7.156 0.273
47.5012 6.781 0.266
47.5217 7.031 0.271
47.5422 8.052 0.290
47.5626 8.781 0.302
47.5831 9.333 0.312
47.6036 10.333 0.328
47.6240 10.708 0.334
47.6445 10.938 0.338
47.6649 8.979 0.306
47.6854 8.990 0.306
47.7059 8.969 0.306
47.7263 9.271 0.311
47.7468 8.885 0.304
47.7673 9.313 0.311
47.7877 8.458 0.297
47.8082 8.083 0.290
47.8286 7.219 0.274
47.8491 6.979 0.270
47.8696 6.656 0.263
47.8900 7.021 0.270
47.9105 6.688 0.264
47.9310 6.792 0.266
47.9514 6.656 0.263
47.9719 6.323 0.257
47.9923 6.281 0.256
48.0128 6.458 0.259
48.0333 6.729 0.265
48.0537 6.406 0.258
48.0742 6.792 0.266
48.0947 6.521 0.261
48.1151 6.406 0.258
48.1356 6.750 0.265
48.1560 6.875 0.268
48.1765 6.229 0.255
48.1970 7.115 0.272
48.2174 6.677 0.264
48.2379 6.375 0.258
48.2584 6.521 0.261
48.2788 6.573 0.262
48.2993 6.417 0.259
48.3198 6.875 0.268
48.3402 7.438 0.278
48.3607 7.635 0.282
48.3811 7.917 0.287
48.4016 7.073 0.271
48.4221 7.781 0.285
48.4425 7.031 0.271
48.4630 7.302 0.276
48.4835 7.281 0.275
48.5039 6.760 0.265
48.5244 6.781 0.266
48.5448 6.104 0.252
48.5653 6.385 0.258
48.5858 6.427 0.259
48.6062 6.271 0.256
48.6267 6.573 0.262
48.6472 6.521 0.261
48.6676 6.667 0.264
48.6881 7.073 0.271
48.7085 7.115 0.272
48.7290 7.281 0.275
48.7495 7.333 0.276
48.7699 6.656 0.263
48.7904 6.375 0.258
48.8109 6.542 0.261
48.8313 6.771 0.266
48.8518 6.260 0.255
48.8722 6.063 0.251
48.8927 5.833 0.247
48.9132 5.823 0.246
48.9336 5.313 0.235
48.9541 5.844 0.247
48.9746 5.302 0.235
48.9950 5.000 0.228
49.0155 5.125 0.231
49.0359 5.104 0.231
49.0564 5.490 0.239
49.0769 5.115 0.231
49.0973 5.865 0.247
49.1178 5.146 0.232
49.1383 4.969 0.228
49.1587 5.479 0.239
49.1792 5.615 0.242
49.1997 5.104 0.231
49.2201 5.115 0.231
49.2406 5.406 0.237
49.2610 5.250 0.234
49.2815 5.250 0.234
49.3020 5.115 0.231
49.3224 5.427 0.238
49.3429 5.156 0.232
49.3634 5.771 0.245
49.3838 5.313 0.235
49.4043 6.063 0.251
49.4247 5.604 0.242
49.4452 6.063 0.251
49.4657 5.625 0.242
49.4861 5.958 0.249
49.5066 5.854 0.247
49.5271 6.406 0.258
49.5475 6.333 0.257
49.5680 6.521 0.261
49.5884 6.490 0.260
49.6089 6.521 0.261
49.6294 6.906 0.268
49.6498 7.344 0.277
49.6703 7.490 0.279
49.6908 7.917 0.287
49.7112 8.115 0.291
49.7317 8.490 0.297
49.7521 9.448 0.314
49.7726 10.510 0.331
49.7931 11.646 0.348
49.8135 12.708 0.364
49.8340 15.323 0.400
49.8545 16.625 0.416
49.8749 15.740 0.405
49.8954 14.438 0.388
49.9158 12.938 0.367
49.9363 12.354 0.359
49.9568 12.750 0.364
49.9772 12.385 0.359
49.9977 12.740 0.364
50.0182 11.906 0.352
50.0386 11.208 0.342
50.0591 10.688 0.334
50.0796 9.448 0.314
50.1000 8.802 0.303
50.1205 9.469 0.314
50.1409 8.792 0.303
50.1614 9.208 0.310
50.1819 9.906 0.321
50.2023 9.990 0.323
50.2228 10.260 0.327
50.2433 9.771 0.319
50.2637 8.969 0.306
50.2842 8.188 0.292
50.3046 8.510 0.298
50.3251 8.833 0.303
50.3456 8.563 0.299
50.3660 8.240 0.293
50.3865 8.271 0.294
50.4070 7.813 0.285
50.4274 7.625 0.282
50.4479 7.250 0.275
50.4683 7.594 0.281
50.4888 7.365 0.277
50.5093 6.906 0.268
50.5297 7.229 0.274
50.5502 7.406 0.278
50.5707 6.667 0.264
50.5911 7.042 0.271
50.6116 6.958 0.269
50.6320 7.271 0.275
50.6525 7.250 0.275
50.6730 7.438 0.278
50.6934 7.396 0.278
50.7139 6.917 0.268
50.7344 7.198 0.274
50.7548 6.979 0.270
50.7753 7.042 0.271
50.7958 6.969 0.269
50.8162 7.167 0.273
50.8367 7.229 0.274
50.8571 6.427 0.259
50.8776 6.760 0.265
50.8981 6.958 0.269
50.9185 6.198 0.254
50.9390 6.740 0.265
50.9595 7.073 0.271
50.9799 7.260 0.275
51.0004 7.042 0.271
51.0208 7.063 0.271
51.0413 6.938 0.269
51.0618 6.510 0.260
51.0822 6.479 0.260
51.1027 6.125 0.253
51.1232 6.521 0.261
51.1436 6.333 0.257
51.1641 6.073 0.252
51.1845 6.104 0.252
51.2050 6.115 0.252
51.2255 6.167 0.253
51.2459 6.219 0.255
51.2664 5.885 0.248
51.2869 6.781 0.266
51.3073 6.104 0.252
51.3278 6.073 0.252
51.3482 5.792 0.246
51.3687 5.646 0.243
51.3892 5.698 0.244
51.4096 5.427 0.238
51.4301 5.635 0.242
51.4506 6.229 0.255
51.4710 5.865 0.247
51.4915 5.521 0.240
51.5119 5.208 0.233
51.5324 5.219 0.233
51.5529 5.677 0.243
51.5733 6.469 0.260
51.5938 6.240 0.255
51.6143 6.021 0.250
51.6347 6.667 0.264
51.6552 6.250 0.255
51.6757 6.906 0.268
51.6961 6.031 0.251
51.7166 6.208 0.254
51.7370 6.531 0.261
51.7575 5.948 0.249
51.7780 6.010 0.250
51.7984 5.958 0.249
51.8189 5.781 0.245
51.8394 5.813 0.246
51.8598 5.875 0.247
51.8803 5.563 0.241
51.9007 4.885 0.226
51.9212 5.250 0.234
51.9417 4.854 0.225
51.9621 5.125 0.231
51.9826 4.719 0.222
52.0031 4.594 0.219
52.0235 4.927 0.227
52.0440 5.271 0.234
52.0644 4.771 0.223
52.0849 4.698 0.221
52.1054 4.250 0.210
52.1258 4.927 0.227
52.1463 5.135 0.231
52.1668 4.740 0.222
52.1872 4.844 0.225
52.2077 4.563 0.218
52.2281 5.552 0.240
52.2486 4.875 0.225
52.2691 4.938 0.227
52.2895 4.948 0.227
52.3100 4.646 0.220
52.3305 5.052 0.229
52.3509 5.104 0.231
52.3714 5.010 0.228
52.3918 5.427 0.238
52.4123 5.104 0.231
52.4328 5.521 0.240
52.4532 4.938 0.227
52.4737 5.458 0.238
52.4942 4.896 0.226
52.5146 4.385 0.214
52.5351 4.917 0.226
52.5556 4.979 0.228
52.5760 4.458 0.216
52.5965 4.708 0.221
52.6169 4.510 0.217
52.6374 4.958 0.227
52.6579 4.802 0.224
52.6783 4.750 0.222
52.6988 4.500 0.217
52.7193 4.844 0.225
52.7397 4.604 0.219
52.7602 5.010 0.228
52.7806 5.365 0.236
52.8011 4.781 0.223
52.8216 4.531 0.217
52.8420 4.760 0.223
52.8625 4.740 0.222
52.8830 4.865 0.225
52.9034 4.417 0.214
52.9239 5.125 0.231
52.9443 5.000 0.228
52.9648 4.490 0.216
52.9853 4.521 0.217
53.0057 5.135 0.231
53.0262 4.146 0.208
53.0467 4.625 0.219
53.0671 5.219 0.233
53.0876 4.740 0.222
53.1080 4.635 0.220
53.1285 4.833 0.224
53.1490 4.344 0.213
53.1694 4.823 0.224
53.1899 4.969 0.228
53.2104 5.115 0.231
53.2308 5.000 0.228
53.2513 4.958 0.227
53.2717 4.500 0.217
53.2922 4.719 0.222
53.3127 5.073 0.230
53.3331 4.823 0.224
53.3536 4.552 0.218
53.3741 4.458 0.216
53.3945 4.698 0.221
53.4150 4.792 0.223
53.4355 4.708 0.221
53.4559 4.573 0.218
53.4764 4.615 0.219
53.4968 4.750 0.222
53.5173 4.323 0.212
53.5378 4.927 0.227
53.5582 4.938 0.227
53.5787 4.708 0.221
53.5992 4.385 0.214
53.6196 4.781 0.223
53.6401 4.531 0.217
53.6605 4.500 0.217
53.6810 4.750 0.222
53.7015 4.667 0.220
53.7219 4.208 0.209
53.7424 4.104 0.207
53.7629 4.510 0.217
53.7833 4.510 0.217
53.8038 4.417 0.214
53.8242 4.958 0.227
53.8447 4.323 0.212
53.8652 4.375 0.213
53.8856 4.490 0.216
53.9061 4.677 0.221
53.9266 4.448 0.215
53.9470 4.563 0.218
53.9675 4.365 0.213
53.9879 4.344 0.213
54.0084 4.458 0.216
54.0289 4.885 0.226
54.0493 4.833 0.224
54.0698 4.708 0.221
54.0903 4.958 0.227
54.1107 4.927 0.227
54.1312 5.073 0.230
54.1516 5.479 0.239
54.1721 5.104 0.231
54.1926 5.271 0.234
54.2130 4.677 0.221
54.2335 4.979 0.228
54.2540 4.813 0.224
54.2744 4.969 0.228
54.2949 4.885 0.226
54.3154 5.219 0.233
54.3358 4.521 0.217
54.3563 4.948 0.227
54.3767 4.510 0.217
54.3972 4.802 0.224
54.4177 4.615 0.219
54.4381 3.990 0.204
54.4586 4.406 0.214
54.4791 4.073 0.206
54.4995 4.156 0.208
54.5200 4.542 0.218
54.5404 4.292 0.211
54.5609 4.604 0.219
54.5814 4.573 0.218
54.6018 4.531 0.217
54.6223 4.531 0.217
54.6428 4.219 0.210
54.6632 4.406 0.214
54.6837 4.125 0.207
54.7041 4.354 0.213
54.7246 3.854 0.200
54.7451 4.375 0.213
54.7655 4.469 0.216
54.7860 4.656 0.220
54.8065 4.490 0.216
54.8269 4.333 0.212
54.8474 4.781 0.223
54.8678 4.708 0.221
54.8883 4.917 0.226
54.9088 4.979 0.228
54.9292 4.719 0.222
54.9497 5.365 0.236
54.9702 5.167 0.232
54.9906 5.240 0.234
55.0111 5.792 0.246
55.0316 6.177 0.254
55.0520 6.875 0.268
55.0725 7.667 0.283
55.0929 8.052 0.290
55.1134 10.396 0.329
55.1339 12.667 0.363
55.1543 14.198 0.385
55.1748 16.688 0.417
55.1953 17.990 0.433
55.2157 16.646 0.416
55.2362 15.677 0.404
55.2566 13.938 0.381
55.2771 13.635 0.377
55.2976 12.740 0.364
55.3180 12.854 0.366
55.3385 12.240 0.357
55.3590 11.740 0.350
55.3794 10.104 0.324
55.3999 9.365 0.312
55.4203 8.521 0.298
55.4408 7.531 0.280
55.4613 6.396 0.258
55.4817 6.500 0.260
55.5022 5.698 0.244
55.5227 5.635 0.242
55.5431 5.302 0.235
55.5636 5.406 0.237
55.5840 4.594 0.219
55.6045 5.177 0.232
55.6250 4.771 0.223
55.6454 4.531 0.217
55.6659 5.000 0.228
55.6864 4.510 0.217
55.7068 4.833 0.224
55.7273 4.760 0.223
55.7477 4.875 0.225
55.7682 4.771 0.223
55.7887 4.833 0.224
55.8091 4.823 0.224
55.8296 5.563 0.241
55.8501 5.896 0.248
55.8705 6.292 0.256
55.8910 6.125 0.253
55.9115 5.823 0.246
55.9319 5.969 0.249
55.9524 6.271 0.256
55.9728 6.010 0.250
55.9933 5.979 0.250
56.0138 6.729 0.265
56.0342 6.604 0.262
56.0547 6.396 0.258
56.0752 7.615 0.282
56.0956 8.354 0.295
56.1161 8.969 0.306
56.1365 9.875 0.321
56.1570 11.438 0.345
56.1775 12.448 0.360
56.1979 14.010 0.382
56.2184 13.250 0.372
56.2389 11.521 0.346
56.2593 10.260 0.327
56.2798 9.385 0.313
56.3002 8.740 0.302
56.3207 8.990 0.306
56.3412 9.448 0.314
56.3616 9.469 0.314
56.3821 8.146 0.291
56.4026 7.271 0.275
56.4230 6.375 0.258
56.4435 5.167 0.232
56.4639 5.375 0.237
56.4844 4.677 0.221
56.5049 4.448 0.215
56.5253 5.240 0.234
56.5458 4.594 0.219
56.5663 4.135 0.208
56.5867 4.406 0.214
56.6072 4.219 0.210
56.6276 4.323 0.212
56.6481 4.260 0.211
56.6686 4.208 0.209
56.6890 4.083 0.206
56.7095 3.885 0.201
56.7300 3.792 0.199
56.7504 3.698 0.196
56.7709 3.844 0.200
56.7914 3.760 0.198
56.8118 4.385 0.214
56.8323 4.104 0.207
56.8527 3.875 0.201
56.8732 4.042 0.205
56.8937 3.844 0.200
56.9141 3.917 0.202
56.9346 3.885 0.201
56.9551 3.854 0.200
56.9755 4.073 0.206
56.9960 3.917 0.202
57.0164 3.781 0.198
57.0369 3.833 0.200
57.0574 3.573 0.193
57.0778 3.750 0.198
57.0983 3.698 0.196
57.1188 4.083 0.206
57.1392 3.854 0.200
57.1597 3.781 0.198
57.1801 3.646 0.195
57.2006 3.646 0.195
57.2211 4.146 0.208
57.2415 4.156 0.208
57.2620 3.781 0.198
57.2825 4.094 0.207
57.3029 3.938 0.203
57.3234 4.000 0.204
57.3438 3.802 0.199
57.3643 3.885 0.201
57.3848 4.417 0.214
57.4052 4.135 0.208
57.4257 4.000 0.204
57.4462 4.042 0.205
57.4666 4.240 0.210
57.4871 4.406 0.214
57.5075 4.156 0.208
57.5280 3.969 0.203
57.5485 4.188 0.209
57.5689 4.313 0.212
57.5894 4.052 0.205
57.6099 4.219 0.210
57.6303 4.156 0.208
57.6508 4.427 0.215
57.6713 4.854 0.225
57.6917 4.667 0.220
57.7122 4.719 0.222
57.7326 4.979 0.228
57.7531 5.323 0.235
57.7736 4.896 0.226
57.7940 5.646 0.243
57.8145 6.323 0.257
57.8350 6.563 0.261
57.8554 7.125 0.272
57.8759 7.625 0.282
57.8963 8.115 0.291
57.9168 8.385 0.296
57.9373 8.823 0.303
57.9577 7.708 0.283
57.9782 7.510 0.280
57.9987 7.104 0.272
58.0191 7.094 0.272
58.0396 6.823 0.267
58.0600 6.990 0.270
58.0805 7.052 0.271
58.1010 6.510 0.260
58.1214 6.438 0.259
58.1419 5.729 0.244
58.1624 5.833 0.247
58.1828 5.406 0.237
58.2033 5.073 0.230
58.2237 4.771 0.223
58.2442 5.500 0.239
58.2647 4.854 0.225
58.2851 4.938 0.227
58.3056 5.250 0.234
58.3261 5.250 0.234
58.3465 5.073 0.230
58.3670 5.010 0.228
58.3874 4.906 0.226
58.4079 4.844 0.225
58.4284 4.792 0.223
58.4488 4.667 0.220
58.4693 4.656 0.220
58.4898 4.740 0.222
58.5102 4.646 0.220
58.5307 4.708 0.221
58.5512 4.313 0.212
58.5716 4.750 0.222
58.5921 4.875 0.225
58.6125 4.573 0.218
58.6330 4.854 0.225
58.6535 4.979 0.228
58.6739 4.781 0.223
58.6944 4.708 0.221
58.7149 4.823 0.224
58.7353 4.740 0.222
58.7558 4.719 0.222
58.7762 4.979 0.228
58.7967 4.938 0.227
58.8172 5.354 0.236
58.8376 4.750 0.222
58.8581 5.229 0.233
58.8786 5.229 0.233
58.8990 5.240 0.234
58.9195 5.250 0.234
58.9399 5.573 0.241
58.9604 5.073 0.230
58.9809 4.958 0.227
59.0013 5.260 0.234
59.0218 5.427 0.238
59.0423 5.333 0.236
59.0627 5.063 0.230
59.0832 5.927 0.248
59.1036 5.896 0.248
59.1241 6.115 0.252
59.1446 6.281 0.256
59.1650 6.896 0.268
59.1855 7.042 0.271
59.2060 7.250 0.275
59.2264 7.417 0.278
59.2469 7.438 0.278
59.2674 6.427 0.259
59.2878 5.969 0.249
59.3083 5.635 0.242
59.3287 5.813 0.246
59.3492 5.479 0.239
59.3697 5.656 0.243
59.3901 5.510 0.240
59.4106 5.417 0.238
59.4311 4.885 0.226
59.4515 4.750 0.222
59.4720 4.375 0.213
59.4924 4.500 0.217
59.5129 4.313 0.212
59.5334 3.823 0.200
59.5538 3.823 0.200
59.5743 3.948 0.203
59.5948 4.000 0.204
59.6152 3.938 0.203
59.6357 4.104 0.207
59.6561 3.969 0.203
59.6766 4.344 0.213
59.6971 3.854 0.200
59.7175 4.385 0.214
59.7380 4.646 0.220
59.7585 4.552 0.218
59.7789 4.646 0.220
59.7994 5.042 0.229
59.8198 5.010 0.228
59.8403 5.865 0.247
59.8608 6.198 0.254
59.8812 6.688 0.264
59.9017 6.448 0.259
59.9222 6.406 0.258
59.9426 6.042 0.251
59.9631 5.406 0.237
59.9835 5.167 0.232
60.0040 5.490 0.239
60.0245 5.375 0.237
60.0449 5.500 0.239
60.0654 5.885 0.248
60.0859 5.094 0.230
60.1063 5.010 0.228
60.1268 4.760 0.223
60.1473 4.802 0.224
60.1677 4.458 0.216
60.1882 4.458 0.216
60.2086 4.083 0.206
60.2291 4.115 0.207
60.2496 4.281 0.211
60.2700 4.083 0.206
60.2905 3.906 0.202
60.3110 4.042 0.205
60.3314 4.021 0.205
60.3519 4.094 0.207
60.3723 4.021 0.205
60.3928 3.813 0.199
60.4133 3.844 0.200
60.4337 4.021 0.205
60.4542 3.896 0.201
60.4747 4.146 0.208
60.4951 3.958 0.203
60.5156 3.917 0.202
60.5360 4.333 0.212
60.5565 4.188 0.209
60.5770 3.833 0.200
60.5974 4.010 0.204
60.6179 4.313 0.212
60.6384 4.375 0.213
60.6588 3.854 0.200
60.6793 4.323 0.212
60.6997 4.094 0.207
60.7202 4.167 0.208
60.7407 4.323 0.212
60.7611 4.021 0.205
60.7816 3.917 0.202
60.8021 3.729 0.197
60.8225 3.813 0.199
60.8430 3.698 0.196
60.8634 4.052 0.205
60.8839 4.146 0.208
60.9044 3.760 0.198
60.9248 3.823 0.200
60.9453 3.760 0.198
60.9658 3.167 0.182
60.9862 3.771 0.198
61.0067 3.740 0.197
61.0272 3.385 0.188
61.0476 3.500 0.191
61.0681 3.625 0.194
61.0885 3.260 0.184
61.1090 3.625 0.194
61.1295 3.563 0.193
61.1499 3.354 0.187
61.1704 3.500 0.191
61.1909 3.333 0.186
61.2113 3.469 0.190
61.2318 3.333 0.186
61.2522 3.323 0.186
61.2727 3.521 0.192
61.2932 2.865 0.173
61.3136 3.021 0.177
61.3341 3.260 0.184
61.3546 3.052 0.178
61.3750 3.302 0.185
61.3955 3.458 0.190
61.4159 3.240 0.184
61.4364 2.948 0.175
61.4569 3.229 0.183
61.4773 3.469 0.190
61.4978 3.469 0.190
61.5183 3.615 0.194
61.5387 3.563 0.193
61.5592 3.490 0.191
61.5796 3.396 0.188
61.6001 3.385 0.188
61.6206 3.490 0.191
61.6410 3.771 0.198
61.6615 3.260 0.184
61.6820 3.375 0.188
61.7024 3.188 0.182
61.7229 3.427 0.189
61.7433 3.146 0.181
61.7638 3.417 0.189
61.7843 3.167 0.182
61.8047 3.740 0.197
61.8252 3.448 0.190
61.8457 3.219 0.183
61.8661 3.729 0.197
61.8866 3.573 0.193
61.9071 3.604 0.194
61.9275 3.594 0.193
61.9480 3.583 0.193
61.9684 3.802 0.199
61.9889 3.542 0.192
62.0094 3.813 0.199
62.0298 3.563 0.193
62.0503 4.365 0.213
62.0708 3.948 0.203
62.0912 3.635 0.195
62.1117 4.688 0.221
62.1321 4.260 0.211
62.1526 4.500 0.217
62.1731 4.635 0.220
62.1935 4.240 0.210
62.2140 4.323 0.212
62.2345 4.469 0.216
62.2549 4.333 0.212
62.2754 4.073 0.206
62.2958 4.240 0.210
62.3163 4.125 0.207
62.3368 3.896 0.201
62.3572 3.635 0.195
62.3777 3.677 0.196
62.3982 3.260 0.184
62.4186 3.667 0.195
62.4391 3.510 0.191
62.4595 3.292 0.185
62.4800 3.042 0.178
62.5005 3.354 0.187
62.5209 3.260 0.184
62.5414 3.260 0.184
62.5619 3.250 0.184
62.5823 3.615 0.194
62.6028 3.333 0.186
62.6232 3.406 0.188
62.6437 3.125 0.180
62.6642 3.542 0.192
62.6846 3.365 0.187
62.7051 3.115 0.180
62.7256 3.229 0.183
62.7460 3.031 0.178
62.7665 3.448 0.190
62.7870 3.188 0.182
62.8074 3.240 0.184
62.8279 3.073 0.179
62.8483 3.615 0.194
62.8688 3.188 0.182
62.8893 3.344 0.187
62.9097 3.396 0.188
62.9302 3.552 0.192
62.9507 3.625 0.194
62.9711 3.344 0.187
62.9916 3.563 0.193
63.0120 3.490 0.191
63.0325 3.500 0.191
63.0530 3.292 0.185
63.0734 3.688 0.196
63.0939 4.135 0.208
63.1144 3.542 0.192
63.1348 3.885 0.201
63.1553 3.698 0.196
63.1757 3.615 0.194
63.1962 3.552 0.192
63.2167 3.573 0.193
63.2371 3.823 0.200
63.2576 3.615 0.194
63.2781 3.656 0.195
63.2985 3.469 0.190
63.3190 3.531 0.192
63.3394 3.875 0.201
63.3599 3.781 0.198
63.3804 4.021 0.205
63.4008 4.073 0.206
63.4213 3.448 0.190
63.4418 3.885 0.201
63.4622 3.688 0.196
63.4827 3.979 0.204
63.5032 3.813 0.199
63.5236 4.010 0.204
63.5441 4.313 0.212
63.5645 4.573 0.218
63.5850 4.344 0.213
63.6055 3.979 0.204
63.6259 4.490 0.216
63.6464 4.281 0.211
63.6669 4.635 0.220
63.6873 4.125 0.207
63.7078 4.115 0.207
63.7282 4.583 0.219
63.7487 4.823 0.224
63.7692 4.479 0.216
63.7896 4.198 0.209
63.8101 4.760 0.223
63.8306 4.323 0.212
63.8510 4.479 0.216
63.8715 4.823 0.224
63.8919 4.063 0.206
63.9124 4.490 0.216
63.9329 4.521 0.217
63.9533 4.708 0.221
63.9738 4.594 0.219
63.9943 4.510 0.217
64.0147 4.625 0.219
64.0352 5.135 0.231
64.0556 4.906 0.226
64.0761 4.781 0.223
64.0966 4.667 0.220
64.1170 4.781 0.223
64.1375 4.677 0.221
64.1580 4.198 0.209
64.1784 4.677 0.221
64.1989 4.260 0.211
64.2193 4.021 0.205
64.2398 4.448 0.215
64.2603 4.281 0.211
64.2807 4.531 0.217
64.3012 4.313 0.212
64.3217 4.115 0.207
64.3421 4.438 0.215
64.3626 4.563 0.218
64.3831 4.521 0.217
64.4035 5.167 0.232
64.4240 4.542 0.218
64.4444 4.083 0.206
64.4649 4.573 0.218
64.4854 4.938 0.227
64.5058 5.156 0.232
64.5263 5.573 0.241
64.5468 4.948 0.227
64.5672 5.750 0.245
64.5877 5.979 0.250
64.6081 6.479 0.260
64.6286 7.594 0.281
64.6491 7.438 0.278
64.6695 7.813 0.285
64.6900 7.708 0.283
64.7105 7.958 0.288
64.7309 6.969 0.269
64.7514 6.740 0.265
64.7718 7.042 0.271
64.7923 6.281 0.256
64.8128 6.292 0.256
64.8332 6.375 0.258
64.8537 6.000 0.250
64.8742 5.281 0.235
64.8946 5.469 0.239
64.9151 5.031 0.229
64.9355 4.823 0.224
64.9560 4.302 0.212
64.9765 4.323 0.212
64.9969 3.813 0.199
65.0174 4.458 0.216
65.0379 4.000 0.204
65.0583 4.000 0.204
65.0788 3.979 0.204
65.0992 3.740 0.197
65.1197 3.615 0.194
65.1402 3.552 0.192
65.1606 3.781 0.198
65.1811 3.781 0.198
65.2016 3.365 0.187
65.2220 4.135 0.208
65.2425 3.396 0.188
65.2630 3.635 0.195
65.2834 3.906 0.202
65.3039 3.490 0.191
65.3243 3.323 0.186
65.3448 3.948 0.203
65.3653 3.719 0.197
65.3857 3.833 0.200
65.4062 3.552 0.192
65.4267 4.177 0.209
65.4471 4.094 0.207
65.4676 4.354 0.213
65.4880 4.552 0.218
65.5085 4.104 0.207
65.5290 4.844 0.225
65.5494 4.896 0.226
65.5699 5.323 0.235
65.5904 5.750 0.245
65.6108 5.396 0.237
65.6313 5.219 0.233
65.6517 5.500 0.239
65.6722 5.094 0.230
65.6927 4.865 0.225
65.7131 4.729 0.222
65.7336 4.865 0.225
65.7541 4.719 0.222
65.7745 4.604 0.219
65.7950 4.948 0.227
65.8154 4.021 0.205
65.8359 4.188 0.209
65.8564 4.375 0.213
65.8768 3.802 0.199
65.8973 4.135 0.208
65.9178 3.510 0.191
65.9382 3.760 0.198
65.9587 3.625 0.194
65.9791 3.531 0.192
65.9996 3.792 0.199
66.0201 3.406 0.188
66.0405 3.365 0.187
66.0610 3.448 0.190
66.0815 3.552 0.192
66.1019 3.583 0.193
66.1224 3.427 0.189
66.1429 3.635 0.195
66.1633 3.563 0.193
66.1838 3.677 0.196
66.2042 3.646 0.195
66.2247 3.865 0.201
66.2452 3.229 0.183
66.2656 3.583 0.193
66.2861 3.708 0.197
66.3066 3.375 0.188
66.3270 3.688 0.196
66.3475 3.281 0.185
66.3679 3.479 0.190
66.3884 3.604 0.194
66.4089 3.385 0.188
66.4293 3.448 0.190
66.4498 3.563 0.193
66.4703 3.563 0.193
66.4907 3.094 0.180
66.5112 3.479 0.190
66.5316 3.354 0.187
66.5521 3.688 0.196
66.5726 3.333 0.186
66.5930 3.510 0.191
66.6135 3.365 0.187
66.6340 3.271 0.185
66.6544 3.573 0.193
66.6749 3.417 0.189
66.6953 3.344 0.187
66.7158 3.448 0.190
66.7363 3.583 0.193
66.7567 3.417 0.189
66.7772 4.063 0.206
66.7977 3.417 0.189
66.8181 3.719 0.197
66.8386 3.948 0.203
66.8590 3.250 0.184
66.8795 3.740 0.197
66.9000 3.708 0.197
66.9204 4.115 0.207
66.9409 4.219 0.210
66.9614 4.260 0.211
66.9818 4.073 0.206
67.0023 4.698 0.221
67.0228 5.031 0.229
67.0432 5.104 0.231
67.0637 6.042 0.251
67.0841 6.438 0.259
67.1046 7.010 0.270
67.1251 7.063 0.271
67.1455 7.781 0.285
67.1660 8.521 0.298
67.1865 7.844 0.286
67.2069 7.490 0.279
67.2274 6.635 0.263
67.2478 6.635 0.263
67.2683 6.292 0.256
67.2888 6.375 0.258
67.3092 6.229 0.255
67.3297 6.469 0.260
67.3502 6.281 0.256
67.3706 6.260 0.255
67.3911 6.146 0.253
67.4115 5.500 0.239
67.4320 5.385 0.237
67.4525 4.406 0.214
67.4729 4.667 0.220
67.4934 4.156 0.208
67.5139 4.240 0.210
67.5343 4.490 0.216
67.5548 4.698 0.221
67.5752 3.979 0.204
67.5957 4.490 0.216
67.6162 4.240 0.210
67.6366 4.406 0.214
67.6571 3.875 0.201
67.6776 4.490 0.216
67.6980 3.813 0.199
67.7185 4.344 0.213
67.7389 3.969 0.203
67.7594 4.219 0.210
67.7799 4.073 0.206
67.8003 4.229 0.210
67.8208 4.323 0.212
67.8413 4.052 0.205
67.8617 4.302 0.212
67.8822 4.104 0.207
67.9027 4.313 0.212
67.9231 4.052 0.205
67.9436 3.990 0.204
67.9640 4.438 0.215
67.9845 4.094 0.207
68.0050 3.729 0.197
68.0254 4.323 0.212
68.0459 4.542 0.218
68.0664 4.719 0.222
68.0868 4.490 0.216
68.1073 4.635 0.220
68.1277 4.500 0.217
68.1482 4.875 0.225
68.1687 4.688 0.221
68.1891 4.802 0.224
68.2096 4.521 0.217
68.2301 4.854 0.225
68.2505 4.792 0.223
68.2710 4.573 0.218
68.2914 5.073 0.230
68.3119 5.208 0.233
68.3324 5.542 0.240
68.3528 5.042 0.229
68.3733 5.521 0.240
68.3938 5.167 0.232
68.4142 4.521 0.217
68.4347 4.177 0.209
68.4551 4.229 0.210
68.4756 4.344 0.213
68.4961 4.510 0.217
68.5165 4.167 0.208
68.5370 4.698 0.221
68.5575 4.104 0.207
68.5779 4.333 0.212
68.5984 3.875 0.201
68.6189 3.750 0.198
68.6393 3.344 0.187
68.6598 3.396 0.188
68.6802 3.771 0.198
68.7007 3.583 0.193
68.7212 3.333 0.186
68.7416 3.427 0.189
68.7621 3.500 0.191
68.7826 3.667 0.195
68.8030 3.354 0.187
68.8235 3.677 0.196
68.8439 3.625 0.194
68.8644 3.542 0.192
68.8849 3.635 0.195
68.9053 3.969 0.203
68.9258 3.719 0.197
68.9463 3.760 0.198
68.9667 4.042 0.205
68.9872 4.135 0.208
69.0076 4.219 0.210
69.0281 4.563 0.218
69.0486 4.177 0.209
69.0690 3.688 0.196
69.0895 3.990 0.204
69.1100 3.948 0.203
69.1304 4.167 0.208
69.1509 3.833 0.200
69.1713 4.146 0.208
69.1918 4.219 0.210
69.2123 4.365 0.213
69.2327 4.198 0.209
69.2532 4.104 0.207
69.2737 4.458 0.216
69.2941 4.469 0.216
69.3146 3.813 0.199
69.3350 3.698 0.196
69.3555 3.417 0.189
69.3760 3.604 0.194
69.3964 3.375 0.188
69.4169 3.823 0.200
69.4374 3.417 0.189
69.4578 3.427 0.189
69.4783 3.729 0.197
69.4988 3.792 0.199
69.5192 3.573 0.193
69.5397 3.313 0.186
69.5601 3.302 0.185
69.5806 3.146 0.181
69.6011 3.104 0.180
69.6215 2.990 0.176
69.6420 3.031 0.178
69.6625 3.188 0.182
69.6829 3.146 0.181
69.7034 2.854 0.172
69.7238 3.188 0.182
69.7443 3.000 0.177
69.7648 3.125 0.180
69.7852 3.146 0.181
69.8057 2.844 0.172
69.8262 3.000 0.177
69.8466 3.281 0.185
69.8671 3.479 0.190
69.8875 2.979 0.176
69.9080 3.063 0.179
69.9285 2.677 0.167
69.9489 3.083 0.179
69.9694 3.271 0.185
69.9899 3.000 0.177
70.0103 3.271 0.185
70.0308 2.896 0.174
70.0512 3.115 0.180
70.0717 3.000 0.177
70.0922 3.229 0.183
70.1126 3.042 0.178
70.1331 3.219 0.183
70.1536 3.219 0.183
70.1740 3.250 0.184
70.1945 2.917 0.174
70.2149 3.292 0.185
70.2354 2.781 0.170
70.2559 2.792 0.171
70.2763 3.135 0.181
70.2968 3.042 0.178
70.3173 2.781 0.170
70.3377 3.083 0.179
70.3582 2.885 0.173
70.3787 3.031 0.178
70.3991 2.823 0.171
70.4196 2.781 0.170
70.4400 2.917 0.174
70.4605 3.344 0.187
70.4810 2.938 0.175
70.5014 3.219 0.183
70.5219 3.063 0.179
70.5424 2.802 0.171
70.5628 2.979 0.176
70.5833 3.146 0.181
70.6037 2.760 0.170
70.6242 2.802 0.171
70.6447 2.833 0.172
70.6651 2.667 0.167
70.6856 2.875 0.173
70.7061 2.635 0.166
70.7265 2.979 0.176
70.7470 2.854 0.172
70.7674 2.958 0.176
70.7879 2.771 0.170
70.8084 3.104 0.180
70.8288 3.344 0.187
70.8493 3.208 0.183
70.8698 2.865 0.173
70.8902 2.906 0.174
70.9107 2.688 0.167
70.9311 3.052 0.178
70.9516 2.865 0.173
70.9721 2.792 0.171
70.9925 2.750 0.169
71.0130 2.844 0.172
71.0335 2.771 0.170
71.0539 3.021 0.177
71.0744 3.042 0.178
71.0948 3.125 0.180
71.1153 2.729 0.169
71.1358 3.323 0.186
71.1562 3.073 0.179
71.1767 2.885 0.173
71.1972 3.073 0.179
71.2176 2.573 0.164
71.2381 3.042 0.178
71.2586 2.979 0.176
71.2790 3.094 0.180
71.2995 2.979 0.176
71.3199 3.240 0.184
71.3404 2.719 0.168
71.3609 2.917 0.174
71.3813 2.688 0.167
71.4018 2.552 0.163
71.4223 2.813 0.171
71.4427 2.823 0.171
71.4632 2.854 0.172
71.4836 2.656 0.166
71.5041 2.646 0.166
71.5246 2.708 0.168
71.5450 2.469 0.160
71.5655 2.490 0.161
71.5860 2.542 0.163
71.6064 2.688 0.167
71.6269 2.885 0.173
71.6473 2.646 0.166
71.6678 2.875 0.173
71.6883 2.344 0.156
71.7087 2.813 0.171
71.7292 2.698 0.168
71.7497 2.604 0.165
71.7701 2.594 0.164
71.7906 2.333 0.156
71.8110 2.781 0.170
71.8315 2.385 0.158
71.8520 2.323 0.156
71.8724 2.583 0.164
71.8929 2.646 0.166
71.9134 2.646 0.166
71.9338 2.781 0.170
71.9543 2.604 0.165
71.9747 2.531 0.162
71.9952 2.896 0.174
72.0157 2.573 0.164
72.0361 2.656 0.166
72.0566 2.479 0.161
72.0771 2.750 0.169
72.0975 2.573 0.164
72.1180 2.729 0.169
72.1385 2.677 0.167
72.1589 2.375 0.157
72.1794 2.302 0.155
72.1998 2.792 0.171
72.2203 2.865 0.173
72.2408 2.625 0.165
72.2612 2.583 0.164
72.2817 2.323 0.156
72.3022 2.813 0.171
72.3226 2.896 0.174
72.3431 2.719 0.168
72.3635 2.719 0.168
72.3840 2.385 0.158
72.4045 2.646 0.166
72.4249 2.292 0.155
72.4454 2.406 0.158
72.4659 2.740 0.169
72.4863 2.781 0.170
72.5068 2.740 0.169
72.5272 2.708 0.168
72.5477 2.615 0.165
72.5682 2.521 0.162
72.5886 2.552 0.163
72.6091 2.427 0.159
72.6296 2.615 0.165
72.6500 2.833 0.172
72.6705 2.635 0.166
72.6909 2.771 0.170
72.7114 2.573 0.164
72.7319 2.396 0.158
72.7523 2.813 0.171
72.7728 2.979 0.176
72.7933 3.083 0.179
72.8137 2.781 0.170
72.8342 2.917 0.174
72.8547 3.292 0.185
72.8751 3.052 0.178
72.8956 3.000 0.177
72.9160 3.010 0.177
72.9365 3.073 0.179
72.9570 2.656 0.166
72.9774 2.448 0.160
72.9979 2.719 0.168
73.0184 2.542 0.163
73.0388 2.677 0.167
73.0593 2.896 0.174
73.0797 3.021 0.177
73.1002 2.958 0.176
73.1207 2.760 0.170
73.1411 2.646 0.166
73.1616 2.479 0.161
73.1821 2.135 0.149
73.2025 2.344 0.156
73.2230 2.563 0.163
73.2434 2.719 0.168
73.2639 2.719 0.168
73.2844 2.302 0.155
73.3048 2.740 0.169
73.3253 2.552 0.163
73.3458 2.698 0.168
73.3662 2.406 0.158
73.3867 2.479 0.161
73.4071 2.563 0.163
73.4276 2.385 0.158
73.4481 2.573 0.164
73.4685 2.354 0.157
73.4890 2.396 0.158
73.5095 2.229 0.152
73.5299 2.396 0.158
73.5504 2.510 0.162
73.5708 2.667 0.167
73.5913 2.708 0.168
73.6118 2.531 0.162
73.6322 2.583 0.164
73.6527 2.313 0.155
73.6732 2.479 0.161
73.6936 2.667 0.167
73.7141 2.458 0.160
73.7346 2.177 0.151
73.7550 2.281 0.154
73.7755 2.542 0.163
73.7959 2.646 0.166
73.8164 2.469 0.160
73.8369 2.521 0.162
73.8573 2.417 0.159
73.8778 2.469 0.160
73.8983 2.208 0.152
73.9187 2.229 0.152
73.9392 2.563 0.163
73.9596 2.594 0.164
73.9801 2.365 0.157
74.0006 2.656 0.166
74.0210 2.667 0.167
74.0415 2.313 0.155
74.0620 2.833 0.172
74.0824 2.688 0.167
74.1029 2.635 0.166
74.1233 2.552 0.163
74.1438 2.740 0.169
74.1643 2.594 0.164
74.1847 2.521 0.162
74.2052 2.427 0.159
74.2257 2.417 0.159
74.2461 2.646 0.166
74.2666 2.417 0.159
74.2870 2.458 0.160
74.3075 2.802 0.171
74.3280 2.188 0.151
74.3484 2.500 0.161
74.3689 2.510 0.162
74.3894 2.448 0.160
74.4098 2.313 0.155
74.4303 2.427 0.159
74.4507 2.458 0.160
74.4712 2.344 0.156
74.4917 2.667 0.167
74.5121 2.219 0.152
74.5326 2.563 0.163
74.5531 2.177 0.151
74.5735 2.354 0.157
74.5940 2.490 0.161
74.6145 2.573 0.164
74.6349 2.563 0.163
74.6554 2.156 0.150
74.6758 2.406 0.158
74.6963 2.146 0.150
74.7168 2.573 0.164
74.7372 2.521 0.162
74.7577 2.260 0.153
74.7782 2.198 0.151
74.7986 2.531 0.162
74.8191 2.344 0.156
74.8395 2.563 0.163
74.8600 2.552 0.163
74.8805 2.542 0.163
74.9009 2.500 0.161
74.9214 2.563 0.163
74.9419 2.229 0.152
74.9623 2.344 0.156
74.9828 2.594 0.164
75.0032 2.271 0.154
75.0237 2.177 0.151
75.0442 2.281 0.154
75.0646 2.104 0.148
75.0851 2.323 0.156
75.1056 2.542 0.163
75.1260 2.458 0.160
75.1465 2.354 0.157
75.1669 2.510 0.162
75.1874 2.260 0.153
75.2079 2.510 0.162
75.2283 2.521 0.162
75.2488 2.396 0.158
75.2693 2.698 0.168
75.2897 2.594 0.164
75.3102 2.542 0.163
75.3306 2.729 0.169
75.3511 2.365 0.157
75.3716 2.542 0.163
75.3920 2.385 0.158
75.4125 2.500 0.161
75.4330 2.875 0.173
75.4534 2.792 0.171
75.4739 2.510 0.162
75.4944 2.875 0.173
75.5148 2.615 0.165
75.5353 2.688 0.167
75.5557 2.563 0.163
75.5762 2.844 0.172
75.5967 2.938 0.175
75.6171 3.167 0.182
75.6376 3.323 0.186
75.6581 3.333 0.186
75.6785 3.583 0.193
75.6990 3.490 0.191
75.7194 3.479 0.190
75.7399 3.854 0.200
75.7604 4.208 0.209
75.7808 4.406 0.214
75.8013 4.479 0.216
75.8218 4.375 0.213
75.8422 4.094 0.207
75.8627 3.969 0.203
75.8831 3.563 0.193
75.9036 3.865 0.201
75.9241 3.208 0.183
75.9445 3.250 0.184
75.9650 3.375 0.188
75.9855 3.458 0.190
76.0059 3.729 0.197
76.0264 3.438 0.189
76.0468 3.896 0.201
76.0673 3.677 0.196
76.0878 3.219 0.183
76.1082 3.031 0.178
76.1287 2.854 0.172
76.1492 2.896 0.174
76.1696 2.656 0.166
76.1901 2.813 0.171
76.2105 2.938 0.175
76.2310 2.938 0.175
76.2515 2.615 0.165
76.2719 2.625 0.165
76.2924 2.875 0.173
76.3129 2.781 0.170
76.3333 2.594 0.164
76.3538 2.688 0.167
76.3743 2.469 0.160
76.3947 2.604 0.165
76.4152 2.667 0.167
76.4356 2.885 0.173
76.4561 2.198 0.151
76.4766 2.813 0.171
76.4970 2.594 0.164
76.5175 2.771 0.170
76.5380 2.906 0.174
76.5584 2.604 0.165
76.5789 2.635 0.166
76.5993 2.677 0.167
76.6198 2.729 0.169
76.6403 2.521 0.162
76.6607 2.833 0.172
76.6812 2.719 0.168
76.7017 2.833 0.172
76.7221 2.458 0.160
76.7426 2.552 0.163
76.7630 2.594 0.164
76.7835 2.333 0.156
76.8040 2.406 0.158
76.8244 2.750 0.169
76.8449 2.396 0.158
76.8654 2.406 0.158
76.8858 2.740 0.169
76.9063 2.594 0.164
76.9267 2.604 0.165
76.9472 2.500 0.161
76.9677 2.385 0.158
76.9881 2.583 0.164
77.0086 2.344 0.156
77.0291 2.500 0.161
77.0495 2.688 0.167
77.0700 2.583 0.164
77.0905 2.490 0.161
77.1109 2.583 0.164
77.1314 2.375 0.157
77.1518 2.552 0.163
77.1723 2.604 0.165
77.1928 2.583 0.164
77.2132 2.500 0.161
77.2337 2.833 0.172
77.2542 2.552 0.163
77.2746 2.563 0.163
77.2951 2.917 0.174
77.3155 2.542 0.163
77.3360 2.490 0.161
77.3565 2.594 0.164
77.3769 2.760 0.170
77.3974 2.854 0.172
77.4179 2.635 0.166
77.4383 3.156 0.181
77.4588 2.813 0.171
77.4792 3.156 0.181
77.4997 3.375 0.188
77.5202 3.646 0.195
77.5406 3.458 0.190
77.5611 3.323 0.186
77.5816 3.323 0.186
77.6020 3.344 0.187
77.6225 3.125 0.180
77.6429 2.938 0.175
77.6634 3.229 0.183
77.6839 3.094 0.180
77.7043 3.000 0.177
77.7248 2.896 0.174
77.7453 3.115 0.180
77.7657 3.469 0.190
77.7862 2.979 0.176
77.8066 3.406 0.188
77.8271 3.542 0.192
77.8476 3.229 0.183
77.8680 2.740 0.169
77.8885 2.833 0.172
77.9090 3.010 0.177
77.9294 3.063 0.179
77.9499 3.063 0.179
77.9704 3.063 0.179
77.9908 2.896 0.174
78.0113 2.677 0.167
78.0317 2.885 0.173
78.0522 2.635 0.166
78.0727 2.719 0.168
78.0931 2.875 0.173
78.1136 2.698 0.168
78.1341 2.677 0.167
78.1545 2.948 0.175
78.1750 2.802 0.171
78.1954 2.677 0.167
78.2159 2.885 0.173
78.2364 2.844 0.172
78.2568 2.906 0.174
78.2773 2.917 0.174
78.2978 2.948 0.175
78.3182 2.813 0.171
78.3387 2.969 0.176
78.3591 2.823 0.171
78.3796 2.990 0.176
78.4001 3.021 0.177
78.4205 2.729 0.169
78.4410 2.969 0.176
78.4615 2.729 0.169
78.4819 3.156 0.181
78.5024 2.813 0.171
78.5228 2.760 0.170
78.5433 3.104 0.180
78.5638 2.865 0.173
78.5842 2.969 0.176
78.6047 2.927 0.175
78.6252 2.729 0.169
78.6456 3.073 0.179
78.6661 3.042 0.178
78.6865 2.615 0.165
78.7070 2.844 0.172
78.7275 2.802 0.171
78.7479 2.615 0.165
78.7684 2.844 0.172
78.7889 2.677 0.167
78.8093 2.760 0.170
78.8298 2.740 0.169
78.8503 3.115 0.180
78.8707 2.708 0.168
78.8912 2.854 0.172
78.9116 2.563 0.163
78.9321 3.000 0.177
78.9526 2.594 0.164
78.9730 3.052 0.178
78.9935 2.875 0.173
79.0140 2.917 0.174
79.0344 2.750 0.169
79.0549 2.740 0.169
79.0753 2.979 0.176
79.0958 3.250 0.184
79.1163 3.042 0.178
79.1367 2.656 0.166
79.1572 2.771 0.170
79.1777 2.823 0.171
79.1981 3.146 0.181
79.2186 2.635 0.166
79.2390 3.094 0.180
79.2595 2.604 0.165
79.2800 2.500 0.161
79.3004 2.688 0.167
79.3209 2.813 0.171
79.3414 2.677 0.167
79.3618 2.990 0.176
79.3823 2.646 0.166
79.4027 2.979 0.176
79.4232 3.115 0.180
79.4437 2.927 0.175
79.4641 3.229 0.183
79.4846 3.167 0.182
79.5051 3.385 0.188
79.5255 3.417 0.189
79.5460 3.542 0.192
79.5664 3.156 0.181
79.5869 3.156 0.181
79.6074 2.667 0.167
79.6278 3.167 0.182
79.6483 3.125 0.180
79.6688 3.094 0.180
79.6892 2.938 0.175
79.7097 2.708 0.168
79.7302 2.865 0.173
79.7506 2.281 0.154
79.7711 2.604 0.165
79.7915 3.042 0.178
79.8120 2.938 0.175
79.8325 2.917 0.174
79.8529 2.646 0.166
79.8734 2.698 0.168
79.8939 2.531 0.162
79.9143 2.750 0.169
79.9348 2.479 0.161
79.9552 2.677 0.167
79.9757 2.604 0.165
79.9962 2.740 0.169
