'Id: "" Comment: "" Operator: "Lab Manager" Anode: "Cu" Scantype: "Locked Coupled" TimePerStep: "96" X: "0" Y: "0" Z: "0" 
5.0000 24.479 0.505
5.0205 23.125 0.491
5.0409 23.563 0.495
5.0614 23.104 0.491
5.0819 23.490 0.495
5.1023 23.198 0.492
5.1228 24.010 0.500
5.1432 23.688 0.497
5.1637 22.875 0.488
5.1842 23.292 0.493
5.2046 22.781 0.487
5.2251 23.156 0.491
5.2456 23.177 0.491
5.2660 23.698 0.497
5.2865 22.438 0.483
5.3069 23.000 0.489
5.3274 22.531 0.484
5.3479 23.240 0.492
5.3683 22.656 0.486
5.3888 22.854 0.488
5.4093 21.646 0.475
5.4297 21.688 0.475
5.4502 22.375 0.483
5.4706 21.583 0.474
5.4911 22.583 0.485
5.5116 21.469 0.473
5.5320 21.406 0.472
5.5525 21.813 0.477
5.5730 22.635 0.486
5.5934 21.104 0.469
5.6139 22.438 0.483
5.6343 21.281 0.471
5.6548 21.823 0.477
5.6753 21.240 0.470
5.6957 21.667 0.475
5.7162 22.542 0.485
5.7367 22.250 0.481
5.7571 21.073 0.469
5.7776 22.073 0.480
5.7980 20.948 0.467
5.8185 21.385 0.472
5.8390 21.188 0.470
5.8594 22.198 0.481
5.8799 21.563 0.474
5.9004 21.177 0.470
5.9208 21.490 0.473
5.9413 21.469 0.473
5.9618 21.271 0.471
5.9822 21.635 0.475
6.0027 20.917 0.467
6.0231 20.990 0.468
6.0436 21.188 0.470
6.0641 19.906 0.455
6.0845 20.135 0.458
6.1050 20.885 0.466
6.1255 19.583 0.452
6.1459 21.115 0.469
6.1664 20.813 0.466
6.1868 21.146 0.469
6.2073 20.135 0.458
6.2278 20.240 0.459
6.2482 20.917 0.467
6.2687 20.760 0.465
6.2892 20.500 0.462
6.3096 21.031 0.468
6.3301 20.260 0.459
6.3505 20.500 0.462
6.3710 20.521 0.462
6.3915 20.958 0.467
6.4119 20.542 0.463
6.4324 19.510 0.451
6.4529 20.406 0.461
6.4733 20.729 0.465
6.4938 20.656 0.464
6.5142 20.583 0.463
6.5347 19.990 0.456
6.5552 19.792 0.454
6.5756 20.104 0.458
6.5961 20.469 0.462
6.6166 20.646 0.464
6.6370 20.542 0.463
6.6575 20.563 0.463
6.6779 20.583 0.463
6.6984 19.417 0.450
6.7189 20.417 0.461
6.7393 20.198 0.459
6.7598 19.385 0.449
6.7803 20.417 0.461
6.8007 20.583 0.463
6.8212 19.781 0.454
6.8417 19.823 0.454
6.8621 20.385 0.461
6.8826 20.510 0.462
6.9030 20.271 0.460
6.9235 20.083 0.457
6.9440 20.167 0.458
6.9644 20.385 0.461
6.9849 19.510 0.451
7.0054 19.865 0.455
7.0258 19.250 0.448
7.0463 19.323 0.449
7.0667 19.708 0.453
7.0872 19.354 0.449
7.1077 19.167 0.447
7.1281 19.500 0.451
7.1486 20.260 0.459
7.1691 20.292 0.460
7.1895 19.958 0.456
7.2100 19.990 0.456
7.2304 20.615 0.463
7.2509 20.646 0.464
7.2714 20.052 0.457
7.2918 19.917 0.455
7.3123 18.885 0.444
7.3328 19.365 0.449
7.3532 19.833 0.455
7.3737 19.958 0.456
7.3941 19.490 0.451
7.4146 19.396 0.449
7.4351 19.271 0.448
7.4555 20.240 0.459
7.4760 19.990 0.456
7.4965 19.813 0.454
7.5169 20.438 0.461
7.5374 18.573 0.440
7.5579 20.583 0.463
7.5783 19.865 0.455
7.5988 19.396 0.449
7.6192 20.313 0.460
7.6397 20.010 0.457
7.6602 19.500 0.451
7.6806 19.896 0.455
7.7011 19.021 0.445
7.7216 20.583 0.463
7.7420 20.302 0.460
7.7625 20.385 0.461
7.7829 20.344 0.460
7.8034 20.604 0.463
7.8239 20.250 0.459
7.8443 19.490 0.451
7.8648 20.740 0.465
7.8853 20.135 0.458
7.9057 20.021 0.457
7.9262 20.000 0.456
7.9466 20.750 0.465
7.9671 19.958 0.456
7.9876 20.958 0.467
8.0080 20.448 0.462
8.0285 20.063 0.457
8.0490 19.833 0.455
8.0694 19.948 0.456
8.0899 20.250 0.459
8.1103 20.229 0.459
8.1308 20.865 0.466
8.1513 19.771 0.454
8.1717 20.302 0.460
8.1922 19.615 0.452
8.2127 20.281 0.460
8.2331 20.531 0.462
8.2536 21.073 0.469
8.2740 20.802 0.465
8.2945 20.229 0.459
8.3150 20.271 0.460
8.3354 19.354 0.449
8.3559 20.646 0.464
8.3764 21.167 0.470
8.3968 19.635 0.452
8.4173 20.365 0.461
8.4378 21.510 0.473
8.4582 20.302 0.460
8.4787 19.771 0.454
8.4991 21.042 0.468
8.5196 19.802 0.454
8.5401 20.427 0.461
8.5605 20.615 0.463
8.5810 20.156 0.458
8.6015 20.510 0.462
8.6219 19.740 0.453
8.6424 20.073 0.457
8.6628 20.563 0.463
8.6833 19.708 0.453
8.7038 20.802 0.465
8.7242 20.490 0.462
8.7447 20.667 0.464
8.7652 21.344 0.472
8.7856 21.531 0.474
8.8061 21.177 0.470
8.8265 21.052 0.468
8.8470 21.177 0.470
8.8675 20.344 0.460
8.8879 21.896 0.478
8.9084 22.594 0.485
8.9289 23.646 0.496
8.9493 25.625 0.517
8.9698 24.115 0.501
8.9902 22.156 0.480
9.0107 22.500 0.484
9.0312 21.917 0.478
9.0516 22.906 0.488
9.0721 22.510 0.484
9.0926 22.823 0.488
9.1130 22.948 0.489
9.1335 24.552 0.506
9.1539 23.958 0.500
9.1744 26.188 0.522
9.1949 27.427 0.535
9.2153 28.927 0.549
9.2358 31.583 0.574
9.2563 34.927 0.603
9.2767 38.719 0.635
9.2972 43.323 0.672
9.3177 45.552 0.689
9.3381 45.063 0.685
9.3586 44.177 0.678
9.3790 42.344 0.664
9.3995 43.365 0.672
9.4200 43.510 0.673
9.4404 43.177 0.671
9.4609 42.042 0.662
9.4814 43.948 0.677
9.5018 46.635 0.697
9.5223 47.990 0.707
9.5427 52.573 0.740
9.5632 58.167 0.778
9.5837 67.510 0.839
9.6041 74.063 0.878
9.6246 82.042 0.924
9.6451 88.771 0.962
9.6655 96.792 1.004
9.6860 103.802 1.040
9.7064 116.521 1.102
9.7269 130.250 1.165
9.7474 147.760 1.241
9.7678 180.969 1.373
9.7883 233.948 1.561
9.8088 324.875 1.840
9.8292 470.563 2.214
9.8497 733.125 2.763
9.8701 1193.302 3.526
9.8906 1888.990 4.436
9.9111 2465.740 5.068
9.9315 1881.573 4.427
9.9520 916.438 3.090
9.9725 363.198 1.945
9.9929 202.865 1.454
10.0134 146.677 1.236
10.0338 119.510 1.116
10.0543 103.208 1.037
10.0748 93.427 0.987
10.0952 84.854 0.940
10.1157 78.552 0.905
10.1362 68.990 0.848
10.1566 61.583 0.801
10.1771 50.344 0.724
10.1976 43.625 0.674
10.2180 39.698 0.643
10.2385 38.188 0.631
10.2589 36.583 0.617
10.2794 35.781 0.611
10.2999 33.281 0.589
10.3203 32.146 0.579
10.3408 31.656 0.574
10.3613 30.833 0.567
10.3817 30.615 0.565
10.4022 30.010 0.559
10.4226 28.760 0.547
10.4431 28.865 0.548
10.4636 28.531 0.545
10.4840 27.771 0.538
10.5045 27.406 0.534
10.5250 27.938 0.539
10.5454 27.708 0.537
10.5659 27.188 0.532
10.5863 26.760 0.528
10.6068 25.938 0.520
10.6273 25.906 0.519
10.6477 25.677 0.517
10.6682 25.854 0.519
10.6887 24.688 0.507
10.7091 24.875 0.509
10.7296 26.688 0.527
10.7500 25.073 0.511
10.7705 24.802 0.508
10.7910 24.875 0.509
10.8114 23.927 0.499
10.8319 24.115 0.501
10.8524 23.573 0.496
10.8728 23.063 0.490
10.8933 22.188 0.481
10.9137 23.458 0.494
10.9342 22.708 0.486
10.9547 22.740 0.487
10.9751 22.667 0.486
10.9956 22.146 0.480
11.0161 21.531 0.474
11.0365 21.844 0.477
11.0570 21.375 0.472
11.0775 21.510 0.473
11.0979 21.333 0.471
11.1184 21.594 0.474
11.1388 21.229 0.470
11.1593 19.938 0.456
11.1798 20.260 0.459
11.2002 20.458 0.462
11.2207 20.177 0.458
11.2412 20.115 0.458
11.2616 20.750 0.465
11.2821 20.188 0.459
11.3025 20.375 0.461
11.3230 20.510 0.462
11.3435 20.313 0.460
11.3639 19.865 0.455
11.3844 19.188 0.447
11.4049 18.844 0.443
11.4253 18.719 0.442
11.4458 19.000 0.445
11.4662 19.135 0.446
11.4867 17.813 0.431
11.5072 18.396 0.438
11.5276 18.115 0.434
11.5481 18.521 0.439
11.5686 18.323 0.437
11.5890 18.917 0.444
11.6095 18.240 0.436
11.6299 18.656 0.441
11.6504 17.938 0.432
11.6709 17.823 0.431
11.6913 17.781 0.430
11.7118 17.198 0.423
11.7323 17.990 0.433
11.7527 17.177 0.423
11.7732 17.698 0.429
11.7937 17.313 0.425
11.8141 17.125 0.422
11.8346 17.385 0.426
11.8550 17.219 0.424
11.8755 16.354 0.413
11.8960 16.750 0.418
11.9164 15.979 0.408
11.9369 16.792 0.418
11.9574 17.281 0.424
11.9778 15.927 0.407
11.9983 15.531 0.402
12.0187 15.563 0.403
12.0392 15.969 0.408
12.0597 15.646 0.404
12.0801 15.865 0.407
12.1006 16.417 0.414
12.1211 15.438 0.401
12.1415 15.281 0.399
12.1620 15.823 0.406
12.1824 15.208 0.398
12.2029 15.344 0.400
12.2234 16.010 0.408
12.2438 15.396 0.400
12.2643 15.635 0.404
12.2848 15.250 0.399
12.3052 14.927 0.394
12.3257 15.385 0.400
12.3461 15.021 0.396
12.3666 14.198 0.385
12.3871 14.854 0.393
12.4075 14.729 0.392
12.4280 15.354 0.400
12.4485 15.094 0.397
12.4689 14.844 0.393
12.4894 14.250 0.385
12.5098 14.104 0.383
12.5303 14.281 0.386
12.5508 14.302 0.386
12.5712 14.427 0.388
12.5917 14.031 0.382
12.6122 14.271 0.386
12.6326 13.938 0.381
12.6531 14.365 0.387
12.6736 14.219 0.385
12.6940 13.719 0.378
12.7145 14.208 0.385
12.7349 14.188 0.384
12.7554 13.063 0.369
12.7759 13.813 0.379
12.7963 13.698 0.378
12.8168 13.667 0.377
12.8373 14.083 0.383
12.8577 13.594 0.376
12.8782 13.427 0.374
12.8986 13.052 0.369
12.9191 13.719 0.378
12.9396 13.385 0.373
12.9600 14.104 0.383
12.9805 13.729 0.378
13.0010 13.177 0.370
13.0214 13.094 0.369
13.0419 13.750 0.378
13.0623 13.292 0.372
13.0828 13.417 0.374
13.1033 12.969 0.368
13.1237 13.688 0.378
13.1442 14.177 0.384
13.1647 13.750 0.378
13.1851 13.313 0.372
13.2056 12.844 0.366
13.2260 12.917 0.367
13.2465 13.979 0.382
13.2670 13.219 0.371
13.2874 13.271 0.372
13.3079 13.333 0.373
13.3284 13.573 0.376
13.3488 13.292 0.372
13.3693 14.063 0.383
13.3897 13.792 0.379
13.4102 13.771 0.379
13.4307 13.302 0.372
13.4511 14.125 0.384
13.4716 13.250 0.372
13.4921 13.333 0.373
13.5125 14.125 0.384
13.5330 13.750 0.378
13.5535 13.802 0.379
13.5739 14.490 0.389
13.5944 13.646 0.377
13.6148 13.719 0.378
13.6353 14.073 0.383
13.6558 13.760 0.379
13.6762 15.042 0.396
13.6967 15.042 0.396
13.7172 15.865 0.407
13.7376 15.531 0.402
13.7581 15.156 0.397
13.7785 15.531 0.402
13.7990 15.417 0.401
13.8195 16.083 0.409
13.8399 16.719 0.417
13.8604 16.615 0.416
13.8809 16.542 0.415
13.9013 17.604 0.428
13.9218 17.365 0.425
13.9422 17.448 0.426
13.9627 18.510 0.439
13.9832 19.208 0.447
14.0036 19.583 0.452
14.0241 20.917 0.467
14.0446 20.729 0.465
14.0650 21.385 0.472
14.0855 22.458 0.484
14.1059 22.896 0.488
14.1264 24.260 0.503
14.1469 23.948 0.499
14.1673 25.594 0.516
14.1878 27.125 0.532
14.2083 29.396 0.553
14.2287 29.000 0.550
14.2492 30.844 0.567
14.2696 31.979 0.577
14.2901 33.563 0.591
14.3106 33.813 0.593
14.3310 33.719 0.593
14.3515 36.167 0.614
14.3720 37.104 0.622
14.3924 38.365 0.632
14.4129 38.490 0.633
14.4334 38.646 0.634
14.4538 38.281 0.631
14.4743 38.875 0.636
14.4947 37.240 0.623
14.5152 37.229 0.623
14.5357 36.031 0.613
14.5561 35.427 0.607
14.5766 33.219 0.588
14.5971 31.406 0.572
14.6175 30.521 0.564
14.6380 28.656 0.546
14.6584 27.635 0.537
14.6789 25.750 0.518
14.6994 24.896 0.509
14.7198 23.729 0.497
14.7403 22.406 0.483
14.7608 22.979 0.489
14.7812 20.667 0.464
14.8017 20.406 0.461
14.8221 19.021 0.445
14.8426 18.458 0.438
14.8631 17.917 0.432
14.8835 17.125 0.422
14.9040 16.302 0.412
14.9245 16.083 0.409
14.9449 16.021 0.409
14.9654 15.323 0.400
14.9858 15.000 0.395
15.0063 15.479 0.402
15.0268 13.635 0.377
15.0472 13.354 0.373
15.0677 14.125 0.384
15.0882 13.677 0.377
15.1086 13.240 0.371
15.1291 13.917 0.381
15.1495 12.646 0.363
15.1700 13.156 0.370
15.1905 12.208 0.357
15.2109 12.510 0.361
15.2314 11.844 0.351
15.2519 12.135 0.356
15.2723 11.875 0.352
15.2928 12.135 0.356
15.3133 12.021 0.354
15.3337 11.698 0.349
15.3542 11.469 0.346
15.3746 11.250 0.342
15.3951 11.646 0.348
15.4156 11.323 0.343
15.4360 11.250 0.342
15.4565 10.156 0.325
15.4770 11.198 0.342
15.4974 10.802 0.335
15.5179 10.750 0.335
15.5383 10.156 0.325
15.5588 10.365 0.329
15.5793 9.958 0.322
15.5997 10.552 0.332
15.6202 10.458 0.330
15.6407 10.260 0.327
15.6611 9.979 0.322
15.6816 9.979 0.322
15.7020 9.854 0.320
15.7225 9.396 0.313
15.7430 9.427 0.313
15.7634 9.552 0.315
15.7839 10.344 0.328
15.8044 10.146 0.325
15.8248 10.302 0.328
15.8453 10.219 0.326
15.8657 9.604 0.316
15.8862 9.885 0.321
15.9067 9.938 0.322
15.9271 9.740 0.319
15.9476 9.521 0.315
15.9681 9.740 0.319
15.9885 9.542 0.315
16.0090 9.906 0.321
16.0295 9.719 0.318
16.0499 9.552 0.315
16.0704 9.063 0.307
16.0908 9.177 0.309
16.1113 9.385 0.313
16.1318 9.104 0.308
16.1522 9.281 0.311
16.1727 9.323 0.312
16.1932 8.719 0.301
16.2136 9.042 0.307
16.2341 9.573 0.316
16.2545 9.198 0.310
16.2750 9.344 0.312
16.2955 8.813 0.303
16.3159 8.740 0.302
16.3364 8.667 0.300
16.3569 8.354 0.295
16.3773 8.844 0.304
16.3978 8.896 0.304
16.4182 8.708 0.301
16.4387 9.229 0.310
16.4592 9.031 0.307
16.4796 8.573 0.299
16.5001 8.875 0.304
16.5206 8.625 0.300
16.5410 9.063 0.307
16.5615 8.708 0.301
16.5819 8.594 0.299
16.6024 9.240 0.310
16.6229 8.323 0.294
16.6433 8.823 0.303
16.6638 8.542 0.298
16.6843 8.375 0.295
16.7047 8.302 0.294
16.7252 8.104 0.291
16.7456 7.771 0.285
16.7661 8.042 0.289
16.7866 8.010 0.289
16.8070 8.490 0.297
16.8275 8.688 0.301
16.8480 8.583 0.299
16.8684 8.365 0.295
16.8889 8.885 0.304
16.9094 8.833 0.303
16.9298 8.438 0.296
16.9503 7.844 0.286
16.9707 7.750 0.284
16.9912 8.542 0.298
17.0117 8.615 0.300
17.0321 8.073 0.290
17.0526 7.729 0.284
17.0731 7.896 0.287
17.0935 8.031 0.289
17.1140 8.469 0.297
17.1344 8.448 0.297
17.1549 8.406 0.296
17.1754 7.990 0.288
17.1958 9.000 0.306
17.2163 8.448 0.297
17.2368 8.656 0.300
17.2572 8.615 0.300
17.2777 9.219 0.310
17.2981 9.813 0.320
17.3186 9.875 0.321
17.3391 10.750 0.335
17.3595 10.823 0.336
17.3800 10.000 0.323
17.4005 9.958 0.322
17.4209 9.063 0.307
17.4414 8.688 0.301
17.4618 8.552 0.298
17.4823 7.990 0.288
17.5028 8.208 0.292
17.5232 7.833 0.286
17.5437 8.167 0.292
17.5642 8.000 0.289
17.5846 7.906 0.287
17.6051 8.552 0.298
17.6255 8.229 0.293
17.6460 7.375 0.277
17.6665 7.865 0.286
17.6869 7.938 0.288
17.7074 8.292 0.294
17.7279 8.021 0.289
17.7483 7.906 0.287
17.7688 8.531 0.298
17.7893 8.260 0.293
17.8097 8.552 0.298
17.8302 8.844 0.304
17.8506 8.833 0.303
17.8711 9.188 0.309
17.8916 9.219 0.310
17.9120 9.990 0.323
17.9325 10.031 0.323
17.9530 8.865 0.304
17.9734 8.323 0.294
17.9939 9.719 0.318
18.0143 9.510 0.315
18.0348 10.031 0.323
18.0553 12.292 0.358
18.0757 14.667 0.391
18.0962 15.719 0.405
18.1167 15.052 0.396
18.1371 13.240 0.371
18.1576 11.573 0.347
18.1780 9.500 0.315
18.1985 9.031 0.307
18.2190 8.375 0.295
18.2394 8.865 0.304
18.2599 9.052 0.307
18.2804 8.510 0.298
18.3008 8.990 0.306
18.3213 8.698 0.301
18.3417 8.458 0.297
18.3622 8.667 0.300
18.3827 8.563 0.299
18.4031 8.281 0.294
18.4236 8.375 0.295
18.4441 9.135 0.308
18.4645 9.354 0.312
18.4850 8.688 0.301
18.5054 9.271 0.311
18.5259 9.198 0.310
18.5464 9.927 0.322
18.5668 10.927 0.337
18.5873 12.083 0.355
18.6078 12.688 0.364
18.6282 13.927 0.381
18.6487 13.521 0.375
18.6692 13.469 0.375
18.6896 13.635 0.377
18.7101 12.927 0.367
18.7305 12.917 0.367
18.7510 12.104 0.355
18.7715 12.250 0.357
18.7919 11.604 0.348
18.8124 12.031 0.354
18.8329 11.188 0.341
18.8533 11.625 0.348
18.8738 11.292 0.343
18.8942 11.000 0.339
18.9147 10.500 0.331
18.9352 11.271 0.343
18.9556 11.406 0.345
18.9761 11.604 0.348
18.9966 11.594 0.348
19.0170 11.854 0.351
19.0375 11.188 0.341
19.0579 11.167 0.341
19.0784 11.458 0.345
19.0989 11.385 0.344
19.1193 10.844 0.336
19.1398 11.406 0.345
19.1603 12.885 0.366
19.1807 13.125 0.370
19.2012 12.677 0.363
19.2216 13.625 0.377
19.2421 14.313 0.386
19.2626 13.740 0.378
19.2830 13.552 0.376
19.3035 14.635 0.390
19.3240 13.885 0.380
19.3444 13.813 0.379
19.3649 14.365 0.387
19.3853 14.281 0.386
19.4058 15.573 0.403
19.4263 14.802 0.393
19.4467 15.260 0.399
19.4672 16.427 0.414
19.4877 17.000 0.421
19.5081 18.219 0.436
19.5286 19.333 0.449
19.5491 21.073 0.469
19.5695 22.823 0.488
19.5900 25.896 0.519
19.6104 28.208 0.542
19.6309 29.031 0.550
19.6514 33.021 0.586
19.6718 34.719 0.601
19.6923 39.156 0.639
19.7128 46.896 0.699
19.7332 58.938 0.784
19.7537 78.104 0.902
19.7741 111.521 1.078
19.7946 172.281 1.340
19.8151 303.948 1.779
19.8355 541.198 2.374
19.8560 664.573 2.631
19.8765 448.771 2.162
19.8969 384.833 2.002
19.9174 257.292 1.637
19.9378 108.635 1.064
19.9583 65.646 0.827
19.9788 50.656 0.726
19.9992 42.208 0.663
20.0197 37.302 0.623
20.0402 34.323 0.598
20.0606 30.385 0.563
20.0811 27.594 0.536
20.1015 23.177 0.491
20.1220 20.823 0.466
20.1425 19.188 0.447
20.1629 16.677 0.417
20.1834 15.000 0.395
20.2039 14.042 0.382
20.2243 13.271 0.372
20.2448 12.490 0.361
20.2653 12.948 0.367
20.2857 11.656 0.348
20.3062 11.510 0.346
20.3266 11.521 0.346
20.3471 11.240 0.342
20.3676 11.010 0.339
20.3880 10.667 0.333
20.4085 10.083 0.324
20.4290 9.958 0.322
20.4494 10.167 0.325
20.4699 10.188 0.326
20.4903 10.656 0.333
20.5108 10.542 0.331
20.5313 10.104 0.324
20.5517 9.583 0.316
20.5722 10.219 0.326
20.5927 9.708 0.318
20.6131 9.740 0.319
20.6336 10.083 0.324
20.6540 9.323 0.312
20.6745 9.563 0.316
20.6950 8.781 0.302
20.7154 9.229 0.310
20.7359 9.094 0.308
20.7564 8.969 0.306
20.7768 9.479 0.314
20.7973 8.208 0.292
20.8177 8.813 0.303
20.8382 8.573 0.299
20.8587 8.844 0.304
20.8791 8.896 0.304
20.8996 8.677 0.301
20.9201 9.000 0.306
20.9405 8.448 0.297
20.9610 9.458 0.314
20.9814 8.396 0.296
21.0019 8.563 0.299
21.0224 8.990 0.306
21.0428 8.688 0.301
21.0633 8.792 0.303
21.0838 7.521 0.280
21.1042 8.500 0.298
21.1247 8.156 0.291
21.1452 8.333 0.295
21.1656 8.396 0.296
21.1861 8.813 0.303
21.2065 7.969 0.288
21.2270 8.313 0.294
21.2475 8.073 0.290
21.2679 8.010 0.289
21.2884 8.010 0.289
21.3089 7.885 0.287
21.3293 8.083 0.290
21.3498 8.323 0.294
21.3702 8.344 0.295
21.3907 7.865 0.286
21.4112 8.948 0.305
21.4316 8.271 0.294
21.4521 8.490 0.297
21.4726 8.604 0.299
21.4930 8.510 0.298
21.5135 8.719 0.301
21.5339 8.854 0.304
21.5544 8.615 0.300
21.5749 8.323 0.294
21.5953 8.594 0.299
21.6158 8.594 0.299
21.6363 8.542 0.298
21.6567 8.938 0.305
21.6772 9.167 0.309
21.6976 9.042 0.307
21.7181 8.781 0.302
21.7386 9.135 0.308
21.7590 9.104 0.308
21.7795 8.438 0.296
21.8000 8.948 0.305
21.8204 8.625 0.300
21.8409 8.823 0.303
21.8613 9.125 0.308
21.8818 9.427 0.313
21.9023 9.854 0.320
21.9227 9.396 0.313
21.9432 10.104 0.324
21.9637 10.219 0.326
21.9841 10.938 0.338
22.0046 11.573 0.347
22.0251 11.656 0.348
22.0455 12.615 0.362
22.0660 13.000 0.368
22.0864 15.292 0.399
22.1069 18.708 0.441
22.1274 23.802 0.498
22.1478 35.365 0.607
22.1683 54.365 0.753
22.1888 80.573 0.916
22.2092 100.219 1.022
22.2297 84.573 0.939
22.2501 67.052 0.836
22.2706 57.042 0.771
22.2911 37.385 0.624
22.3115 25.063 0.511
22.3320 18.979 0.445
22.3525 15.990 0.408
22.3729 14.052 0.383
22.3934 13.417 0.374
22.4138 12.021 0.354
22.4343 12.115 0.355
22.4548 11.094 0.340
22.4752 10.604 0.332
22.4957 10.208 0.326
22.5162 9.719 0.318
22.5366 9.302 0.311
22.5571 8.927 0.305
22.5775 8.990 0.306
22.5980 8.927 0.305
22.6185 8.656 0.300
22.6389 8.354 0.295
22.6594 8.458 0.297
22.6799 8.677 0.301
22.7003 8.896 0.304
22.7208 8.896 0.304
22.7412 8.469 0.297
22.7617 8.469 0.297
22.7822 8.010 0.289
22.8026 8.344 0.295
22.8231 7.958 0.288
22.8436 8.198 0.292
22.8640 8.385 0.296
22.8845 8.146 0.291
22.9050 8.073 0.290
22.9254 8.240 0.293
22.9459 7.708 0.283
22.9663 7.771 0.285
22.9868 8.031 0.289
23.0073 7.646 0.282
23.0277 7.604 0.281
23.0482 7.854 0.286
23.0687 8.240 0.293
23.0891 7.875 0.286
23.1096 7.250 0.275
23.1300 7.885 0.287
23.1505 7.792 0.285
23.1710 7.896 0.287
23.1914 7.948 0.288
23.2119 7.531 0.280
23.2324 7.854 0.286
23.2528 7.833 0.286
23.2733 7.531 0.280
23.2937 8.115 0.291
23.3142 7.865 0.286
23.3347 7.542 0.280
23.3551 8.031 0.289
23.3756 7.688 0.283
23.3961 7.594 0.281
23.4165 8.188 0.292
23.4370 7.615 0.282
23.4574 7.865 0.286
23.4779 7.750 0.284
23.4984 7.833 0.286
23.5188 7.563 0.281
23.5393 7.792 0.285
23.5598 7.865 0.286
23.5802 7.990 0.288
23.6007 8.146 0.291
23.6211 8.146 0.291
23.6416 8.688 0.301
23.6621 8.594 0.299
23.6825 8.292 0.294
23.7030 8.302 0.294
23.7235 8.188 0.292
23.7439 7.635 0.282
23.7644 7.281 0.275
23.7849 7.594 0.281
23.8053 7.552 0.280
23.8258 7.531 0.280
23.8462 7.385 0.277
23.8667 7.323 0.276
23.8872 6.865 0.267
23.9076 6.719 0.265
23.9281 6.979 0.270
23.9486 7.031 0.271
23.9690 7.260 0.275
23.9895 7.271 0.275
24.0099 7.042 0.271
24.0304 7.250 0.275
24.0509 7.094 0.272
24.0713 7.469 0.279
24.0918 7.073 0.271
24.1123 6.969 0.269
24.1327 7.385 0.277
24.1532 7.750 0.284
24.1736 7.740 0.284
24.1941 7.458 0.279
24.2146 8.010 0.289
24.2350 7.292 0.276
24.2555 7.865 0.286
24.2760 8.604 0.299
24.2964 10.833 0.336
24.3169 12.333 0.358
24.3373 14.667 0.391
24.3578 16.042 0.409
24.3783 14.615 0.390
24.3987 12.083 0.355
24.4192 11.719 0.349
24.4397 9.781 0.319
24.4601 8.531 0.298
24.4806 8.240 0.293
24.5011 7.885 0.287
24.5215 7.063 0.271
24.5420 7.073 0.271
24.5624 6.771 0.266
24.5829 6.573 0.262
24.6034 6.625 0.263
24.6238 6.969 0.269
24.6443 6.938 0.269
24.6648 6.750 0.265
24.6852 6.688 0.264
24.7057 6.604 0.262
24.7261 6.760 0.265
24.7466 6.646 0.263
24.7671 6.729 0.265
24.7875 6.208 0.254
24.8080 6.844 0.267
24.8285 6.583 0.262
24.8489 6.625 0.263
24.8694 6.688 0.264
24.8898 6.354 0.257
24.9103 6.427 0.259
24.9308 6.552 0.261
24.9512 6.448 0.259
24.9717 6.240 0.255
24.9922 6.740 0.265
25.0126 6.167 0.253
25.0331 6.542 0.261
25.0535 6.667 0.264
25.0740 6.573 0.262
25.0945 6.000 0.250
25.1149 6.385 0.258
25.1354 6.302 0.256
25.1559 6.313 0.256
25.1763 6.229 0.255
25.1968 6.729 0.265
25.2172 6.448 0.259
25.2377 6.333 0.257
25.2582 6.198 0.254
25.2786 6.135 0.253
25.2991 6.406 0.258
25.3196 6.521 0.261
25.3400 6.188 0.254
25.3605 6.813 0.266
25.3810 5.938 0.249
25.4014 6.010 0.250
25.4219 6.198 0.254
25.4423 6.625 0.263
25.4628 6.271 0.256
25.4833 6.385 0.258
25.5037 5.969 0.249
25.5242 6.198 0.254
25.5447 6.208 0.254
25.5651 6.813 0.266
25.5856 6.031 0.251
25.6060 6.094 0.252
25.6265 6.250 0.255
25.6470 6.042 0.251
25.6674 6.146 0.253
25.6879 6.104 0.252
25.7084 6.510 0.260
25.7288 6.188 0.254
25.7493 6.323 0.257
25.7697 6.802 0.266
25.7902 6.323 0.257
25.8107 6.177 0.254
25.8311 6.583 0.262
25.8516 6.208 0.254
25.8721 5.823 0.246
25.8925 6.167 0.253
25.9130 5.781 0.245
25.9334 6.677 0.264
25.9539 6.156 0.253
25.9744 6.500 0.260
25.9948 6.396 0.258
26.0153 6.271 0.256
26.0358 5.885 0.248
26.0562 6.156 0.253
26.0767 5.969 0.249
26.0971 6.229 0.255
26.1176 6.177 0.254
26.1381 6.354 0.257
26.1585 5.938 0.249
26.1790 6.302 0.256
26.1995 6.167 0.253
26.2199 5.917 0.248
26.2404 6.375 0.258
26.2609 6.177 0.254
26.2813 6.083 0.252
26.3018 6.323 0.257
26.3222 6.563 0.261
26.3427 5.885 0.248
26.3632 6.229 0.255
26.3836 6.531 0.261
26.4041 5.781 0.245
26.4246 6.021 0.250
26.4450 6.042 0.251
26.4655 6.260 0.255
26.4859 6.667 0.264
26.5064 6.490 0.260
26.5269 6.479 0.260
26.5473 6.490 0.260
26.5678 6.219 0.255
26.5883 6.719 0.265
26.6087 6.594 0.262
26.6292 7.427 0.278
26.6496 6.979 0.270
26.6701 6.656 0.263
26.6906 6.542 0.261
26.7110 6.990 0.270
26.7315 6.375 0.258
26.7520 6.083 0.252
26.7724 6.177 0.254
26.7929 6.458 0.259
26.8133 6.448 0.259
26.8338 6.135 0.253
26.8543 6.125 0.253
26.8747 5.740 0.245
26.8952 6.635 0.263
26.9157 6.177 0.254
26.9361 6.375 0.258
26.9566 5.646 0.243
26.9770 6.542 0.261
26.9975 5.948 0.249
27.0180 6.354 0.257
27.0384 6.615 0.262
27.0589 5.969 0.249
27.0794 6.396 0.258
27.0998 6.146 0.253
27.1203 6.448 0.259
27.1408 6.031 0.251
27.1612 5.823 0.246
27.1817 7.021 0.270
27.2021 6.656 0.263
27.2226 6.438 0.259
27.2431 5.917 0.248
27.2635 6.792 0.266
27.2840 6.375 0.258
27.3045 6.563 0.261
27.3249 6.198 0.254
27.3454 6.417 0.259
27.3658 7.010 0.270
27.3863 6.635 0.263
27.4068 6.250 0.255
27.4272 6.458 0.259
27.4477 7.073 0.271
27.4682 6.708 0.264
27.4886 7.010 0.270
27.5091 6.573 0.262
27.5295 6.906 0.268
27.5500 6.802 0.266
27.5705 6.979 0.270
27.5909 6.573 0.262
27.6114 7.021 0.270
27.6319 7.125 0.272
27.6523 6.688 0.264
27.6728 7.219 0.274
27.6932 7.448 0.279
27.7137 7.667 0.283
27.7342 7.198 0.274
27.7546 8.073 0.290
27.7751 7.729 0.284
27.7956 7.854 0.286
27.8160 8.531 0.298
27.8365 8.625 0.300
27.8569 8.802 0.303
27.8774 9.302 0.311
27.8979 8.854 0.304
27.9183 9.583 0.316
27.9388 10.094 0.324
27.9593 10.563 0.332
27.9797 11.010 0.339
28.0002 11.240 0.342
28.0207 11.875 0.352
28.0411 12.917 0.367
28.0616 13.708 0.378
28.0820 13.615 0.377
28.1025 14.479 0.388
28.1230 15.563 0.403
28.1434 16.531 0.415
28.1639 16.688 0.417
28.1844 17.448 0.426
28.2048 18.177 0.435
28.2253 18.229 0.436
28.2457 17.688 0.429
28.2662 17.958 0.433
28.2867 17.771 0.430
28.3071 17.417 0.426
28.3276 16.063 0.409
28.3481 16.781 0.418
28.3685 14.458 0.388
28.3890 13.448 0.374
28.4094 13.979 0.382
28.4299 13.552 0.376
28.4504 13.031 0.368
28.4708 11.552 0.347
28.4913 11.302 0.343
28.5118 11.396 0.345
28.5322 10.917 0.337
28.5527 10.344 0.328
28.5731 9.552 0.315
28.5936 9.177 0.309
28.6141 8.646 0.300
28.6345 8.167 0.292
28.6550 8.448 0.297
28.6755 8.271 0.294
28.6959 7.740 0.284
28.7164 7.396 0.278
28.7368 7.948 0.288
28.7573 6.542 0.261
28.7778 6.969 0.269
28.7982 6.656 0.263
28.8187 6.688 0.264
28.8392 7.083 0.272
28.8596 6.719 0.265
28.8801 6.177 0.254
28.9006 6.052 0.251
28.9210 6.323 0.257
28.9415 6.490 0.260
28.9619 6.635 0.263
28.9824 6.031 0.251
29.0029 5.792 0.246
29.0233 6.354 0.257
29.0438 6.188 0.254
29.0643 5.990 0.250
29.0847 5.948 0.249
29.1052 5.938 0.249
29.1256 5.969 0.249
29.1461 5.667 0.243
29.1666 6.260 0.255
29.1870 6.125 0.253
29.2075 5.667 0.243
29.2280 5.458 0.238
29.2484 5.865 0.247
29.2689 5.802 0.246
29.2893 6.156 0.253
29.3098 6.000 0.250
29.3303 6.125 0.253
29.3507 6.344 0.257
29.3712 6.740 0.265
29.3917 6.948 0.269
29.4121 7.000 0.270
29.4326 6.250 0.255
29.4530 6.469 0.260
29.4735 6.667 0.264
29.4940 6.250 0.255
29.5144 5.750 0.245
29.5349 6.375 0.258
29.5554 5.438 0.238
29.5758 5.667 0.243
29.5963 5.490 0.239
29.6168 5.344 0.236
29.6372 5.583 0.241
29.6577 5.771 0.245
29.6781 5.771 0.245
29.6986 5.760 0.245
29.7191 5.990 0.250
29.7395 5.938 0.249
29.7600 5.604 0.242
29.7805 5.625 0.242
29.8009 5.615 0.242
29.8214 5.604 0.242
29.8418 5.740 0.245
29.8623 5.615 0.242
29.8828 5.635 0.242
29.9032 6.073 0.252
29.9237 6.281 0.256
29.9442 6.958 0.269
29.9646 6.438 0.259
29.9851 5.875 0.247
30.0055 6.448 0.259
30.0260 6.406 0.258
30.0465 5.948 0.249
30.0669 5.469 0.239
30.0874 5.865 0.247
30.1079 5.573 0.241
30.1283 5.531 0.240
30.1488 5.698 0.244
30.1692 5.458 0.238
30.1897 6.000 0.250
30.2102 5.719 0.244
30.2306 5.906 0.248
30.2511 5.656 0.243
30.2716 5.510 0.240
30.2920 5.677 0.243
30.3125 5.771 0.245
30.3329 5.740 0.245
30.3534 5.229 0.233
30.3739 4.990 0.228
30.3943 5.281 0.235
30.4148 4.927 0.227
30.4353 5.385 0.237
30.4557 5.208 0.233
30.4762 5.635 0.242
30.4967 5.229 0.233
30.5171 5.719 0.244
30.5376 4.917 0.226
30.5580 5.635 0.242
30.5785 5.271 0.234
30.5990 5.656 0.243
30.6194 5.625 0.242
30.6399 5.448 0.238
30.6604 5.698 0.244
30.6808 5.656 0.243
30.7013 5.531 0.240
30.7217 5.927 0.248
30.7422 5.792 0.246
30.7627 6.083 0.252
30.7831 6.198 0.254
30.8036 6.365 0.257
30.8241 6.635 0.263
30.8445 6.656 0.263
30.8650 7.135 0.273
30.8854 7.198 0.274
30.9059 7.938 0.288
30.9264 8.990 0.306
30.9468 9.688 0.318
30.9673 14.031 0.382
30.9878 21.104 0.469
31.0082 32.708 0.584
31.0287 51.583 0.733
31.0491 58.438 0.780
31.0696 44.792 0.683
31.0901 37.104 0.622
31.1105 36.854 0.620
31.1310 32.427 0.581
31.1515 22.990 0.489
31.1719 15.458 0.401
31.1924 10.958 0.338
31.2128 8.906 0.305
31.2333 7.260 0.275
31.2538 7.125 0.272
31.2742 6.823 0.267
31.2947 6.781 0.266
31.3152 5.625 0.242
31.3356 6.073 0.252
31.3561 6.063 0.251
31.3766 5.708 0.244
31.3970 5.615 0.242
31.4175 5.490 0.239
31.4379 5.833 0.247
31.4584 5.302 0.235
31.4789 5.313 0.235
31.4993 5.594 0.241
31.5198 5.479 0.239
31.5403 5.417 0.238
31.5607 5.146 0.232
31.5812 5.281 0.235
31.6016 5.604 0.242
31.6221 5.823 0.246
31.6426 5.646 0.243
31.6630 5.198 0.233
31.6835 5.135 0.231
31.7040 5.208 0.233
31.7244 5.240 0.234
31.7449 5.479 0.239
31.7653 5.781 0.245
31.7858 5.719 0.244
31.8063 5.542 0.240
31.8267 5.313 0.235
31.8472 6.010 0.250
31.8677 6.448 0.259
31.8881 6.646 0.263
31.9086 6.906 0.268
31.9290 6.938 0.269
31.9495 7.010 0.270
31.9700 7.000 0.270
31.9904 6.833 0.267
32.0109 7.406 0.278
32.0314 7.344 0.277
32.0518 7.135 0.273
32.0723 7.771 0.285
32.0927 8.823 0.303
32.1132 10.823 0.336
32.1337 11.604 0.348
32.1541 9.563 0.316
32.1746 8.740 0.302
32.1951 8.146 0.291
32.2155 8.448 0.297
32.2360 7.896 0.287
32.2565 7.104 0.272
32.2769 6.271 0.256
32.2974 6.469 0.260
32.3178 6.354 0.257
32.3383 6.000 0.250
32.3588 6.167 0.253
32.3792 6.240 0.255
32.3997 6.406 0.258
32.4202 6.917 0.268
32.4406 6.448 0.259
32.4611 7.552 0.280
32.4815 7.479 0.279
32.5020 8.188 0.292
32.5225 9.229 0.310
32.5429 9.573 0.316
32.5634 11.156 0.341
32.5839 14.573 0.390
32.6043 18.427 0.438
32.6248 25.698 0.517
32.6452 29.688 0.556
32.6657 26.083 0.521
32.6862 19.760 0.454
32.7066 18.552 0.440
32.7271 18.240 0.436
32.7476 16.219 0.411
32.7680 11.344 0.344
32.7885 8.292 0.294
32.8089 7.104 0.272
32.8294 6.771 0.266
32.8499 6.323 0.257
32.8703 5.719 0.244
32.8908 5.865 0.247
32.9113 5.917 0.248
32.9317 5.938 0.249
32.9522 5.104 0.231
32.9726 5.188 0.232
32.9931 5.448 0.238
33.0136 5.469 0.239
33.0340 5.396 0.237
33.0545 5.354 0.236
33.0750 5.146 0.232
33.0954 5.354 0.236
33.1159 5.073 0.230
33.1364 4.990 0.228
33.1568 5.167 0.232
33.1773 4.792 0.223
33.1977 4.927 0.227
33.2182 5.344 0.236
33.2387 4.729 0.222
33.2591 5.094 0.230
33.2796 5.271 0.234
33.3001 4.927 0.227
33.3205 5.198 0.233
33.3410 5.292 0.235
33.3614 5.135 0.231
33.3819 4.854 0.225
33.4024 5.344 0.236
33.4228 5.115 0.231
33.4433 4.896 0.226
33.4638 5.042 0.229
33.4842 5.469 0.239
33.5047 5.063 0.230
33.5251 5.240 0.234
33.5456 5.354 0.236
33.5661 4.771 0.223
33.5865 4.813 0.224
33.6070 5.240 0.234
33.6275 4.906 0.226
33.6479 4.844 0.225
33.6684 4.865 0.225
33.6888 5.219 0.233
33.7093 5.031 0.229
33.7298 4.698 0.221
33.7502 5.021 0.229
33.7707 5.104 0.231
33.7912 4.688 0.221
33.8116 5.365 0.236
33.8321 4.990 0.228
33.8526 5.260 0.234
33.8730 5.323 0.235
33.8935 5.271 0.234
33.9139 4.927 0.227
33.9344 4.813 0.224
33.9549 4.854 0.225
33.9753 4.865 0.225
33.9958 4.656 0.220
34.0163 4.740 0.222
34.0367 5.458 0.238
34.0572 4.917 0.226
34.0776 4.458 0.216
34.0981 4.781 0.223
34.1186 4.896 0.226
34.1390 4.677 0.221
34.1595 4.844 0.225
34.1800 5.052 0.229
34.2004 4.792 0.223
34.2209 5.167 0.232
34.2413 4.760 0.223
34.2618 4.948 0.227
34.2823 4.792 0.223
34.3027 4.833 0.224
34.3232 5.146 0.232
34.3437 4.708 0.221
34.3641 5.281 0.235
34.3846 4.969 0.228
34.4050 5.000 0.228
34.4255 4.938 0.227
34.4460 5.240 0.234
34.4664 4.552 0.218
34.4869 4.396 0.214
34.5074 4.813 0.224
34.5278 4.771 0.223
34.5483 4.927 0.227
34.5687 4.844 0.225
34.5892 5.083 0.230
34.6097 5.594 0.241
34.6301 5.104 0.231
34.6506 5.021 0.229
34.6711 4.667 0.220
34.6915 4.208 0.209
34.7120 4.760 0.223
34.7325 5.010 0.228
34.7529 4.906 0.226
34.7734 4.708 0.221
34.7938 4.792 0.223
34.8143 4.479 0.216
34.8348 4.781 0.223
34.8552 4.792 0.223
34.8757 4.854 0.225
34.8962 4.896 0.226
34.9166 5.188 0.232
34.9371 4.833 0.224
34.9575 5.271 0.234
34.9780 4.938 0.227
34.9985 5.083 0.230
35.0189 5.521 0.240
35.0394 4.875 0.225
35.0599 4.833 0.224
35.0803 4.771 0.223
35.1008 5.052 0.229
35.1212 4.865 0.225
35.1417 5.115 0.231
35.1622 5.010 0.228
35.1826 4.896 0.226
35.2031 5.094 0.230
35.2236 4.615 0.219
35.2440 4.646 0.220
35.2645 4.823 0.224
35.2849 4.573 0.218
35.3054 4.917 0.226
35.3259 4.781 0.223
35.3463 5.177 0.232
35.3668 5.031 0.229
35.3873 5.167 0.232
35.4077 5.448 0.238
35.4282 4.729 0.222
35.4486 5.292 0.235
35.4691 4.604 0.219
35.4896 5.021 0.229
35.5100 4.729 0.222
35.5305 4.896 0.226
35.5510 4.698 0.221
35.5714 5.323 0.235
35.5919 5.156 0.232
35.6124 4.990 0.228
35.6328 5.229 0.233
35.6533 5.010 0.228
35.6737 5.563 0.241
35.6942 5.302 0.235
35.7147 5.417 0.238
35.7351 5.198 0.233
35.7556 5.375 0.237
35.7761 5.521 0.240
35.7965 4.750 0.222
35.8170 5.458 0.238
35.8374 5.458 0.238
35.8579 5.375 0.237
35.8784 5.208 0.233
35.8988 5.188 0.232
35.9193 5.281 0.235
35.9398 5.021 0.229
35.9602 5.500 0.239
35.9807 5.563 0.241
36.0011 5.750 0.245
36.0216 5.865 0.247
36.0421 6.198 0.254
36.0625 6.365 0.257
36.0830 6.656 0.263
36.1035 6.646 0.263
36.1239 7.833 0.286
36.1444 9.604 0.316
36.1648 9.615 0.316
36.1853 8.938 0.305
36.2058 8.333 0.295
36.2262 8.323 0.294
36.2467 8.448 0.297
36.2672 8.406 0.296
36.2876 7.583 0.281
36.3081 7.865 0.286
36.3285 7.042 0.271
36.3490 7.563 0.281
36.3695 7.260 0.275
36.3899 7.708 0.283
36.4104 8.177 0.292
36.4309 8.927 0.305
36.4513 9.167 0.309
36.4718 10.323 0.328
36.4923 10.458 0.330
36.5127 11.323 0.343
36.5332 13.156 0.370
36.5536 14.927 0.394
36.5741 18.500 0.439
36.5946 24.844 0.509
36.6150 33.021 0.586
36.6355 33.427 0.590
36.6560 24.635 0.507
36.6764 20.750 0.465
36.6969 20.115 0.458
36.7173 21.938 0.478
36.7378 19.104 0.446
36.7583 14.542 0.389
36.7787 11.302 0.343
36.7992 10.000 0.323
36.8197 10.406 0.329
36.8401 9.229 0.310
36.8606 9.885 0.321
36.8810 10.271 0.327
36.9015 10.708 0.334
36.9220 11.302 0.343
36.9424 11.740 0.350
36.9629 12.708 0.364
36.9834 14.229 0.385
37.0038 17.052 0.421
37.0243 21.646 0.475
37.0447 29.375 0.553
37.0652 41.052 0.654
37.0857 54.281 0.752
37.1061 56.969 0.770
37.1266 43.906 0.676
37.1471 34.594 0.600
37.1675 32.875 0.585
37.1880 34.604 0.600
37.2084 31.094 0.569
37.2289 22.104 0.480
37.2494 14.917 0.394
37.2698 11.479 0.346
37.2903 10.240 0.327
37.3108 9.021 0.307
37.3312 7.948 0.288
37.3517 8.031 0.289
37.3722 7.406 0.278
37.3926 7.146 0.273
37.4131 7.115 0.272
37.4335 6.948 0.269
37.4540 6.625 0.263
37.4745 6.448 0.259
37.4949 6.271 0.256
37.5154 6.750 0.265
37.5359 6.698 0.264
37.5563 6.448 0.259
37.5768 6.500 0.260
37.5972 6.250 0.255
37.6177 6.552 0.261
37.6382 7.146 0.273
37.6586 6.531 0.261
37.6791 7.198 0.274
37.6996 6.854 0.267
37.7200 6.833 0.267
37.7405 7.240 0.275
37.7609 7.646 0.282
37.7814 7.927 0.287
37.8019 8.302 0.294
37.8223 8.344 0.295
37.8428 9.031 0.307
37.8633 8.979 0.306
37.8837 10.292 0.327
37.9042 10.177 0.326
37.9246 11.417 0.345
37.9451 12.771 0.365
37.9656 15.021 0.396
37.9860 19.323 0.449
38.0065 24.917 0.509
38.0270 30.531 0.564
38.0474 31.844 0.576
38.0679 25.885 0.519
38.0884 23.073 0.490
38.1088 23.917 0.499
38.1293 25.000 0.510
38.1497 23.677 0.497
38.1702 20.365 0.461
38.1907 17.458 0.426
38.2111 17.750 0.430
38.2316 16.854 0.419
38.2521 17.000 0.421
38.2725 17.406 0.426
38.2930 16.531 0.415
38.3134 17.448 0.426
38.3339 17.406 0.426
38.3544 16.656 0.417
38.3748 17.010 0.421
38.3953 17.333 0.425
38.4158 18.240 0.436
38.4362 19.719 0.453
38.4567 22.927 0.489
38.4771 24.771 0.508
38.4976 23.219 0.492
38.5181 20.510 0.462
38.5385 18.177 0.435
38.5590 17.052 0.421
38.5795 17.708 0.429
38.5999 15.896 0.407
38.6204 14.052 0.383
38.6408 12.823 0.365
38.6613 10.875 0.337
38.6818 11.229 0.342
38.7022 10.896 0.337
38.7227 9.885 0.321
38.7432 9.094 0.308
38.7636 9.250 0.310
38.7841 8.771 0.302
38.8045 7.969 0.288
38.8250 8.167 0.292
38.8455 8.198 0.292
38.8659 7.948 0.288
38.8864 7.719 0.284
38.9069 7.333 0.276
38.9273 7.208 0.274
38.9478 7.500 0.280
38.9683 7.010 0.270
38.9887 7.542 0.280
39.0092 7.073 0.271
39.0296 7.625 0.282
39.0501 7.240 0.275
39.0706 6.979 0.270
39.0910 6.365 0.257
39.1115 6.927 0.269
39.1320 6.635 0.263
39.1524 6.698 0.264
39.1729 6.042 0.251
39.1933 6.563 0.261
39.2138 6.563 0.261
39.2343 6.229 0.255
39.2547 6.698 0.264
39.2752 6.875 0.268
39.2957 7.135 0.273
39.3161 7.042 0.271
39.3366 7.302 0.276
39.3570 7.260 0.275
39.3775 6.990 0.270
39.3980 7.677 0.283
39.4184 7.469 0.279
39.4389 7.073 0.271
39.4594 6.969 0.269
39.4798 7.250 0.275
39.5003 6.823 0.267
39.5207 6.813 0.266
39.5412 6.500 0.260
39.5617 6.198 0.254
39.5821 6.500 0.260
39.6026 5.990 0.250
39.6231 6.010 0.250
39.6435 6.240 0.255
39.6640 6.656 0.263
39.6844 6.344 0.257
39.7049 6.500 0.260
39.7254 7.021 0.270
39.7458 7.396 0.278
39.7663 8.365 0.295
39.7868 10.354 0.328
39.8072 12.938 0.367
39.8277 14.135 0.384
39.8482 12.260 0.357
39.8686 9.354 0.312
39.8891 9.531 0.315
39.9095 10.031 0.323
39.9300 9.938 0.322
39.9505 9.208 0.310
39.9709 7.729 0.284
39.9914 7.260 0.275
40.0119 6.698 0.264
40.0323 6.594 0.262
40.0528 6.365 0.257
40.0732 6.604 0.262
40.0937 7.063 0.271
40.1142 6.802 0.266
40.1346 7.125 0.272
40.1551 7.427 0.278
40.1756 8.250 0.293
40.1960 8.083 0.290
40.2165 9.760 0.319
40.2369 13.021 0.368
40.2574 18.406 0.438
40.2779 25.646 0.517
40.2983 23.719 0.497
40.3188 14.677 0.391
40.3393 12.177 0.356
40.3597 13.719 0.378
40.3802 15.740 0.405
40.4006 15.167 0.397
40.4211 10.344 0.328
40.4416 7.948 0.288
40.4620 6.969 0.269
40.4825 6.271 0.256
40.5030 6.333 0.257
40.5234 5.479 0.239
40.5439 5.719 0.244
40.5643 5.719 0.244
40.5848 5.833 0.247
40.6053 5.865 0.247
40.6257 5.656 0.243
40.6462 5.656 0.243
40.6667 5.792 0.246
40.6871 5.688 0.243
40.7076 5.146 0.232
40.7281 5.656 0.243
40.7485 5.323 0.235
40.7690 5.625 0.242
40.7894 5.844 0.247
40.8099 5.719 0.244
40.8304 5.729 0.244
40.8508 6.458 0.259
40.8713 5.844 0.247
40.8918 6.188 0.254
40.9122 6.198 0.254
40.9327 6.042 0.251
40.9531 6.792 0.266
40.9736 6.885 0.268
40.9941 7.813 0.285
41.0145 8.104 0.291
41.0350 8.927 0.305
41.0555 9.885 0.321
41.0759 12.854 0.366
41.0964 16.792 0.418
41.1168 22.156 0.480
41.1373 27.250 0.533
41.1578 24.021 0.500
41.1782 18.042 0.434
41.1987 15.875 0.407
41.2192 15.604 0.403
41.2396 17.240 0.424
41.2601 16.031 0.409
41.2805 12.531 0.361
41.3010 9.188 0.309
41.3215 8.281 0.294
41.3419 7.177 0.273
41.3624 6.948 0.269
41.3829 6.635 0.263
41.4033 6.229 0.255
41.4238 5.521 0.240
41.4442 5.802 0.246
41.4647 5.510 0.240
41.4852 5.427 0.238
41.5056 5.760 0.245
41.5261 5.198 0.233
41.5466 5.156 0.232
41.5670 5.188 0.232
41.5875 5.313 0.235
41.6080 5.573 0.241
41.6284 4.917 0.226
41.6489 4.938 0.227
41.6693 4.906 0.226
41.6898 4.833 0.224
41.7103 4.740 0.222
41.7307 4.615 0.219
41.7512 5.281 0.235
41.7717 5.281 0.235
41.7921 4.615 0.219
41.8126 4.344 0.213
41.8330 4.792 0.223
41.8535 4.865 0.225
41.8740 5.115 0.231
41.8944 4.885 0.226
41.9149 4.719 0.222
41.9354 5.000 0.228
41.9558 5.219 0.233
41.9763 5.083 0.230
41.9967 4.625 0.219
42.0172 4.802 0.224
42.0377 4.771 0.223
42.0581 4.677 0.221
42.0786 5.063 0.230
42.0991 4.865 0.225
42.1195 4.906 0.226
42.1400 4.813 0.224
42.1604 4.792 0.223
42.1809 4.573 0.218
42.2014 4.885 0.226
42.2218 4.885 0.226
42.2423 5.188 0.232
42.2628 5.188 0.232
42.2832 5.302 0.235
42.3037 5.469 0.239
42.3242 5.802 0.246
42.3446 5.469 0.239
42.3651 5.750 0.245
42.3855 6.156 0.253
42.4060 6.031 0.251
42.4265 6.135 0.253
42.4469 6.021 0.250
42.4674 5.635 0.242
42.4879 6.042 0.251
42.5083 5.823 0.246
42.5288 5.635 0.242
42.5492 5.500 0.239
42.5697 5.510 0.240
42.5902 5.823 0.246
42.6106 5.198 0.233
42.6311 5.625 0.242
42.6516 5.833 0.247
42.6720 5.292 0.235
42.6925 6.427 0.259
42.7129 5.646 0.243
42.7334 5.510 0.240
42.7539 6.031 0.251
42.7743 5.792 0.246
42.7948 6.094 0.252
42.8153 6.094 0.252
42.8357 5.740 0.245
42.8562 5.823 0.246
42.8766 5.260 0.234
42.8971 5.563 0.241
42.9176 5.781 0.245
42.9380 5.781 0.245
42.9585 5.448 0.238
42.9790 5.396 0.237
42.9994 5.188 0.232
43.0199 5.594 0.241
43.0403 4.917 0.226
43.0608 5.688 0.243
43.0813 5.594 0.241
43.1017 5.344 0.236
43.1222 5.542 0.240
43.1427 5.813 0.246
43.1631 6.167 0.253
43.1836 7.573 0.281
43.2041 8.125 0.291
43.2245 9.385 0.313
43.2450 10.438 0.330
43.2654 8.906 0.305
43.2859 8.802 0.303
43.3064 8.010 0.289
43.3268 8.000 0.289
43.3473 8.802 0.303
43.3678 8.542 0.298
43.3882 8.000 0.289
43.4087 7.844 0.286
43.4291 7.688 0.283
43.4496 8.010 0.289
43.4701 8.396 0.296
43.4905 8.885 0.304
43.5110 9.490 0.314
43.5315 10.552 0.332
43.5519 12.917 0.367
43.5724 16.115 0.410
43.5928 20.552 0.463
43.6133 28.469 0.545
43.6338 36.167 0.614
43.6542 37.969 0.629
43.6747 30.521 0.564
43.6952 22.990 0.489
43.7156 20.729 0.465
43.7361 22.156 0.480
43.7565 23.729 0.497
43.7770 21.375 0.472
43.7975 16.854 0.419
43.8179 11.688 0.349
43.8384 9.219 0.310
43.8589 9.021 0.307
43.8793 8.031 0.289
43.8998 7.146 0.273
43.9202 6.250 0.255
43.9407 6.510 0.260
43.9612 6.010 0.250
43.9816 6.313 0.256
44.0021 6.115 0.252
44.0226 5.604 0.242
44.0430 5.427 0.238
44.0635 5.229 0.233
44.0840 5.250 0.234
44.1044 5.500 0.239
44.1249 5.177 0.232
44.1453 5.313 0.235
44.1658 4.938 0.227
44.1863 4.677 0.221
44.2067 5.167 0.232
44.2272 5.135 0.231
44.2477 5.177 0.232
44.2681 4.729 0.222
44.2886 4.646 0.220
44.3090 5.677 0.243
44.3295 5.073 0.230
44.3500 4.802 0.224
44.3704 5.333 0.236
44.3909 4.917 0.226
44.4114 5.313 0.235
44.4318 5.115 0.231
44.4523 5.260 0.234
44.4727 5.115 0.231
44.4932 5.083 0.230
44.5137 5.740 0.245
44.5341 5.771 0.245
44.5546 5.677 0.243
44.5751 5.750 0.245
44.5955 5.521 0.240
44.6160 5.583 0.241
44.6364 5.458 0.238
44.6569 5.417 0.238
44.6774 4.948 0.227
44.6978 5.188 0.232
44.7183 4.833 0.224
44.7388 5.104 0.231
44.7592 4.792 0.223
44.7797 4.750 0.222
44.8001 4.552 0.218
44.8206 4.688 0.221
44.8411 4.792 0.223
44.8615 4.760 0.223
44.8820 4.969 0.228
44.9025 4.781 0.223
44.9229 4.667 0.220
44.9434 4.875 0.225
44.9639 5.073 0.230
44.9843 5.115 0.231
45.0048 4.646 0.220
45.0252 5.125 0.231
45.0457 4.823 0.224
45.0662 5.615 0.242
45.0866 5.271 0.234
45.1071 4.979 0.228
45.1276 5.510 0.240
45.1480 6.229 0.255
45.1685 6.813 0.266
45.1889 7.458 0.279
45.2094 8.469 0.297
45.2299 10.583 0.332
45.2503 13.313 0.372
45.2708 13.594 0.376
45.2913 12.250 0.357
45.3117 9.510 0.315
45.3322 8.719 0.301
45.3526 8.927 0.305
45.3731 10.323 0.328
45.3936 9.875 0.321
45.4140 8.250 0.293
45.4345 6.448 0.259
45.4550 6.281 0.256
45.4754 5.979 0.250
45.4959 5.500 0.239
45.5163 5.625 0.242
45.5368 5.302 0.235
45.5573 4.729 0.222
45.5777 5.250 0.234
45.5982 5.333 0.236
45.6187 5.344 0.236
45.6391 5.365 0.236
45.6596 5.052 0.229
45.6800 5.333 0.236
45.7005 4.917 0.226
45.7210 5.510 0.240
45.7414 4.938 0.227
45.7619 5.688 0.243
45.7824 5.802 0.246
45.8028 5.531 0.240
45.8233 5.021 0.229
45.8438 5.073 0.230
45.8642 5.323 0.235
45.8847 5.458 0.238
45.9051 4.844 0.225
45.9256 5.115 0.231
45.9461 4.875 0.225
45.9665 4.750 0.222
45.9870 4.833 0.224
46.0075 4.740 0.222
46.0279 4.927 0.227
46.0484 4.958 0.227
46.0688 4.479 0.216
46.0893 4.646 0.220
46.1098 4.875 0.225
46.1302 4.708 0.221
46.1507 4.542 0.218
46.1712 4.427 0.215
46.1916 4.708 0.221
46.2121 4.323 0.212
46.2325 4.417 0.214
46.2530 4.635 0.220
46.2735 4.490 0.216
46.2939 4.375 0.213
46.3144 4.563 0.218
46.3349 3.906 0.202
46.3553 4.219 0.210
46.3758 4.531 0.217
46.3962 4.458 0.216
46.4167 4.135 0.208
46.4372 4.354 0.213
46.4576 4.406 0.214
46.4781 4.188 0.209
46.4986 4.156 0.208
46.5190 4.563 0.218
46.5395 4.219 0.210
46.5600 4.375 0.213
46.5804 4.115 0.207
46.6009 4.021 0.205
46.6213 4.146 0.208
46.6418 4.344 0.213
46.6623 4.438 0.215
46.6827 4.438 0.215
46.7032 4.042 0.205
46.7237 4.104 0.207
46.7441 3.885 0.201
46.7646 4.438 0.215
46.7850 3.948 0.203
46.8055 4.063 0.206
46.8260 4.281 0.211
46.8464 4.260 0.211
46.8669 3.656 0.195
46.8874 4.135 0.208
46.9078 4.573 0.218
46.9283 4.271 0.211
46.9487 4.385 0.214
46.9692 4.115 0.207
46.9897 3.958 0.203
47.0101 4.031 0.205
47.0306 4.094 0.207
47.0511 4.625 0.219
47.0715 4.583 0.219
47.0920 4.333 0.212
47.1124 4.302 0.212
47.1329 4.635 0.220
47.1534 4.396 0.214
47.1738 4.698 0.221
47.1943 4.292 0.211
47.2148 4.458 0.216
47.2352 4.625 0.219
47.2557 4.365 0.213
47.2761 4.396 0.214
47.2966 4.875 0.225
47.3171 4.615 0.219
47.3375 4.542 0.218
47.3580 5.073 0.230
47.3785 5.573 0.241
47.3989 5.750 0.245
47.4194 5.208 0.233
47.4399 5.073 0.230
47.4603 5.948 0.249
47.4808 6.594 0.262
47.5012 7.198 0.274
47.5217 8.021 0.289
47.5422 9.313 0.311
47.5626 12.021 0.354
47.5831 15.917 0.407
47.6036 19.927 0.456
47.6240 20.073 0.457
47.6445 16.219 0.411
47.6649 11.781 0.350
47.6854 10.469 0.330
47.7059 12.125 0.355
47.7263 13.750 0.378
47.7468 13.896 0.380
47.7673 10.677 0.333
47.7877 8.229 0.293
47.8082 7.344 0.277
47.8286 6.458 0.259
47.8491 6.521 0.261
47.8696 5.740 0.245
47.8900 5.667 0.243
47.9105 5.510 0.240
47.9310 5.688 0.243
47.9514 5.802 0.246
47.9719 5.438 0.238
47.9923 5.302 0.235
48.0128 5.500 0.239
48.0333 5.656 0.243
48.0537 5.417 0.238
48.0742 5.240 0.234
48.0947 5.438 0.238
48.1151 5.448 0.238
48.1356 5.854 0.247
48.1560 5.656 0.243
48.1765 5.490 0.239
48.1970 6.031 0.251
48.2174 6.115 0.252
48.2379 5.740 0.245
48.2584 5.594 0.241
48.2788 6.354 0.257
48.2993 6.323 0.257
48.3198 6.990 0.270
48.3402 7.708 0.283
48.3607 7.781 0.285
48.3811 8.125 0.291
48.4016 7.219 0.274
48.4221 7.698 0.283
48.4425 7.813 0.285
48.4630 8.448 0.297
48.4835 9.031 0.307
48.5039 8.000 0.289
48.5244 7.896 0.287
48.5448 7.823 0.285
48.5653 8.323 0.294
48.5858 8.052 0.290
48.6062 8.490 0.297
48.6267 8.865 0.304
48.6472 8.823 0.303
48.6676 9.823 0.320
48.6881 11.396 0.345
48.7085 11.385 0.344
48.7290 12.260 0.357
48.7495 12.385 0.359
48.7699 12.406 0.359
48.7904 11.375 0.344
48.8109 11.708 0.349
48.8313 11.896 0.352
48.8518 12.365 0.359
48.8722 12.052 0.354
48.8927 11.865 0.352
48.9132 12.052 0.354
48.9336 12.115 0.355
48.9541 11.708 0.349
48.9746 11.760 0.350
48.9950 11.833 0.351
49.0155 11.229 0.342
49.0359 11.833 0.351
49.0564 11.260 0.342
49.0769 11.063 0.339
49.0973 11.135 0.341
49.1178 11.094 0.340
49.1383 11.323 0.343
49.1587 10.719 0.334
49.1792 11.646 0.348
49.1997 10.656 0.333
49.2201 11.510 0.346
49.2406 11.365 0.344
49.2610 11.333 0.344
49.2815 10.802 0.335
49.3020 10.406 0.329
49.3224 10.438 0.330
49.3429 10.750 0.335
49.3634 10.302 0.328
49.3838 9.979 0.322
49.4043 9.729 0.318
49.4247 9.813 0.320
49.4452 9.031 0.307
49.4657 9.510 0.315
49.4861 9.135 0.308
49.5066 8.833 0.303
49.5271 9.302 0.311
49.5475 8.073 0.290
49.5680 8.771 0.302
49.5884 8.938 0.305
49.6089 8.167 0.292
49.6294 8.042 0.289
49.6498 8.260 0.293
49.6703 8.000 0.289
49.6908 8.167 0.292
49.7112 8.948 0.305
49.7317 9.427 0.313
49.7521 10.427 0.330
49.7726 12.094 0.355
49.7931 14.896 0.394
49.8135 17.938 0.432
49.8340 23.635 0.496
49.8545 27.875 0.539
49.8749 26.104 0.521
49.8954 21.135 0.469
49.9158 16.313 0.412
49.9363 14.865 0.393
49.9568 15.813 0.406
49.9772 17.188 0.423
49.9977 17.594 0.428
50.0182 15.125 0.397
50.0386 12.156 0.356
50.0591 9.688 0.318
50.0796 8.250 0.293
50.1000 7.823 0.285
50.1205 7.635 0.282
50.1409 7.542 0.280
50.1614 8.250 0.293
50.1819 8.594 0.299
50.2023 9.646 0.317
50.2228 9.229 0.310
50.2433 9.177 0.309
50.2637 8.281 0.294
50.2842 7.219 0.274
50.3046 7.000 0.270
50.3251 7.146 0.273
50.3456 7.781 0.285
50.3660 7.271 0.275
50.3865 6.677 0.264
50.4070 6.313 0.256
50.4274 5.521 0.240
50.4479 5.021 0.229
50.4683 4.948 0.227
50.4888 5.302 0.235
50.5093 5.823 0.246
50.5297 5.073 0.230
50.5502 4.917 0.226
50.5707 5.177 0.232
50.5911 5.156 0.232
50.6116 5.427 0.238
50.6320 5.438 0.238
50.6525 5.375 0.237
50.6730 5.281 0.235
50.6934 5.125 0.231
50.7139 5.021 0.229
50.7344 5.479 0.239
50.7548 4.927 0.227
50.7753 5.167 0.232
50.7958 5.083 0.230
50.8162 4.969 0.228
50.8367 5.208 0.233
50.8571 5.083 0.230
50.8776 5.990 0.250
50.8981 6.031 0.251
50.9185 7.729 0.284
50.9390 8.458 0.297
50.9595 11.219 0.342
50.9799 12.177 0.356
51.0004 10.573 0.332
51.0208 7.135 0.273
51.0413 6.406 0.258
51.0618 6.740 0.265
51.0822 7.229 0.274
51.1027 7.906 0.287
51.1232 8.240 0.293
51.1436 6.927 0.269
51.1641 5.542 0.240
51.1845 5.438 0.238
51.2050 4.969 0.228
51.2255 5.240 0.234
51.2459 5.063 0.230
51.2664 5.542 0.240
51.2869 5.927 0.248
51.3073 6.167 0.253
51.3278 6.052 0.251
51.3482 6.323 0.257
51.3687 5.583 0.241
51.3892 5.521 0.240
51.4096 5.302 0.235
51.4301 5.833 0.247
51.4506 5.771 0.245
51.4710 6.177 0.254
51.4915 5.750 0.245
51.5119 5.260 0.234
51.5324 5.729 0.244
51.5529 5.469 0.239
51.5733 5.969 0.249
51.5938 6.177 0.254
51.6143 7.010 0.270
51.6347 7.625 0.282
51.6552 8.365 0.295
51.6757 9.292 0.311
51.6961 9.083 0.308
51.7166 8.375 0.295
51.7370 6.875 0.268
51.7575 6.365 0.257
51.7780 6.354 0.257
51.7984 6.802 0.266
51.8189 6.896 0.268
51.8394 6.594 0.262
51.8598 5.677 0.243
51.8803 5.323 0.235
51.9007 4.896 0.226
51.9212 4.323 0.212
51.9417 4.656 0.220
51.9621 3.938 0.203
51.9826 4.094 0.207
52.0031 4.010 0.204
52.0235 3.896 0.201
52.0440 3.990 0.204
52.0644 3.948 0.203
52.0849 3.865 0.201
52.1054 3.760 0.198
52.1258 3.813 0.199
52.1463 3.906 0.202
52.1668 3.802 0.199
52.1872 3.635 0.195
52.2077 3.698 0.196
52.2281 3.750 0.198
52.2486 3.875 0.201
52.2691 4.250 0.210
52.2895 3.844 0.200
52.3100 3.906 0.202
52.3305 4.448 0.215
52.3509 4.531 0.217
52.3714 4.563 0.218
52.3918 5.135 0.231
52.4123 4.781 0.223
52.4328 4.948 0.227
52.4532 4.219 0.210
52.4737 4.198 0.209
52.4942 4.333 0.212
52.5146 3.854 0.200
52.5351 4.958 0.227
52.5556 4.729 0.222
52.5760 4.458 0.216
52.5965 4.010 0.204
52.6169 4.354 0.213
52.6374 3.823 0.200
52.6579 3.948 0.203
52.6783 3.740 0.197
52.6988 4.156 0.208
52.7193 3.813 0.199
52.7397 3.792 0.199
52.7602 3.417 0.189
52.7806 3.417 0.189
52.8011 3.719 0.197
52.8216 3.667 0.195
52.8420 3.729 0.197
52.8625 3.333 0.186
52.8830 3.344 0.187
52.9034 3.594 0.193
52.9239 3.635 0.195
52.9443 3.229 0.183
52.9648 3.865 0.201
52.9853 3.292 0.185
53.0057 3.104 0.180
53.0262 3.490 0.191
53.0467 3.323 0.186
53.0671 3.146 0.181
53.0876 3.396 0.188
53.1080 3.719 0.197
53.1285 3.510 0.191
53.1490 3.250 0.184
53.1694 3.406 0.188
53.1899 3.323 0.186
53.2104 3.313 0.186
53.2308 3.135 0.181
53.2513 3.271 0.185
53.2717 3.031 0.178
53.2922 3.198 0.183
53.3127 3.573 0.193
53.3331 3.271 0.185
53.3536 3.094 0.180
53.3741 3.198 0.183
53.3945 3.354 0.187
53.4150 3.323 0.186
53.4355 3.167 0.182
53.4559 3.698 0.196
53.4764 3.250 0.184
53.4968 3.583 0.193
53.5173 3.625 0.194
53.5378 3.177 0.182
53.5582 3.208 0.183
53.5787 3.198 0.183
53.5992 3.104 0.180
53.6196 3.135 0.181
53.6401 3.417 0.189
53.6605 3.375 0.188
53.6810 3.438 0.189
53.7015 3.458 0.190
53.7219 3.177 0.182
53.7424 3.521 0.192
53.7629 3.688 0.196
53.7833 3.583 0.193
53.8038 3.417 0.189
53.8242 3.708 0.197
53.8447 3.594 0.193
53.8652 3.927 0.202
53.8856 3.292 0.185
53.9061 3.500 0.191
53.9266 3.156 0.181
53.9470 3.198 0.183
53.9675 3.115 0.180
53.9879 3.479 0.190
54.0084 3.260 0.184
54.0289 3.510 0.191
54.0493 3.708 0.197
54.0698 3.219 0.183
54.0903 3.438 0.189
54.1107 3.927 0.202
54.1312 4.354 0.213
54.1516 4.115 0.207
54.1721 4.563 0.218
54.1926 4.906 0.226
54.2130 4.208 0.209
54.2335 3.990 0.204
54.2540 3.719 0.197
54.2744 3.833 0.200
54.2949 3.740 0.197
54.3154 4.177 0.209
54.3358 3.875 0.201
54.3563 3.625 0.194
54.3767 3.417 0.189
54.3972 3.615 0.194
54.4177 3.542 0.192
54.4381 3.688 0.196
54.4586 3.823 0.200
54.4791 3.656 0.195
54.4995 3.344 0.187
54.5200 3.938 0.203
54.5404 3.948 0.203
54.5609 3.896 0.201
54.5814 3.417 0.189
54.6018 3.948 0.203
54.6223 3.604 0.194
54.6428 4.094 0.207
54.6632 3.740 0.197
54.6837 4.104 0.207
54.7041 4.490 0.216
54.7246 4.260 0.211
54.7451 4.406 0.214
54.7655 4.354 0.213
54.7860 4.854 0.225
54.8065 4.365 0.213
54.8269 4.604 0.219
54.8474 4.969 0.228
54.8678 4.656 0.220
54.8883 4.729 0.222
54.9088 4.833 0.224
54.9292 5.490 0.239
54.9497 5.510 0.240
54.9702 5.792 0.246
54.9906 5.427 0.238
55.0111 5.771 0.245
55.0316 6.042 0.251
55.0520 6.167 0.253
55.0725 6.333 0.257
55.0929 7.490 0.279
55.1134 8.271 0.294
55.1339 10.615 0.333
55.1543 13.552 0.376
55.1748 16.719 0.417
55.1953 20.063 0.457
55.2157 18.500 0.439
55.2362 14.990 0.395
55.2566 11.573 0.347
55.2771 10.469 0.330
55.2976 10.594 0.332
55.3180 12.333 0.358
55.3385 13.333 0.373
55.3590 12.979 0.368
55.3794 10.031 0.323
55.3999 7.833 0.286
55.4203 7.417 0.278
55.4408 6.313 0.256
55.4613 5.792 0.246
55.4817 5.646 0.243
55.5022 4.990 0.228
55.5227 5.063 0.230
55.5431 4.948 0.227
55.5636 4.417 0.214
55.5840 4.479 0.216
55.6045 4.417 0.214
55.6250 4.104 0.207
55.6454 4.156 0.208
55.6659 3.677 0.196
55.6864 4.208 0.209
55.7068 4.198 0.209
55.7273 3.938 0.203
55.7477 4.219 0.210
55.7682 4.167 0.208
55.7887 4.427 0.215
55.8091 4.563 0.218
55.8296 5.177 0.232
55.8501 5.500 0.239
55.8705 6.198 0.254
55.8910 5.896 0.248
55.9115 5.688 0.243
55.9319 5.167 0.232
55.9524 5.156 0.232
55.9728 4.490 0.216
55.9933 5.479 0.239
56.0138 5.458 0.238
56.0342 5.365 0.236
56.0547 5.125 0.231
56.0752 4.917 0.226
56.0956 5.083 0.230
56.1161 6.031 0.251
56.1365 6.771 0.266
56.1570 8.021 0.289
56.1775 10.031 0.323
56.1979 12.469 0.360
56.2184 13.583 0.376
56.2389 12.229 0.357
56.2593 9.167 0.309
56.2798 7.625 0.282
56.3002 6.750 0.265
56.3207 7.063 0.271
56.3412 7.635 0.282
56.3616 8.729 0.302
56.3821 8.854 0.304
56.4026 7.104 0.272
56.4230 5.510 0.240
56.4435 4.365 0.213
56.4639 4.229 0.210
56.4844 3.781 0.198
56.5049 3.656 0.195
56.5253 3.365 0.187
56.5458 3.510 0.191
56.5663 3.417 0.189
56.5867 3.469 0.190
56.6072 3.521 0.192
56.6276 3.448 0.190
56.6481 3.552 0.192
56.6686 3.031 0.178
56.6890 3.115 0.180
56.7095 3.115 0.180
56.7300 3.104 0.180
56.7504 3.198 0.183
56.7709 3.177 0.182
56.7914 2.865 0.173
56.8118 3.198 0.183
56.8323 3.073 0.179
56.8527 3.146 0.181
56.8732 2.813 0.171
56.8937 2.948 0.175
56.9141 3.292 0.185
56.9346 3.052 0.178
56.9551 2.865 0.173
56.9755 3.031 0.178
56.9960 3.010 0.177
57.0164 3.323 0.186
57.0369 3.125 0.180
57.0574 3.083 0.179
57.0778 3.031 0.178
57.0983 2.792 0.171
57.1188 3.115 0.180
57.1392 2.917 0.174
57.1597 3.135 0.181
57.1801 3.146 0.181
57.2006 3.156 0.181
57.2211 3.063 0.179
57.2415 3.146 0.181
57.2620 3.458 0.190
57.2825 3.010 0.177
57.3029 3.073 0.179
57.3234 3.333 0.186
57.3438 2.667 0.167
57.3643 3.135 0.181
57.3848 3.135 0.181
57.4052 3.000 0.177
57.4257 2.875 0.173
57.4462 3.104 0.180
57.4666 3.229 0.183
57.4871 3.146 0.181
57.5075 3.333 0.186
57.5280 3.083 0.179
57.5485 2.969 0.176
57.5689 3.260 0.184
57.5894 3.375 0.188
57.6099 3.667 0.195
57.6303 3.531 0.192
57.6508 3.510 0.191
57.6713 3.667 0.195
57.6917 3.573 0.193
57.7122 3.604 0.194
57.7326 4.177 0.209
57.7531 4.260 0.211
57.7736 4.542 0.218
57.7940 4.646 0.220
57.8145 6.125 0.253
57.8350 7.281 0.275
57.8554 8.813 0.303
57.8759 10.792 0.335
57.8963 13.042 0.369
57.9168 14.448 0.388
57.9373 13.635 0.377
57.9577 10.896 0.337
57.9782 8.271 0.294
57.9987 7.635 0.282
58.0191 7.979 0.288
58.0396 7.979 0.288
58.0600 8.906 0.305
58.0805 9.021 0.307
58.1010 8.083 0.290
58.1214 6.000 0.250
58.1419 5.344 0.236
58.1624 4.927 0.227
58.1828 4.208 0.209
58.2033 3.781 0.198
58.2237 3.854 0.200
58.2442 3.917 0.202
58.2647 3.854 0.200
58.2851 3.750 0.198
58.3056 3.771 0.198
58.3261 3.635 0.195
58.3465 3.344 0.187
58.3670 3.510 0.191
58.3874 3.292 0.185
58.4079 3.177 0.182
58.4284 3.281 0.185
58.4488 3.667 0.195
58.4693 3.146 0.181
58.4898 3.500 0.191
58.5102 2.990 0.176
58.5307 3.573 0.193
58.5512 3.427 0.189
58.5716 3.052 0.178
58.5921 3.104 0.180
58.6125 3.167 0.182
58.6330 3.333 0.186
58.6535 3.198 0.183
58.6739 3.354 0.187
58.6944 2.750 0.169
58.7149 3.177 0.182
58.7353 2.990 0.176
58.7558 3.323 0.186
58.7762 3.469 0.190
58.7967 2.927 0.175
58.8172 3.156 0.181
58.8376 3.313 0.186
58.8581 3.323 0.186
58.8786 3.531 0.192
58.8990 3.292 0.185
58.9195 3.583 0.193
58.9399 3.667 0.195
58.9604 3.510 0.191
58.9809 3.750 0.198
59.0013 3.604 0.194
59.0218 3.792 0.199
59.0423 3.917 0.202
59.0627 3.813 0.199
59.0832 4.542 0.218
59.1036 4.063 0.206
59.1241 4.375 0.213
59.1446 4.969 0.228
59.1650 5.448 0.238
59.1855 6.229 0.255
59.2060 7.167 0.273
59.2264 8.458 0.297
59.2469 7.604 0.281
59.2674 6.542 0.261
59.2878 4.906 0.226
59.3083 4.302 0.212
59.3287 4.740 0.222
59.3492 5.104 0.231
59.3697 5.542 0.240
59.3901 5.646 0.243
59.4106 5.427 0.238
59.4311 4.646 0.220
59.4515 4.281 0.211
59.4720 3.813 0.199
59.4924 3.333 0.186
59.5129 2.927 0.175
59.5334 2.885 0.173
59.5538 3.490 0.191
59.5743 3.188 0.182
59.5948 3.417 0.189
59.6152 3.302 0.185
59.6357 3.229 0.183
59.6561 3.302 0.185
59.6766 3.385 0.188
59.6971 3.375 0.188
59.7175 3.542 0.192
59.7380 3.240 0.184
59.7585 3.771 0.198
59.7789 3.771 0.198
59.7994 4.583 0.219
59.8198 4.927 0.227
59.8403 6.052 0.251
59.8608 8.323 0.294
59.8812 8.865 0.304
59.9017 9.156 0.309
59.9222 7.708 0.283
59.9426 6.313 0.256
59.9631 5.427 0.238
59.9835 5.458 0.238
60.0040 5.490 0.239
60.0245 5.927 0.248
60.0449 6.042 0.251
60.0654 6.198 0.254
60.0859 5.469 0.239
60.1063 4.760 0.223
60.1268 4.656 0.220
60.1473 4.031 0.205
60.1677 4.125 0.207
60.1882 4.094 0.207
60.2086 4.000 0.204
60.2291 3.521 0.192
60.2496 3.917 0.202
60.2700 3.615 0.194
60.2905 3.906 0.202
60.3110 3.990 0.204
60.3314 3.802 0.199
60.3519 4.198 0.209
60.3723 3.604 0.194
60.3928 4.073 0.206
60.4133 3.781 0.198
60.4337 4.115 0.207
60.4542 4.010 0.204
60.4747 3.667 0.195
60.4951 3.750 0.198
60.5156 4.198 0.209
60.5360 3.927 0.202
60.5565 4.042 0.205
60.5770 4.240 0.210
60.5974 3.979 0.204
60.6179 3.667 0.195
60.6384 3.844 0.200
60.6588 3.854 0.200
60.6793 4.021 0.205
60.6997 3.365 0.187
60.7202 3.708 0.197
60.7407 3.792 0.199
60.7611 3.823 0.200
60.7816 4.000 0.204
60.8021 4.042 0.205
60.8225 4.104 0.207
60.8430 4.031 0.205
60.8634 4.229 0.210
60.8839 3.802 0.199
60.9044 3.698 0.196
60.9248 3.813 0.199
60.9453 3.542 0.192
60.9658 3.552 0.192
60.9862 3.490 0.191
61.0067 3.354 0.187
61.0272 3.396 0.188
61.0476 3.344 0.187
61.0681 3.219 0.183
61.0885 3.229 0.183
61.1090 3.083 0.179
61.1295 3.146 0.181
61.1499 2.979 0.176
61.1704 2.802 0.171
61.1909 2.792 0.171
61.2113 3.021 0.177
61.2318 2.906 0.174
61.2522 2.958 0.176
61.2727 3.010 0.177
61.2932 2.896 0.174
61.3136 2.677 0.167
61.3341 2.833 0.172
61.3546 2.885 0.173
61.3750 3.094 0.180
61.3955 3.083 0.179
61.4159 2.969 0.176
61.4364 2.729 0.169
61.4569 3.052 0.178
61.4773 2.813 0.171
61.4978 3.156 0.181
61.5183 3.406 0.188
61.5387 2.958 0.176
61.5592 2.854 0.172
61.5796 3.031 0.178
61.6001 2.646 0.166
61.6206 3.115 0.180
61.6410 2.948 0.175
61.6615 2.958 0.176
61.6820 2.906 0.174
61.7024 2.823 0.171
61.7229 2.906 0.174
61.7433 3.115 0.180
61.7638 2.646 0.166
61.7843 2.854 0.172
61.8047 2.854 0.172
61.8252 2.833 0.172
61.8457 2.958 0.176
61.8661 2.938 0.175
61.8866 2.708 0.168
61.9071 3.125 0.180
61.9275 2.917 0.174
61.9480 3.073 0.179
61.9684 2.813 0.171
61.9889 3.385 0.188
62.0094 2.958 0.176
62.0298 3.302 0.185
62.0503 3.302 0.185
62.0708 3.823 0.200
62.0912 4.250 0.210
62.1117 5.146 0.232
62.1321 5.719 0.244
62.1526 6.167 0.253
62.1731 5.729 0.244
62.1935 4.990 0.228
62.2140 4.240 0.210
62.2345 3.823 0.200
62.2549 3.938 0.203
62.2754 4.208 0.209
62.2958 4.531 0.217
62.3163 4.854 0.225
62.3368 4.469 0.216
62.3572 4.281 0.211
62.3777 3.813 0.199
62.3982 3.323 0.186
62.4186 2.875 0.173
62.4391 3.063 0.179
62.4595 3.000 0.177
62.4800 2.823 0.171
62.5005 2.729 0.169
62.5209 2.927 0.175
62.5414 2.938 0.175
62.5619 2.854 0.172
62.5823 2.646 0.166
62.6028 2.698 0.168
62.6232 2.865 0.173
62.6437 2.781 0.170
62.6642 2.750 0.169
62.6846 2.781 0.170
62.7051 2.896 0.174
62.7256 2.646 0.166
62.7460 2.760 0.170
62.7665 2.802 0.171
62.7870 2.479 0.161
62.8074 2.573 0.164
62.8279 2.656 0.166
62.8483 2.729 0.169
62.8688 2.469 0.160
62.8893 2.646 0.166
62.9097 2.594 0.164
62.9302 2.677 0.167
62.9507 2.573 0.164
62.9711 2.563 0.163
62.9916 2.771 0.170
63.0120 2.813 0.171
63.0325 2.656 0.166
63.0530 2.469 0.160
63.0734 2.844 0.172
63.0939 2.688 0.167
63.1144 2.833 0.172
63.1348 2.833 0.172
63.1553 2.875 0.173
63.1757 3.219 0.183
63.1962 2.969 0.176
63.2167 2.958 0.176
63.2371 2.917 0.174
63.2576 2.906 0.174
63.2781 2.938 0.175
63.2985 2.458 0.160
63.3190 2.990 0.176
63.3394 3.073 0.179
63.3599 2.927 0.175
63.3804 2.969 0.176
63.4008 2.823 0.171
63.4213 2.771 0.170
63.4418 2.594 0.164
63.4622 2.802 0.171
63.4827 2.781 0.170
63.5032 2.781 0.170
63.5236 3.365 0.187
63.5441 2.990 0.176
63.5645 3.115 0.180
63.5850 3.260 0.184
63.6055 3.167 0.182
63.6259 3.479 0.190
63.6464 3.271 0.185
63.6669 3.448 0.190
63.6873 3.729 0.197
63.7078 3.250 0.184
63.7282 3.646 0.195
63.7487 3.990 0.204
63.7692 3.802 0.199
63.7896 3.917 0.202
63.8101 3.667 0.195
63.8306 3.865 0.201
63.8510 4.073 0.206
63.8715 4.302 0.212
63.8919 4.219 0.210
63.9124 4.438 0.215
63.9329 4.375 0.213
63.9533 4.510 0.217
63.9738 4.542 0.218
63.9943 4.792 0.223
64.0147 5.031 0.229
64.0352 5.583 0.241
64.0556 5.281 0.235
64.0761 5.333 0.236
64.0966 5.448 0.238
64.1170 5.021 0.229
64.1375 4.469 0.216
64.1580 4.760 0.223
64.1784 4.948 0.227
64.1989 4.729 0.222
64.2193 5.167 0.232
64.2398 5.042 0.229
64.2603 4.677 0.221
64.2807 4.052 0.205
64.3012 4.000 0.204
64.3217 4.354 0.213
64.3421 4.135 0.208
64.3626 4.094 0.207
64.3831 3.969 0.203
64.4035 3.688 0.196
64.4240 3.750 0.198
64.4444 3.708 0.197
64.4649 4.365 0.213
64.4854 4.063 0.206
64.5058 4.260 0.211
64.5263 4.729 0.222
64.5468 4.469 0.216
64.5672 4.479 0.216
64.5877 4.604 0.219
64.6081 5.292 0.235
64.6286 6.354 0.257
64.6491 7.250 0.275
64.6695 7.917 0.287
64.6900 8.156 0.291
64.7105 7.063 0.271
64.7309 6.229 0.255
64.7514 5.021 0.229
64.7718 6.010 0.250
64.7923 5.990 0.250
64.8128 5.563 0.241
64.8332 5.615 0.242
64.8537 6.271 0.256
64.8742 6.229 0.255
64.8946 4.708 0.221
64.9151 5.115 0.231
64.9355 4.406 0.214
64.9560 4.729 0.222
64.9765 4.375 0.213
64.9969 4.219 0.210
65.0174 4.292 0.211
65.0379 3.938 0.203
65.0583 3.958 0.203
65.0788 3.854 0.200
65.0992 4.313 0.212
65.1197 4.021 0.205
65.1402 3.896 0.201
65.1606 3.729 0.197
65.1811 3.219 0.183
65.2016 3.875 0.201
65.2220 3.156 0.181
65.2425 3.302 0.185
65.2630 3.490 0.191
65.2834 3.417 0.189
65.3039 3.302 0.185
65.3243 3.156 0.181
65.3448 3.010 0.177
65.3653 3.167 0.182
65.3857 2.854 0.172
65.4062 3.135 0.181
65.4267 3.104 0.180
65.4471 3.427 0.189
65.4676 3.271 0.185
65.4880 3.229 0.183
65.5085 3.208 0.183
65.5290 3.719 0.197
65.5494 4.302 0.212
65.5699 4.573 0.218
65.5904 4.969 0.228
65.6108 4.771 0.223
65.6313 4.604 0.219
65.6517 4.208 0.209
65.6722 3.542 0.192
65.6927 3.646 0.195
65.7131 3.240 0.184
65.7336 3.542 0.192
65.7541 3.208 0.183
65.7745 4.021 0.205
65.7950 3.917 0.202
65.8154 3.865 0.201
65.8359 3.552 0.192
65.8564 3.344 0.187
65.8768 2.688 0.167
65.8973 3.094 0.180
65.9178 2.813 0.171
65.9382 2.760 0.170
65.9587 2.833 0.172
65.9791 2.771 0.170
65.9996 2.844 0.172
66.0201 2.792 0.171
66.0405 3.063 0.179
66.0610 2.479 0.161
66.0815 2.677 0.167
66.1019 2.490 0.161
66.1224 2.427 0.159
66.1429 2.938 0.175
66.1633 2.625 0.165
66.1838 2.490 0.161
66.2042 2.906 0.174
66.2247 2.573 0.164
66.2452 2.833 0.172
66.2656 2.854 0.172
66.2861 2.625 0.165
66.3066 2.979 0.176
66.3270 3.021 0.177
66.3475 2.688 0.167
66.3679 2.719 0.168
66.3884 3.031 0.178
66.4089 2.906 0.174
66.4293 2.740 0.169
66.4498 2.771 0.170
66.4703 2.917 0.174
66.4907 2.625 0.165
66.5112 2.719 0.168
66.5316 2.906 0.174
66.5521 2.615 0.165
66.5726 3.146 0.181
66.5930 3.135 0.181
66.6135 2.969 0.176
66.6340 2.927 0.175
66.6544 3.000 0.177
66.6749 3.229 0.183
66.6953 3.177 0.182
66.7158 3.198 0.183
66.7363 3.417 0.189
66.7567 3.427 0.189
66.7772 3.010 0.177
66.7977 3.375 0.188
66.8181 3.344 0.187
66.8386 3.708 0.197
66.8590 3.646 0.195
66.8795 3.500 0.191
66.9000 3.688 0.196
66.9204 3.969 0.203
66.9409 3.813 0.199
66.9614 4.115 0.207
66.9818 4.135 0.208
67.0023 5.271 0.234
67.0228 5.063 0.230
67.0432 5.542 0.240
67.0637 6.750 0.265
67.0841 8.323 0.294
67.1046 9.417 0.313
67.1251 10.844 0.336
67.1455 12.521 0.361
67.1660 12.615 0.362
67.1865 11.781 0.350
67.2069 9.542 0.315
67.2274 7.760 0.284
67.2478 7.406 0.278
67.2683 7.010 0.270
67.2888 6.938 0.269
67.3092 7.604 0.281
67.3297 8.875 0.304
67.3502 9.104 0.308
67.3706 8.073 0.290
67.3911 6.833 0.267
67.4115 6.198 0.254
67.4320 4.875 0.225
67.4525 5.094 0.230
67.4729 4.646 0.220
67.4934 4.281 0.211
67.5139 4.250 0.210
67.5343 4.615 0.219
67.5548 4.354 0.213
67.5752 4.271 0.211
67.5957 4.427 0.215
67.6162 4.448 0.215
67.6366 3.917 0.202
67.6571 4.073 0.206
67.6776 3.927 0.202
67.6980 3.885 0.201
67.7185 4.250 0.210
67.7389 4.667 0.220
67.7594 4.250 0.210
67.7799 3.896 0.201
67.8003 4.125 0.207
67.8208 4.063 0.206
67.8413 3.552 0.192
67.8617 3.333 0.186
67.8822 4.094 0.207
67.9027 3.771 0.198
67.9231 3.750 0.198
67.9436 3.542 0.192
67.9640 4.229 0.210
67.9845 3.875 0.201
68.0050 4.135 0.208
68.0254 3.990 0.204
68.0459 4.073 0.206
68.0664 4.042 0.205
68.0868 4.219 0.210
68.1073 3.896 0.201
68.1277 3.802 0.199
68.1482 3.365 0.187
68.1687 3.333 0.186
68.1891 3.365 0.187
68.2096 3.427 0.189
68.2301 3.552 0.192
68.2505 3.875 0.201
68.2710 3.844 0.200
68.2914 3.979 0.204
68.3119 4.656 0.220
68.3324 5.135 0.231
68.3528 5.896 0.248
68.3733 5.875 0.247
68.3938 5.115 0.231
68.4142 4.354 0.213
68.4347 4.073 0.206
68.4551 3.677 0.196
68.4756 3.677 0.196
68.4961 3.333 0.186
68.5165 3.833 0.200
68.5370 4.083 0.206
68.5575 4.104 0.207
68.5779 4.177 0.209
68.5984 3.313 0.186
68.6189 3.229 0.183
68.6393 3.333 0.186
68.6598 2.781 0.170
68.6802 3.208 0.183
68.7007 3.010 0.177
68.7212 2.990 0.176
68.7416 2.625 0.165
68.7621 3.125 0.180
68.7826 2.979 0.176
68.8030 3.188 0.182
68.8235 3.469 0.190
68.8439 3.177 0.182
68.8644 3.406 0.188
68.8849 3.552 0.192
68.9053 4.177 0.209
68.9258 4.260 0.211
68.9463 4.427 0.215
68.9667 5.615 0.242
68.9872 5.563 0.241
69.0076 6.052 0.251
69.0281 4.885 0.226
69.0486 4.229 0.210
69.0690 3.802 0.199
69.0895 3.500 0.191
69.1100 3.677 0.196
69.1304 3.604 0.194
69.1509 4.146 0.208
69.1713 4.813 0.224
69.1918 4.271 0.211
69.2123 4.802 0.224
69.2327 4.490 0.216
69.2532 4.688 0.221
69.2737 4.583 0.219
69.2941 4.219 0.210
69.3146 3.917 0.202
69.3350 3.417 0.189
69.3555 3.229 0.183
69.3760 2.760 0.170
69.3964 2.740 0.169
69.4169 3.031 0.178
69.4374 3.427 0.189
69.4578 3.448 0.190
69.4783 3.396 0.188
69.4988 3.073 0.179
69.5192 2.740 0.169
69.5397 2.750 0.169
69.5601 2.688 0.167
69.5806 2.354 0.157
69.6011 2.490 0.161
69.6215 2.469 0.160
69.6420 2.781 0.170
69.6625 2.646 0.166
69.6829 2.729 0.169
69.7034 2.240 0.153
69.7238 2.302 0.155
69.7443 2.542 0.163
69.7648 2.406 0.158
69.7852 2.292 0.155
69.8057 2.604 0.165
69.8262 2.594 0.164
69.8466 2.250 0.153
69.8671 2.573 0.164
69.8875 2.625 0.165
69.9080 2.260 0.153
69.9285 2.646 0.166
69.9489 2.479 0.161
69.9694 2.604 0.165
69.9899 2.969 0.176
70.0103 2.698 0.168
70.0308 2.417 0.159
70.0512 2.656 0.166
70.0717 2.438 0.159
70.0922 2.385 0.158
70.1126 2.656 0.166
70.1331 2.740 0.169
70.1536 2.823 0.171
70.1740 2.417 0.159
70.1945 2.521 0.162
70.2149 2.552 0.163
70.2354 2.396 0.158
70.2559 2.563 0.163
70.2763 2.458 0.160
70.2968 2.385 0.158
70.3173 2.219 0.152
70.3377 2.604 0.165
70.3582 2.438 0.159
70.3787 2.479 0.161
70.3991 2.563 0.163
70.4196 2.292 0.155
70.4400 2.490 0.161
70.4605 2.667 0.167
70.4810 2.781 0.170
70.5014 2.604 0.165
70.5219 2.521 0.162
70.5424 2.667 0.167
70.5628 2.479 0.161
70.5833 2.240 0.153
70.6037 2.542 0.163
70.6242 2.875 0.173
70.6447 2.781 0.170
70.6651 2.469 0.160
70.6856 2.469 0.160
70.7061 2.531 0.162
70.7265 2.479 0.161
70.7470 2.802 0.171
70.7674 2.552 0.163
70.7879 2.531 0.162
70.8084 2.479 0.161
70.8288 2.365 0.157
70.8493 2.531 0.162
70.8698 2.479 0.161
70.8902 2.458 0.160
70.9107 2.583 0.164
70.9311 2.656 0.166
70.9516 2.688 0.167
70.9721 2.583 0.164
70.9925 2.844 0.172
71.0130 2.656 0.166
71.0335 3.021 0.177
71.0539 2.906 0.174
71.0744 3.771 0.198
71.0948 3.344 0.187
71.1153 3.260 0.184
71.1358 3.281 0.185
71.1562 2.771 0.170
71.1767 2.771 0.170
71.1972 2.552 0.163
71.2176 3.094 0.180
71.2381 2.729 0.169
71.2586 3.135 0.181
71.2790 3.250 0.184
71.2995 3.094 0.180
71.3199 3.115 0.180
71.3404 2.958 0.176
71.3609 3.010 0.177
71.3813 2.979 0.176
71.4018 3.260 0.184
71.4223 3.323 0.186
71.4427 2.938 0.175
71.4632 2.771 0.170
71.4836 3.219 0.183
71.5041 3.208 0.183
71.5246 3.115 0.180
71.5450 3.406 0.188
71.5655 3.469 0.190
71.5860 3.302 0.185
71.6064 3.740 0.197
71.6269 3.688 0.196
71.6473 3.656 0.195
71.6678 3.844 0.200
71.6883 3.823 0.200
71.7087 4.333 0.212
71.7292 4.052 0.205
71.7497 4.073 0.206
71.7701 4.052 0.205
71.7906 3.927 0.202
71.8110 4.271 0.211
71.8315 4.219 0.210
71.8520 4.615 0.219
71.8724 4.417 0.214
71.8929 4.115 0.207
71.9134 4.365 0.213
71.9338 4.333 0.212
71.9543 4.104 0.207
71.9747 4.792 0.223
71.9952 4.500 0.217
72.0157 4.281 0.211
72.0361 4.219 0.210
72.0566 4.521 0.217
72.0771 4.813 0.224
72.0975 4.000 0.204
72.1180 4.656 0.220
72.1385 4.156 0.208
72.1589 3.917 0.202
72.1794 3.969 0.203
72.1998 4.104 0.207
72.2203 3.906 0.202
72.2408 3.813 0.199
72.2612 4.052 0.205
72.2817 3.938 0.203
72.3022 3.906 0.202
72.3226 3.708 0.197
72.3431 3.698 0.196
72.3635 3.781 0.198
72.3840 3.740 0.197
72.4045 3.240 0.184
72.4249 3.323 0.186
72.4454 3.104 0.180
72.4659 3.292 0.185
72.4863 3.281 0.185
72.5068 3.333 0.186
72.5272 2.906 0.174
72.5477 3.146 0.181
72.5682 3.313 0.186
72.5886 3.094 0.180
72.6091 3.115 0.180
72.6296 2.969 0.176
72.6500 2.948 0.175
72.6705 2.990 0.176
72.6909 2.573 0.164
72.7114 3.031 0.178
72.7319 2.635 0.166
72.7523 2.792 0.171
72.7728 2.948 0.175
72.7933 2.990 0.176
72.8137 3.510 0.191
72.8342 3.396 0.188
72.8547 3.729 0.197
72.8751 3.771 0.198
72.8956 3.594 0.193
72.9160 2.938 0.175
72.9365 3.083 0.179
72.9570 2.823 0.171
72.9774 2.583 0.164
72.9979 2.927 0.175
73.0184 2.865 0.173
73.0388 2.583 0.164
73.0593 2.781 0.170
73.0797 2.906 0.174
73.1002 2.573 0.164
73.1207 2.448 0.160
73.1411 2.552 0.163
73.1616 2.375 0.157
73.1821 2.479 0.161
73.2025 2.458 0.160
73.2230 2.458 0.160
73.2434 2.417 0.159
73.2639 2.260 0.153
73.2844 2.135 0.149
73.3048 2.344 0.156
73.3253 2.188 0.151
73.3458 2.781 0.170
73.3662 2.219 0.152
73.3867 2.208 0.152
73.4071 2.260 0.153
73.4276 2.396 0.158
73.4481 2.448 0.160
73.4685 2.115 0.148
73.4890 2.281 0.154
73.5095 2.229 0.152
73.5299 2.333 0.156
73.5504 2.156 0.150
73.5708 2.281 0.154
73.5913 2.177 0.151
73.6118 2.083 0.147
73.6322 2.198 0.151
73.6527 2.438 0.159
73.6732 1.896 0.141
73.6936 2.302 0.155
73.7141 2.125 0.149
73.7346 2.135 0.149
73.7550 2.042 0.146
73.7755 2.021 0.145
73.7959 2.281 0.154
73.8164 2.427 0.159
73.8369 2.156 0.150
73.8573 2.250 0.153
73.8778 2.333 0.156
73.8983 2.208 0.152
73.9187 2.365 0.157
73.9392 2.208 0.152
73.9596 2.396 0.158
73.9801 2.552 0.163
74.0006 2.583 0.164
74.0210 2.865 0.173
74.0415 2.750 0.169
74.0620 2.594 0.164
74.0824 2.948 0.175
74.1029 2.615 0.165
74.1233 2.385 0.158
74.1438 2.260 0.153
74.1643 2.375 0.157
74.1847 2.333 0.156
74.2052 2.406 0.158
74.2257 2.302 0.155
74.2461 2.313 0.155
74.2666 2.208 0.152
74.2870 2.323 0.156
74.3075 2.510 0.162
74.3280 2.469 0.160
74.3484 2.177 0.151
74.3689 2.167 0.150
74.3894 2.219 0.152
74.4098 1.958 0.143
74.4303 2.042 0.146
74.4507 1.979 0.144
74.4712 2.104 0.148
74.4917 2.042 0.146
74.5121 1.885 0.140
74.5326 1.885 0.140
74.5531 2.292 0.155
74.5735 2.094 0.148
74.5940 2.260 0.153
74.6145 1.844 0.139
74.6349 2.000 0.144
74.6554 2.052 0.146
74.6758 2.021 0.145
74.6963 1.990 0.144
74.7168 1.948 0.142
74.7372 2.125 0.149
74.7577 2.219 0.152
74.7782 1.885 0.140
74.7986 1.938 0.142
74.8191 1.844 0.139
74.8395 2.146 0.150
74.8600 2.073 0.147
74.8805 1.917 0.141
74.9009 2.073 0.147
74.9214 2.052 0.146
74.9419 2.094 0.148
74.9623 2.125 0.149
74.9828 1.938 0.142
75.0032 1.875 0.140
75.0237 2.125 0.149
75.0442 1.927 0.142
75.0646 2.573 0.164
75.0851 2.000 0.144
75.1056 2.240 0.153
75.1260 2.021 0.145
75.1465 2.333 0.156
75.1669 1.708 0.133
75.1874 2.010 0.145
75.2079 2.031 0.145
75.2283 2.083 0.147
75.2488 2.073 0.147
75.2693 2.125 0.149
75.2897 2.010 0.145
75.3102 2.250 0.153
75.3306 2.000 0.144
75.3511 1.885 0.140
75.3716 2.333 0.156
75.3920 1.938 0.142
75.4125 2.208 0.152
75.4330 2.135 0.149
75.4534 2.115 0.148
75.4739 1.979 0.144
75.4944 2.313 0.155
75.5148 2.344 0.156
75.5353 2.281 0.154
75.5557 2.510 0.162
75.5762 2.354 0.157
75.5967 2.354 0.157
75.6171 2.594 0.164
75.6376 2.385 0.158
75.6581 2.688 0.167
75.6785 2.990 0.176
75.6990 3.083 0.179
75.7194 3.583 0.193
75.7399 4.073 0.206
75.7604 4.917 0.226
75.7808 5.510 0.240
75.8013 5.823 0.246
75.8218 5.281 0.235
75.8422 4.500 0.217
75.8627 3.823 0.200
75.8831 3.688 0.196
75.9036 3.365 0.187
75.9241 3.021 0.177
75.9445 3.375 0.188
75.9650 3.208 0.183
75.9855 3.885 0.201
76.0059 3.427 0.189
76.0264 3.375 0.188
76.0468 3.917 0.202
76.0673 3.302 0.185
76.0878 2.948 0.175
76.1082 2.417 0.159
76.1287 2.458 0.160
76.1492 2.344 0.156
76.1696 2.563 0.163
76.1901 2.313 0.155
76.2105 2.229 0.152
76.2310 2.365 0.157
76.2515 1.969 0.143
76.2719 1.990 0.144
76.2924 2.021 0.145
76.3129 2.177 0.151
76.3333 2.031 0.145
76.3538 1.833 0.138
76.3743 2.208 0.152
76.3947 2.073 0.147
76.4152 1.938 0.142
76.4356 1.938 0.142
76.4561 2.146 0.150
76.4766 1.917 0.141
76.4970 1.760 0.135
76.5175 2.042 0.146
76.5380 2.302 0.155
76.5584 1.990 0.144
76.5789 2.125 0.149
76.5993 1.896 0.141
76.6198 1.990 0.144
76.6403 2.031 0.145
76.6607 1.823 0.138
76.6812 2.427 0.159
76.7017 1.948 0.142
76.7221 1.938 0.142
76.7426 2.083 0.147
76.7630 1.823 0.138
76.7835 2.104 0.148
76.8040 1.865 0.139
76.8244 1.792 0.137
76.8449 1.979 0.144
76.8654 2.083 0.147
76.8858 1.750 0.135
76.9063 2.250 0.153
76.9267 1.531 0.126
76.9472 1.865 0.139
76.9677 1.979 0.144
76.9881 2.094 0.148
77.0086 2.323 0.156
77.0291 2.042 0.146
77.0495 1.885 0.140
77.0700 2.104 0.148
77.0905 2.021 0.145
77.1109 2.083 0.147
77.1314 2.135 0.149
77.1518 2.125 0.149
77.1723 1.938 0.142
77.1928 2.125 0.149
77.2132 2.042 0.146
77.2337 2.010 0.145
77.2542 2.229 0.152
77.2746 2.083 0.147
77.2951 2.260 0.153
77.3155 2.271 0.154
77.3360 2.177 0.151
77.3565 2.469 0.160
77.3769 2.250 0.153
77.3974 2.313 0.155
77.4179 2.677 0.167
77.4383 2.531 0.162
77.4588 2.708 0.168
77.4792 2.844 0.172
77.4997 3.219 0.183
77.5202 3.375 0.188
77.5406 3.573 0.193
77.5611 3.417 0.189
77.5816 2.875 0.173
77.6020 3.125 0.180
77.6225 2.708 0.168
77.6429 2.750 0.169
77.6634 2.635 0.166
77.6839 2.635 0.166
77.7043 2.615 0.165
77.7248 2.448 0.160
77.7453 3.292 0.185
77.7657 2.906 0.174
77.7862 3.167 0.182
77.8066 3.302 0.185
77.8271 2.885 0.173
77.8476 3.021 0.177
77.8680 2.740 0.169
77.8885 2.354 0.157
77.9090 2.479 0.161
77.9294 2.125 0.149
77.9499 2.333 0.156
77.9704 2.365 0.157
77.9908 2.531 0.162
78.0113 2.323 0.156
78.0317 2.490 0.161
78.0522 2.625 0.165
78.0727 2.510 0.162
78.0931 2.490 0.161
78.1136 2.365 0.157
78.1341 2.094 0.148
78.1545 2.375 0.157
78.1750 2.156 0.150
78.1954 1.906 0.141
78.2159 2.063 0.147
78.2364 2.063 0.147
78.2568 2.323 0.156
78.2773 2.094 0.148
78.2978 2.323 0.156
78.3182 2.490 0.161
78.3387 2.333 0.156
78.3591 2.573 0.164
78.3796 2.615 0.165
78.4001 2.667 0.167
78.4205 2.646 0.166
78.4410 2.375 0.157
78.4615 2.521 0.162
78.4819 2.292 0.155
78.5024 2.094 0.148
78.5228 2.260 0.153
78.5433 2.490 0.161
78.5638 2.448 0.160
78.5842 2.333 0.156
78.6047 2.500 0.161
78.6252 2.552 0.163
78.6456 2.375 0.157
78.6661 2.354 0.157
78.6865 2.427 0.159
78.7070 2.219 0.152
78.7275 2.240 0.153
78.7479 2.156 0.150
78.7684 2.469 0.160
78.7889 2.083 0.147
78.8093 2.073 0.147
78.8298 2.281 0.154
78.8503 2.021 0.145
78.8707 2.271 0.154
78.8912 2.302 0.155
78.9116 2.031 0.145
78.9321 2.260 0.153
78.9526 2.281 0.154
78.9730 2.354 0.157
78.9935 2.531 0.162
79.0140 2.500 0.161
79.0344 2.156 0.150
79.0549 2.313 0.155
79.0753 2.323 0.156
79.0958 2.198 0.151
79.1163 2.292 0.155
79.1367 2.313 0.155
79.1572 2.208 0.152
79.1777 2.292 0.155
79.1981 2.375 0.157
79.2186 2.396 0.158
79.2390 2.302 0.155
79.2595 2.417 0.159
79.2800 2.177 0.151
79.3004 2.458 0.160
79.3209 2.073 0.147
79.3414 2.115 0.148
79.3618 2.427 0.159
79.3823 2.240 0.153
79.4027 2.260 0.153
79.4232 2.479 0.161
79.4437 2.042 0.146
79.4641 2.635 0.166
79.4846 2.521 0.162
79.5051 2.802 0.171
79.5255 3.177 0.182
79.5460 2.938 0.175
79.5664 3.042 0.178
79.5869 3.021 0.177
79.6074 2.771 0.170
79.6278 2.802 0.171
79.6483 2.427 0.159
79.6688 2.302 0.155
79.6892 2.375 0.157
79.7097 2.740 0.169
79.7302 2.167 0.150
79.7506 2.375 0.157
79.7711 2.583 0.164
79.7915 2.521 0.162
79.8120 2.771 0.170
79.8325 2.188 0.151
79.8529 2.313 0.155
79.8734 2.313 0.155
79.8939 2.271 0.154
79.9143 1.927 0.142
79.9348 2.208 0.152
79.9552 1.927 0.142
79.9757 1.990 0.144
79.9962 2.292 0.155
