'Id: "" Comment: "" Operator: "Lab Manager" Anode: "Cu" Scantype: "Locked Coupled" TimePerStep: "96" X: "0" Y: "0" Z: "0" 
5.0000 23.531 0.495
5.0205 23.542 0.495
5.0409 23.073 0.490
5.0614 22.573 0.485
5.0819 22.521 0.484
5.1023 23.115 0.491
5.1228 23.177 0.491
5.1432 22.646 0.486
5.1637 22.490 0.484
5.1842 22.313 0.482
5.2046 21.781 0.476
5.2251 23.354 0.493
5.2456 22.083 0.480
5.2660 22.167 0.481
5.2865 22.833 0.488
5.3069 21.365 0.472
5.3274 21.448 0.473
5.3479 22.625 0.485
5.3683 21.813 0.477
5.3888 20.781 0.465
5.4093 21.531 0.474
5.4297 22.042 0.479
5.4502 21.813 0.477
5.4706 21.094 0.469
5.4911 21.479 0.473
5.5116 21.385 0.472
5.5320 21.708 0.476
5.5525 21.063 0.468
5.5730 22.458 0.484
5.5934 20.969 0.467
5.6139 22.031 0.479
5.6343 20.844 0.466
5.6548 21.385 0.472
5.6753 21.823 0.477
5.6957 19.865 0.455
5.7162 21.906 0.478
5.7367 20.625 0.464
5.7571 22.198 0.481
5.7776 22.375 0.483
5.7980 21.375 0.472
5.8185 21.271 0.471
5.8390 21.552 0.474
5.8594 21.865 0.477
5.8799 21.688 0.475
5.9004 22.021 0.479
5.9208 22.073 0.480
5.9413 22.906 0.488
5.9618 23.240 0.492
5.9822 22.677 0.486
6.0027 23.010 0.490
6.0231 23.052 0.490
6.0436 23.927 0.499
6.0641 24.354 0.504
6.0845 24.604 0.506
6.1050 25.260 0.513
6.1255 24.854 0.509
6.1459 24.906 0.509
6.1664 24.531 0.506
6.1868 25.281 0.513
6.2073 25.313 0.513
6.2278 27.146 0.532
6.2482 25.813 0.519
6.2687 27.417 0.534
6.2892 25.875 0.519
6.3096 26.021 0.521
6.3301 25.260 0.513
6.3505 25.542 0.516
6.3710 24.552 0.506
6.3915 24.927 0.510
6.4119 23.427 0.494
6.4324 23.500 0.495
6.4529 22.708 0.486
6.4733 22.594 0.485
6.4938 21.865 0.477
6.5142 22.990 0.489
6.5347 21.771 0.476
6.5552 20.948 0.467
6.5756 21.271 0.471
6.5961 20.875 0.466
6.6166 20.552 0.463
6.6370 21.010 0.468
6.6575 20.490 0.462
6.6779 20.333 0.460
6.6984 20.708 0.464
6.7189 19.688 0.453
6.7393 19.552 0.451
6.7598 19.865 0.455
6.7803 20.719 0.465
6.8007 19.177 0.447
6.8212 20.260 0.459
6.8417 20.615 0.463
6.8621 18.750 0.442
6.8826 19.281 0.448
6.9030 18.885 0.444
6.9235 18.875 0.443
6.9440 19.844 0.455
6.9644 20.000 0.456
6.9849 19.521 0.451
7.0054 19.146 0.447
7.0258 18.990 0.445
7.0463 19.458 0.450
7.0667 19.667 0.453
7.0872 19.000 0.445
7.1077 19.677 0.453
7.1281 18.917 0.444
7.1486 18.698 0.441
7.1691 18.677 0.441
7.1895 18.781 0.442
7.2100 18.698 0.441
7.2304 19.042 0.445
7.2509 19.750 0.454
7.2714 19.365 0.449
7.2918 18.896 0.444
7.3123 18.958 0.444
7.3328 19.552 0.451
7.3532 19.354 0.449
7.3737 19.427 0.450
7.3941 18.656 0.441
7.4146 19.229 0.448
7.4351 19.021 0.445
7.4555 18.896 0.444
7.4760 19.177 0.447
7.4965 19.271 0.448
7.5169 19.531 0.451
7.5374 19.229 0.448
7.5579 19.708 0.453
7.5783 19.729 0.453
7.5988 19.094 0.446
7.6192 18.802 0.443
7.6397 19.521 0.451
7.6602 19.313 0.449
7.6806 19.271 0.448
7.7011 18.552 0.440
7.7216 18.573 0.440
7.7420 19.365 0.449
7.7625 20.167 0.458
7.7829 19.146 0.447
7.8034 19.365 0.449
7.8239 18.490 0.439
7.8443 18.938 0.444
7.8648 18.667 0.441
7.8853 19.354 0.449
7.9057 19.229 0.448
7.9262 19.177 0.447
7.9466 19.510 0.451
7.9671 18.875 0.443
7.9876 19.729 0.453
8.0080 18.969 0.445
8.0285 18.875 0.443
8.0490 20.563 0.463
8.0694 19.990 0.456
8.0899 19.615 0.452
8.1103 19.917 0.455
8.1308 19.302 0.448
8.1513 20.042 0.457
8.1717 20.156 0.458
8.1922 20.313 0.460
8.2127 20.135 0.458
8.2331 20.438 0.461
8.2536 21.167 0.470
8.2740 21.031 0.468
8.2945 20.281 0.460
8.3150 19.375 0.449
8.3354 19.135 0.446
8.3559 20.427 0.461
8.3764 19.823 0.454
8.3968 19.354 0.449
8.4173 19.760 0.454
8.4378 19.083 0.446
8.4582 18.958 0.444
8.4787 19.635 0.452
8.4991 20.010 0.457
8.5196 19.729 0.453
8.5401 19.823 0.454
8.5605 19.427 0.450
8.5810 19.906 0.455
8.6015 20.469 0.462
8.6219 20.594 0.463
8.6424 20.042 0.457
8.6628 19.438 0.450
8.6833 19.396 0.449
8.7038 19.552 0.451
8.7242 20.448 0.462
8.7447 20.615 0.463
8.7652 20.135 0.458
8.7856 20.969 0.467
8.8061 20.823 0.466
8.8265 23.052 0.490
8.8470 21.927 0.478
8.8675 22.938 0.489
8.8879 24.063 0.501
8.9084 24.438 0.505
8.9289 26.219 0.523
8.9493 26.250 0.523
8.9698 30.740 0.566
8.9902 34.990 0.604
9.0107 41.427 0.657
9.0312 50.208 0.723
9.0516 63.708 0.815
9.0721 81.052 0.919
9.0926 97.604 1.008
9.1130 97.385 1.007
9.1335 74.146 0.879
9.1539 48.021 0.707
9.1744 33.354 0.589
9.1949 28.083 0.541
9.2153 26.917 0.530
9.2358 26.781 0.528
9.2563 25.688 0.517
9.2767 26.885 0.529
9.2972 28.271 0.543
9.3177 27.333 0.534
9.3381 27.458 0.535
9.3586 28.583 0.546
9.3790 28.010 0.540
9.3995 27.906 0.539
9.4200 27.917 0.539
9.4404 27.583 0.536
9.4609 28.021 0.540
9.4814 28.115 0.541
9.5018 28.313 0.543
9.5223 29.365 0.553
9.5427 28.875 0.548
9.5632 29.135 0.551
9.5837 30.760 0.566
9.6041 29.104 0.551
9.6246 31.635 0.574
9.6451 31.698 0.575
9.6655 32.740 0.584
9.6860 34.458 0.599
9.7064 35.906 0.612
9.7269 35.990 0.612
9.7474 38.885 0.636
9.7678 40.406 0.649
9.7883 43.958 0.677
9.8088 47.552 0.704
9.8292 54.167 0.751
9.8497 62.969 0.810
9.8701 75.219 0.885
9.8906 88.510 0.960
9.9111 94.875 0.994
9.9315 91.063 0.974
9.9520 77.281 0.897
9.9725 64.438 0.819
9.9929 55.781 0.762
10.0134 50.635 0.726
10.0338 45.146 0.686
10.0543 42.292 0.664
10.0748 40.292 0.648
10.0952 37.781 0.627
10.1157 36.625 0.618
10.1362 35.031 0.604
10.1566 33.531 0.591
10.1771 33.010 0.586
10.1976 32.104 0.578
10.2180 31.979 0.577
10.2385 29.563 0.555
10.2589 29.979 0.559
10.2794 30.177 0.561
10.2999 29.010 0.550
10.3203 29.344 0.553
10.3408 27.750 0.538
10.3613 28.104 0.541
10.3817 28.510 0.545
10.4022 26.896 0.529
10.4226 26.594 0.526
10.4431 26.115 0.522
10.4636 26.042 0.521
10.4840 26.698 0.527
10.5045 24.885 0.509
10.5250 25.802 0.518
10.5454 25.417 0.515
10.5659 24.844 0.509
10.5863 25.688 0.517
10.6068 23.396 0.494
10.6273 24.990 0.510
10.6477 24.052 0.501
10.6682 23.948 0.499
10.6887 23.448 0.494
10.7091 23.896 0.499
10.7296 23.458 0.494
10.7500 23.896 0.499
10.7705 22.760 0.487
10.7910 22.396 0.483
10.8114 22.260 0.482
10.8319 22.177 0.481
10.8524 21.906 0.478
10.8728 21.604 0.474
10.8933 20.604 0.463
10.9137 21.229 0.470
10.9342 21.552 0.474
10.9547 21.000 0.468
10.9751 21.365 0.472
10.9956 19.594 0.452
11.0161 20.135 0.458
11.0365 19.646 0.452
11.0570 20.115 0.458
11.0775 19.927 0.456
11.0979 18.448 0.438
11.1184 18.656 0.441
11.1388 19.146 0.447
11.1593 18.969 0.445
11.1798 19.385 0.449
11.2002 18.229 0.436
11.2207 18.479 0.439
11.2412 18.563 0.440
11.2616 18.531 0.439
11.2821 17.844 0.431
11.3025 18.448 0.438
11.3230 17.833 0.431
11.3435 17.719 0.430
11.3639 16.833 0.419
11.3844 17.990 0.433
11.4049 17.063 0.422
11.4253 17.521 0.427
11.4458 17.510 0.427
11.4662 17.073 0.422
11.4867 17.563 0.428
11.5072 17.000 0.421
11.5276 16.385 0.413
11.5481 17.406 0.426
11.5686 16.927 0.420
11.5890 16.604 0.416
11.6095 16.698 0.417
11.6299 16.771 0.418
11.6504 15.958 0.408
11.6709 17.135 0.422
11.6913 17.313 0.425
11.7118 16.854 0.419
11.7323 16.781 0.418
11.7527 16.615 0.416
11.7732 16.615 0.416
11.7937 16.333 0.412
11.8141 16.042 0.409
11.8346 16.323 0.412
11.8550 15.813 0.406
11.8755 16.698 0.417
11.8960 16.177 0.411
11.9164 16.031 0.409
11.9369 15.906 0.407
11.9574 16.854 0.419
11.9778 16.625 0.416
11.9983 17.115 0.422
12.0187 16.313 0.412
12.0392 17.406 0.426
12.0597 17.354 0.425
12.0801 17.333 0.425
12.1006 18.021 0.433
12.1211 18.167 0.435
12.1415 19.167 0.447
12.1620 19.177 0.447
12.1824 19.406 0.450
12.2029 20.250 0.459
12.2234 21.260 0.471
12.2438 22.417 0.483
12.2643 21.865 0.477
12.2848 23.125 0.491
12.3052 23.198 0.492
12.3257 23.583 0.496
12.3461 23.427 0.494
12.3666 23.010 0.490
12.3871 23.865 0.499
12.4075 22.542 0.485
12.4280 22.094 0.480
12.4485 21.073 0.469
12.4689 20.385 0.461
12.4894 20.250 0.459
12.5098 20.052 0.457
12.5303 19.563 0.451
12.5508 19.115 0.446
12.5712 17.625 0.428
12.5917 18.406 0.438
12.6122 17.813 0.431
12.6326 17.156 0.423
12.6531 16.594 0.416
12.6736 17.021 0.421
12.6940 15.948 0.408
12.7145 15.604 0.403
12.7349 14.792 0.393
12.7554 15.958 0.408
12.7759 15.427 0.401
12.7963 14.719 0.392
12.8168 14.677 0.391
12.8373 14.646 0.391
12.8577 14.771 0.392
12.8782 14.521 0.389
12.8986 14.250 0.385
12.9191 14.427 0.388
12.9396 13.927 0.381
12.9600 14.490 0.389
12.9805 13.646 0.377
13.0010 13.104 0.369
13.0214 14.021 0.382
13.0419 13.115 0.370
13.0623 13.656 0.377
13.0828 12.875 0.366
13.1033 12.833 0.366
13.1237 12.656 0.363
13.1442 12.281 0.358
13.1647 12.396 0.359
13.1851 12.604 0.362
13.2056 12.469 0.360
13.2260 12.875 0.366
13.2465 12.531 0.361
13.2670 13.000 0.368
13.2874 13.052 0.369
13.3079 13.302 0.372
13.3284 12.667 0.363
13.3488 12.938 0.367
13.3693 12.573 0.362
13.3897 12.063 0.354
13.4102 12.542 0.361
13.4307 12.427 0.360
13.4511 12.115 0.355
13.4716 12.135 0.356
13.4921 12.563 0.362
13.5125 11.635 0.348
13.5330 12.635 0.363
13.5535 12.688 0.364
13.5739 12.031 0.354
13.5944 12.188 0.356
13.6148 12.063 0.354
13.6353 12.073 0.355
13.6558 12.146 0.356
13.6762 11.760 0.350
13.6967 11.948 0.353
13.7172 11.469 0.346
13.7376 12.115 0.355
13.7581 11.521 0.346
13.7785 11.302 0.343
13.7990 12.188 0.356
13.8195 11.792 0.350
13.8399 11.583 0.347
13.8604 11.323 0.343
13.8809 11.667 0.349
13.9013 11.813 0.351
13.9218 11.281 0.343
13.9422 11.958 0.353
13.9627 11.000 0.339
13.9832 11.208 0.342
14.0036 11.094 0.340
14.0241 11.292 0.343
14.0446 11.427 0.345
14.0650 10.604 0.332
14.0855 11.521 0.346
14.1059 11.813 0.351
14.1264 11.823 0.351
14.1469 11.365 0.344
14.1673 11.688 0.349
14.1878 10.917 0.337
14.2083 11.333 0.344
14.2287 11.417 0.345
14.2492 10.938 0.338
14.2696 11.198 0.342
14.2901 11.406 0.345
14.3106 10.719 0.334
14.3310 10.792 0.335
14.3515 10.604 0.332
14.3720 11.135 0.341
14.3924 10.938 0.338
14.4129 10.323 0.328
14.4334 11.542 0.347
14.4538 11.115 0.340
14.4743 10.729 0.334
14.4947 10.948 0.338
14.5152 11.115 0.340
14.5357 11.104 0.340
14.5561 10.979 0.338
14.5766 11.177 0.341
14.5971 10.281 0.327
14.6175 10.458 0.330
14.6380 10.719 0.334
14.6584 10.313 0.328
14.6789 10.656 0.333
14.6994 10.198 0.326
14.7198 10.990 0.338
14.7403 10.698 0.334
14.7608 9.802 0.320
14.7812 10.333 0.328
14.8017 10.646 0.333
14.8221 10.750 0.335
14.8426 9.958 0.322
14.8631 10.677 0.333
14.8835 10.385 0.329
14.9040 10.875 0.337
14.9245 10.604 0.332
14.9449 10.313 0.328
14.9654 10.531 0.331
14.9858 10.188 0.326
15.0063 11.063 0.339
15.0268 9.521 0.315
15.0472 10.292 0.327
15.0677 10.875 0.337
15.0882 10.323 0.328
15.1086 10.667 0.333
15.1291 10.896 0.337
15.1495 10.427 0.330
15.1700 10.625 0.333
15.1905 10.583 0.332
15.2109 10.479 0.330
15.2314 10.823 0.336
15.2519 10.969 0.338
15.2723 10.052 0.324
15.2928 11.271 0.343
15.3133 11.479 0.346
15.3337 11.573 0.347
15.3542 11.750 0.350
15.3746 12.188 0.356
15.3951 12.792 0.365
15.4156 11.260 0.342
15.4360 11.615 0.348
15.4565 11.833 0.351
15.4770 11.260 0.342
15.4974 11.292 0.343
15.5179 11.792 0.350
15.5383 10.531 0.331
15.5588 11.260 0.342
15.5793 11.323 0.343
15.5997 11.833 0.351
15.6202 11.990 0.353
15.6407 12.115 0.355
15.6611 13.906 0.381
15.6816 15.354 0.400
15.7020 19.302 0.448
15.7225 24.698 0.507
15.7430 33.667 0.592
15.7634 43.260 0.671
15.7839 49.427 0.718
15.8044 42.302 0.664
15.8248 32.135 0.579
15.8453 22.563 0.485
15.8657 15.500 0.402
15.8862 13.365 0.373
15.9067 12.583 0.362
15.9271 12.281 0.358
15.9476 11.990 0.353
15.9681 11.917 0.352
15.9885 11.448 0.345
16.0090 11.438 0.345
16.0295 10.750 0.335
16.0499 10.354 0.328
16.0704 11.021 0.339
16.0908 10.677 0.333
16.1113 10.604 0.332
16.1318 10.042 0.323
16.1522 10.438 0.330
16.1727 10.406 0.329
16.1932 10.552 0.332
16.2136 9.719 0.318
16.2341 10.823 0.336
16.2545 10.698 0.334
16.2750 10.729 0.334
16.2955 10.448 0.330
16.3159 10.625 0.333
16.3364 10.115 0.325
16.3569 10.281 0.327
16.3773 10.073 0.324
16.3978 10.438 0.330
16.4182 10.219 0.326
16.4387 11.177 0.341
16.4592 10.656 0.333
16.4796 10.073 0.324
16.5001 10.073 0.324
16.5206 10.427 0.330
16.5410 10.781 0.335
16.5615 11.198 0.342
16.5819 11.073 0.340
16.6024 10.917 0.337
16.6229 10.542 0.331
16.6433 10.573 0.332
16.6638 10.958 0.338
16.6843 10.958 0.338
16.7047 11.115 0.340
16.7252 11.229 0.342
16.7456 10.646 0.333
16.7661 11.396 0.345
16.7866 10.948 0.338
16.8070 10.698 0.334
16.8275 10.563 0.332
16.8480 10.333 0.328
16.8684 10.958 0.338
16.8889 10.792 0.335
16.9094 11.021 0.339
16.9298 10.719 0.334
16.9503 10.740 0.334
16.9707 10.688 0.334
16.9912 11.146 0.341
17.0117 11.313 0.343
17.0321 11.396 0.345
17.0526 10.917 0.337
17.0731 11.260 0.342
17.0935 11.479 0.346
17.1140 11.385 0.344
17.1344 11.500 0.346
17.1549 10.417 0.329
17.1754 11.469 0.346
17.1958 10.854 0.336
17.2163 10.875 0.337
17.2368 12.167 0.356
17.2572 11.344 0.344
17.2777 12.188 0.356
17.2981 12.156 0.356
17.3186 11.052 0.339
17.3391 11.854 0.351
17.3595 11.021 0.339
17.3800 12.229 0.357
17.4005 12.240 0.357
17.4209 11.208 0.342
17.4414 12.229 0.357
17.4618 12.240 0.357
17.4823 12.667 0.363
17.5028 12.406 0.359
17.5232 12.354 0.359
17.5437 11.854 0.351
17.5642 12.438 0.360
17.5846 13.313 0.372
17.6051 12.604 0.362
17.6255 12.688 0.364
17.6460 12.760 0.365
17.6665 13.333 0.373
17.6869 13.031 0.368
17.7074 14.438 0.388
17.7279 14.010 0.382
17.7483 15.417 0.401
17.7688 17.281 0.424
17.7893 19.396 0.449
17.8097 21.635 0.475
17.8302 22.458 0.484
17.8506 20.885 0.466
17.8711 19.010 0.445
17.8916 17.990 0.433
17.9120 16.073 0.409
17.9325 14.823 0.393
17.9530 14.938 0.394
17.9734 15.031 0.396
17.9939 15.156 0.397
18.0143 15.510 0.402
18.0348 16.271 0.412
18.0553 15.927 0.407
18.0757 16.000 0.408
18.0962 16.292 0.412
18.1167 16.375 0.413
18.1371 15.458 0.401
18.1576 16.052 0.409
18.1780 16.417 0.414
18.1985 15.802 0.406
18.2190 16.573 0.415
18.2394 16.917 0.420
18.2599 16.427 0.414
18.2804 16.344 0.413
18.3008 16.375 0.413
18.3213 15.583 0.403
18.3417 14.917 0.394
18.3622 15.396 0.400
18.3827 15.490 0.402
18.4031 14.260 0.385
18.4236 15.938 0.407
18.4441 15.635 0.404
18.4645 14.833 0.393
18.4850 15.635 0.404
18.5054 16.615 0.416
18.5259 15.677 0.404
18.5464 16.792 0.418
18.5668 15.729 0.405
18.5873 16.656 0.417
18.6078 15.917 0.407
18.6282 16.729 0.417
18.6487 16.823 0.419
18.6692 15.906 0.407
18.6896 17.313 0.425
18.7101 16.479 0.414
18.7305 17.021 0.421
18.7510 17.844 0.431
18.7715 18.333 0.437
18.7919 17.865 0.431
18.8124 20.625 0.464
18.8329 21.625 0.475
18.8533 26.177 0.522
18.8738 31.198 0.570
18.8942 31.823 0.576
18.9147 28.042 0.540
18.9352 25.510 0.515
18.9556 21.313 0.471
18.9761 18.156 0.435
18.9966 16.802 0.418
19.0170 16.688 0.417
19.0375 16.052 0.409
19.0579 15.344 0.400
19.0784 15.177 0.398
19.0989 15.490 0.402
19.1193 14.719 0.392
19.1398 14.458 0.388
19.1603 14.385 0.387
19.1807 13.875 0.380
19.2012 13.167 0.370
19.2216 13.917 0.381
19.2421 13.208 0.371
19.2626 14.573 0.390
19.2830 13.885 0.380
19.3035 13.719 0.378
19.3240 14.052 0.383
19.3444 13.688 0.378
19.3649 12.979 0.368
19.3853 13.635 0.377
19.4058 14.167 0.384
19.4263 13.500 0.375
19.4467 14.177 0.384
19.4672 13.531 0.375
19.4877 13.552 0.376
19.5081 13.688 0.378
19.5286 13.740 0.378
19.5491 13.490 0.375
19.5695 13.417 0.374
19.5900 13.979 0.382
19.6104 13.385 0.373
19.6309 13.635 0.377
19.6514 14.510 0.389
19.6718 13.656 0.377
19.6923 14.854 0.393
19.7128 15.365 0.400
19.7332 15.813 0.406
19.7537 16.260 0.412
19.7741 17.177 0.423
19.7946 19.240 0.448
19.8151 21.229 0.470
19.8355 25.073 0.511
19.8560 26.677 0.527
19.8765 26.469 0.525
19.8969 25.073 0.511
19.9174 23.313 0.493
19.9378 20.458 0.462
19.9583 19.094 0.446
19.9788 16.823 0.419
19.9992 16.583 0.416
20.0197 16.115 0.410
20.0402 15.594 0.403
20.0606 16.042 0.409
20.0811 15.552 0.402
20.1015 14.719 0.392
20.1220 14.656 0.391
20.1425 15.302 0.399
20.1629 15.219 0.398
20.1834 15.531 0.402
20.2039 16.708 0.417
20.2243 16.615 0.416
20.2448 16.406 0.413
20.2653 16.354 0.413
20.2857 17.802 0.431
20.3062 16.969 0.420
20.3266 17.302 0.425
20.3471 17.740 0.430
20.3676 17.281 0.424
20.3880 18.073 0.434
20.4085 17.313 0.425
20.4290 18.323 0.437
20.4494 18.490 0.439
20.4699 17.417 0.426
20.4903 16.958 0.420
20.5108 16.865 0.419
20.5313 16.583 0.416
20.5517 16.052 0.409
20.5722 16.635 0.416
20.5927 15.677 0.404
20.6131 15.469 0.401
20.6336 14.927 0.394
20.6540 14.656 0.391
20.6745 15.031 0.396
20.6950 14.583 0.390
20.7154 13.760 0.379
20.7359 13.115 0.370
20.7564 13.250 0.372
20.7768 12.573 0.362
20.7973 12.688 0.364
20.8177 12.573 0.362
20.8382 12.156 0.356
20.8587 12.063 0.354
20.8791 11.406 0.345
20.8996 11.510 0.346
20.9201 11.719 0.349
20.9405 11.344 0.344
20.9610 11.292 0.343
20.9814 11.427 0.345
21.0019 11.240 0.342
21.0224 11.125 0.340
21.0428 11.417 0.345
21.0633 10.875 0.337
21.0838 10.292 0.327
21.1042 10.240 0.327
21.1247 10.302 0.328
21.1452 10.396 0.329
21.1656 10.188 0.326
21.1861 9.698 0.318
21.2065 10.240 0.327
21.2270 9.823 0.320
21.2475 10.750 0.335
21.2679 10.073 0.324
21.2884 10.552 0.332
21.3089 10.573 0.332
21.3293 10.063 0.324
21.3498 10.021 0.323
21.3702 10.448 0.330
21.3907 10.125 0.325
21.4112 10.646 0.333
21.4316 10.948 0.338
21.4521 10.719 0.334
21.4726 9.792 0.319
21.4930 9.438 0.314
21.5135 10.490 0.331
21.5339 10.563 0.332
21.5544 10.510 0.331
21.5749 10.219 0.326
21.5953 10.135 0.325
21.6158 9.896 0.321
21.6363 9.760 0.319
21.6567 9.583 0.316
21.6772 9.802 0.320
21.6976 9.760 0.319
21.7181 9.604 0.316
21.7386 10.479 0.330
21.7590 10.125 0.325
21.7795 9.927 0.322
21.8000 9.167 0.309
21.8204 9.833 0.320
21.8409 9.396 0.313
21.8613 10.396 0.329
21.8818 9.646 0.317
21.9023 10.375 0.329
21.9227 10.677 0.333
21.9432 10.250 0.327
21.9637 10.198 0.326
21.9841 11.083 0.340
22.0046 11.354 0.344
22.0251 11.479 0.346
22.0455 12.177 0.356
22.0660 13.135 0.370
22.0864 13.594 0.376
22.1069 14.083 0.383
22.1274 15.240 0.398
22.1478 15.469 0.401
22.1683 15.635 0.404
22.1888 17.271 0.424
22.2092 18.156 0.435
22.2297 17.615 0.428
22.2501 16.792 0.418
22.2706 15.635 0.404
22.2911 14.552 0.389
22.3115 13.552 0.376
22.3320 13.708 0.378
22.3525 12.583 0.362
22.3729 11.958 0.353
22.3934 10.917 0.337
22.4138 11.677 0.349
22.4343 11.073 0.340
22.4548 10.573 0.332
22.4752 10.750 0.335
22.4957 10.250 0.327
22.5162 10.813 0.336
22.5366 10.240 0.327
22.5571 10.521 0.331
22.5775 10.396 0.329
22.5980 10.719 0.334
22.6185 10.813 0.336
22.6389 10.938 0.338
22.6594 10.740 0.334
22.6799 10.917 0.337
22.7003 10.771 0.335
22.7208 11.094 0.340
22.7412 10.823 0.336
22.7617 11.354 0.344
22.7822 11.813 0.351
22.8026 12.417 0.360
22.8231 14.042 0.382
22.8436 15.344 0.400
22.8640 19.458 0.450
22.8845 26.042 0.521
22.9050 32.854 0.585
22.9254 32.646 0.583
22.9459 28.615 0.546
22.9663 24.667 0.507
22.9868 21.115 0.469
23.0073 16.573 0.415
23.0277 13.042 0.369
23.0482 11.469 0.346
23.0687 11.854 0.351
23.0891 11.479 0.346
23.1096 10.333 0.328
23.1300 9.875 0.321
23.1505 10.146 0.325
23.1710 10.573 0.332
23.1914 9.771 0.319
23.2119 9.583 0.316
23.2324 9.375 0.313
23.2528 9.896 0.321
23.2733 9.781 0.319
23.2937 10.458 0.330
23.3142 9.229 0.310
23.3347 9.750 0.319
23.3551 9.760 0.319
23.3756 9.448 0.314
23.3961 9.260 0.311
23.4165 10.438 0.330
23.4370 9.729 0.318
23.4574 10.177 0.326
23.4779 10.479 0.330
23.4984 9.781 0.319
23.5188 10.010 0.323
23.5393 9.490 0.314
23.5598 10.938 0.338
23.5802 11.031 0.339
23.6007 12.531 0.361
23.6211 14.021 0.382
23.6416 17.677 0.429
23.6621 21.698 0.475
23.6825 23.615 0.496
23.7030 22.115 0.480
23.7235 22.021 0.479
23.7439 22.542 0.485
23.7644 17.969 0.433
23.7849 15.063 0.396
23.8053 13.813 0.379
23.8258 12.250 0.357
23.8462 10.281 0.327
23.8667 10.010 0.323
23.8872 9.542 0.315
23.9076 9.073 0.307
23.9281 9.667 0.317
23.9486 9.396 0.313
23.9690 9.417 0.313
23.9895 9.583 0.316
24.0099 9.542 0.315
24.0304 8.792 0.303
24.0509 9.208 0.310
24.0713 8.823 0.303
24.0918 9.104 0.308
24.1123 9.792 0.319
24.1327 9.854 0.320
24.1532 9.917 0.321
24.1736 10.125 0.325
24.1941 10.479 0.330
24.2146 10.156 0.325
24.2350 9.719 0.318
24.2555 9.031 0.307
24.2760 9.427 0.313
24.2964 9.667 0.317
24.3169 8.906 0.305
24.3373 9.115 0.308
24.3578 9.042 0.307
24.3783 9.146 0.309
24.3987 8.844 0.304
24.4192 9.208 0.310
24.4397 8.948 0.305
24.4601 8.750 0.302
24.4806 8.365 0.295
24.5011 9.219 0.310
24.5215 8.979 0.306
24.5420 8.875 0.304
24.5624 9.167 0.309
24.5829 9.521 0.315
24.6034 9.104 0.308
24.6238 10.365 0.329
24.6443 10.271 0.327
24.6648 11.573 0.347
24.6852 12.958 0.367
24.7057 12.771 0.365
24.7261 11.635 0.348
24.7466 11.479 0.346
24.7671 11.052 0.339
24.7875 10.719 0.334
24.8080 9.365 0.312
24.8285 9.969 0.322
24.8489 9.281 0.311
24.8694 9.250 0.310
24.8898 8.927 0.305
24.9103 9.125 0.308
24.9308 8.823 0.303
24.9512 8.698 0.301
24.9717 9.073 0.307
24.9922 8.938 0.305
25.0126 9.354 0.312
25.0331 9.510 0.315
25.0535 8.719 0.301
25.0740 9.125 0.308
25.0945 8.552 0.298
25.1149 8.625 0.300
25.1354 8.438 0.296
25.1559 8.708 0.301
25.1763 8.625 0.300
25.1968 8.677 0.301
25.2172 8.604 0.299
25.2377 8.531 0.298
25.2582 8.604 0.299
25.2786 8.156 0.291
25.2991 8.917 0.305
25.3196 8.542 0.298
25.3400 8.427 0.296
25.3605 8.146 0.291
25.3810 8.802 0.303
25.4014 8.375 0.295
25.4219 8.333 0.295
25.4423 9.063 0.307
25.4628 8.896 0.304
25.4833 9.271 0.311
25.5037 9.573 0.316
25.5242 10.833 0.336
25.5447 12.865 0.366
25.5651 15.542 0.402
25.5856 18.083 0.434
25.6060 18.094 0.434
25.6265 16.854 0.419
25.6470 14.365 0.387
25.6674 14.417 0.388
25.6879 11.792 0.350
25.7084 10.094 0.324
25.7288 9.552 0.315
25.7493 9.010 0.306
25.7697 9.323 0.312
25.7902 8.292 0.294
25.8107 8.167 0.292
25.8311 8.031 0.289
25.8516 8.573 0.299
25.8721 7.677 0.283
25.8925 7.677 0.283
25.9130 8.031 0.289
25.9334 8.385 0.296
25.9539 8.208 0.292
25.9744 7.896 0.287
25.9948 7.438 0.278
26.0153 7.958 0.288
26.0358 7.729 0.284
26.0562 8.010 0.289
26.0767 7.490 0.279
26.0971 7.792 0.285
26.1176 7.448 0.279
26.1381 8.052 0.290
26.1585 7.615 0.282
26.1790 7.646 0.282
26.1995 7.469 0.279
26.2199 7.573 0.281
26.2404 7.240 0.275
26.2609 7.667 0.283
26.2813 7.844 0.286
26.3018 8.500 0.298
26.3222 7.813 0.285
26.3427 7.823 0.285
26.3632 7.656 0.282
26.3836 7.729 0.284
26.4041 7.594 0.281
26.4246 7.708 0.283
26.4450 7.396 0.278
26.4655 7.833 0.286
26.4859 7.979 0.288
26.5064 7.896 0.287
26.5269 7.938 0.288
26.5473 8.010 0.289
26.5678 7.760 0.284
26.5883 7.344 0.277
26.6087 7.865 0.286
26.6292 7.438 0.278
26.6496 7.531 0.280
26.6701 7.802 0.285
26.6906 7.000 0.270
26.7110 8.115 0.291
26.7315 7.469 0.279
26.7520 7.583 0.281
26.7724 7.719 0.284
26.7929 7.854 0.286
26.8133 7.833 0.286
26.8338 7.531 0.280
26.8543 7.146 0.273
26.8747 8.625 0.300
26.8952 8.135 0.291
26.9157 7.563 0.281
26.9361 7.958 0.288
26.9566 7.615 0.282
26.9770 7.927 0.287
26.9975 7.635 0.282
27.0180 7.948 0.288
27.0384 8.115 0.291
27.0589 8.240 0.293
27.0794 7.906 0.287
27.0998 8.063 0.290
27.1203 8.500 0.298
27.1408 8.438 0.296
27.1612 8.896 0.304
27.1817 8.208 0.292
27.2021 9.094 0.308
27.2226 8.906 0.305
27.2431 9.271 0.311
27.2635 10.115 0.325
27.2840 9.458 0.314
27.3045 8.979 0.306
27.3249 9.729 0.318
27.3454 8.833 0.303
27.3658 9.396 0.313
27.3863 10.490 0.331
27.4068 10.844 0.336
27.4272 11.427 0.345
27.4477 12.417 0.360
27.4682 14.458 0.388
27.4886 14.823 0.393
27.5091 14.604 0.390
27.5295 12.396 0.359
27.5500 11.542 0.347
27.5705 11.469 0.346
27.5909 9.500 0.315
27.6114 9.260 0.311
27.6319 8.885 0.304
27.6523 8.760 0.302
27.6728 8.333 0.295
27.6932 7.990 0.288
27.7137 7.885 0.287
27.7342 8.083 0.290
27.7546 7.708 0.283
27.7751 7.427 0.278
27.7956 8.000 0.289
27.8160 7.865 0.286
27.8365 8.042 0.289
27.8569 8.156 0.291
27.8774 8.000 0.289
27.8979 7.656 0.282
27.9183 7.302 0.276
27.9388 7.677 0.283
27.9593 7.615 0.282
27.9797 7.906 0.287
28.0002 7.479 0.279
28.0207 7.583 0.281
28.0411 6.833 0.267
28.0616 7.781 0.285
28.0820 7.542 0.280
28.1025 7.417 0.278
28.1230 7.781 0.285
28.1434 7.177 0.273
28.1639 7.125 0.272
28.1844 7.000 0.270
28.2048 7.427 0.278
28.2253 7.396 0.278
28.2457 6.677 0.264
28.2662 7.240 0.275
28.2867 7.490 0.279
28.3071 7.354 0.277
28.3276 7.406 0.278
28.3481 7.292 0.276
28.3685 7.594 0.281
28.3890 7.677 0.283
28.4094 7.208 0.274
28.4299 7.219 0.274
28.4504 7.813 0.285
28.4708 7.594 0.281
28.4913 7.688 0.283
28.5118 7.292 0.276
28.5322 7.448 0.279
28.5527 6.948 0.269
28.5731 7.177 0.273
28.5936 7.406 0.278
28.6141 7.729 0.284
28.6345 7.406 0.278
28.6550 7.000 0.270
28.6755 7.323 0.276
28.6959 7.479 0.279
28.7164 7.823 0.285
28.7368 7.583 0.281
28.7573 7.833 0.286
28.7778 6.969 0.269
28.7982 7.125 0.272
28.8187 7.302 0.276
28.8392 7.438 0.278
28.8596 7.469 0.279
28.8801 6.781 0.266
28.9006 7.594 0.281
28.9210 7.083 0.272
28.9415 7.563 0.281
28.9619 7.448 0.279
28.9824 7.344 0.277
29.0029 7.302 0.276
29.0233 6.813 0.266
29.0438 7.313 0.276
29.0643 6.563 0.261
29.0847 6.979 0.270
29.1052 7.052 0.271
29.1256 6.594 0.262
29.1461 7.010 0.270
29.1666 6.354 0.257
29.1870 7.344 0.277
29.2075 7.094 0.272
29.2280 6.604 0.262
29.2484 6.802 0.266
29.2689 7.031 0.271
29.2893 6.802 0.266
29.3098 6.813 0.266
29.3303 7.146 0.273
29.3507 7.031 0.271
29.3712 7.104 0.272
29.3917 7.323 0.276
29.4121 7.000 0.270
29.4326 7.115 0.272
29.4530 7.542 0.280
29.4735 7.115 0.272
29.4940 7.323 0.276
29.5144 7.948 0.288
29.5349 7.594 0.281
29.5554 8.500 0.298
29.5758 9.198 0.310
29.5963 9.583 0.316
29.6168 8.792 0.303
29.6372 8.698 0.301
29.6577 8.385 0.296
29.6781 8.552 0.298
29.6986 7.969 0.288
29.7191 7.594 0.281
29.7395 7.302 0.276
29.7600 7.010 0.270
29.7805 7.260 0.275
29.8009 6.906 0.268
29.8214 7.052 0.271
29.8418 7.188 0.274
29.8623 6.979 0.270
29.8828 6.802 0.266
29.9032 6.896 0.268
29.9237 7.104 0.272
29.9442 7.333 0.276
29.9646 6.875 0.268
29.9851 7.073 0.271
30.0055 6.594 0.262
30.0260 6.865 0.267
30.0465 6.656 0.263
30.0669 7.052 0.271
30.0874 6.958 0.269
30.1079 6.969 0.269
30.1283 6.719 0.265
30.1488 6.698 0.264
30.1692 6.740 0.265
30.1897 6.896 0.268
30.2102 6.823 0.267
30.2306 6.688 0.264
30.2511 6.969 0.269
30.2716 6.458 0.259
30.2920 6.583 0.262
30.3125 6.813 0.266
30.3329 7.042 0.271
30.3534 6.542 0.261
30.3739 6.698 0.264
30.3943 6.865 0.267
30.4148 7.094 0.272
30.4353 6.792 0.266
30.4557 7.073 0.271
30.4762 7.354 0.277
30.4967 6.917 0.268
30.5171 7.302 0.276
30.5376 7.021 0.270
30.5580 7.396 0.278
30.5785 7.646 0.282
30.5990 7.969 0.288
30.6194 7.625 0.282
30.6399 7.344 0.277
30.6604 7.927 0.287
30.6808 7.958 0.288
30.7013 8.573 0.299
30.7217 8.406 0.296
30.7422 8.823 0.303
30.7627 8.063 0.290
30.7831 8.021 0.289
30.8036 8.781 0.302
30.8241 8.542 0.298
30.8445 9.135 0.308
30.8650 8.875 0.304
30.8854 9.563 0.316
30.9059 9.792 0.319
30.9264 11.135 0.341
30.9468 11.781 0.350
30.9673 13.396 0.374
30.9878 16.802 0.418
31.0082 20.385 0.461
31.0287 22.917 0.489
31.0491 25.302 0.513
31.0696 24.813 0.508
31.0901 24.271 0.503
31.1105 23.208 0.492
31.1310 22.083 0.480
31.1515 19.271 0.448
31.1719 17.042 0.421
31.1924 14.958 0.395
31.2128 13.042 0.369
31.2333 11.604 0.348
31.2538 10.115 0.325
31.2742 10.417 0.329
31.2947 10.010 0.323
31.3152 9.906 0.321
31.3356 8.563 0.299
31.3561 8.146 0.291
31.3766 8.510 0.298
31.3970 8.490 0.297
31.4175 8.427 0.296
31.4379 8.260 0.293
31.4584 8.083 0.290
31.4789 8.042 0.289
31.4993 8.521 0.298
31.5198 8.188 0.292
31.5403 7.833 0.286
31.5607 7.490 0.279
31.5812 7.740 0.284
31.6016 7.594 0.281
31.6221 7.458 0.279
31.6426 7.448 0.279
31.6630 7.927 0.287
31.6835 7.365 0.277
31.7040 7.781 0.285
31.7244 7.094 0.272
31.7449 7.427 0.278
31.7653 7.510 0.280
31.7858 7.552 0.280
31.8063 7.844 0.286
31.8267 9.000 0.306
31.8472 8.823 0.303
31.8677 8.542 0.298
31.8881 8.104 0.291
31.9086 8.354 0.295
31.9290 8.000 0.289
31.9495 8.646 0.300
31.9700 8.740 0.302
31.9904 8.552 0.298
32.0109 8.240 0.293
32.0314 8.177 0.292
32.0518 7.833 0.286
32.0723 8.510 0.298
32.0927 8.792 0.303
32.1132 9.521 0.315
32.1337 9.969 0.322
32.1541 10.865 0.336
32.1746 12.438 0.360
32.1951 17.365 0.425
32.2155 20.406 0.461
32.2360 21.542 0.474
32.2565 18.490 0.439
32.2769 17.104 0.422
32.2974 15.729 0.405
32.3178 16.021 0.409
32.3383 13.615 0.377
32.3588 11.417 0.345
32.3792 10.406 0.329
32.3997 9.833 0.320
32.4202 9.729 0.318
32.4406 9.760 0.319
32.4611 9.385 0.313
32.4815 9.354 0.312
32.5020 10.250 0.327
32.5225 10.292 0.327
32.5429 11.146 0.341
32.5634 11.385 0.344
32.5839 11.135 0.341
32.6043 11.219 0.342
32.6248 12.000 0.354
32.6452 12.010 0.354
32.6657 11.854 0.351
32.6862 11.104 0.340
32.7066 11.177 0.341
32.7271 10.646 0.333
32.7476 9.917 0.321
32.7680 9.927 0.322
32.7885 9.688 0.318
32.8089 9.083 0.308
32.8294 8.823 0.303
32.8499 8.833 0.303
32.8703 8.594 0.299
32.8908 8.010 0.289
32.9113 8.448 0.297
32.9317 8.854 0.304
32.9522 8.031 0.289
32.9726 8.271 0.294
32.9931 8.031 0.289
33.0136 7.979 0.288
33.0340 8.104 0.291
33.0545 8.531 0.298
33.0750 7.500 0.280
33.0954 7.844 0.286
33.1159 8.490 0.297
33.1364 8.510 0.298
33.1568 9.344 0.312
33.1773 9.938 0.322
33.1977 9.271 0.311
33.2182 8.615 0.300
33.2387 9.063 0.307
33.2591 8.938 0.305
33.2796 8.625 0.300
33.3001 8.844 0.304
33.3205 8.760 0.302
33.3410 9.188 0.309
33.3614 10.260 0.327
33.3819 9.719 0.318
33.4024 9.292 0.311
33.4228 9.302 0.311
33.4433 8.875 0.304
33.4638 9.271 0.311
33.4842 8.417 0.296
33.5047 7.677 0.283
33.5251 7.552 0.280
33.5456 8.031 0.289
33.5661 8.156 0.291
33.5865 7.688 0.283
33.6070 7.438 0.278
33.6275 7.615 0.282
33.6479 7.656 0.282
33.6684 7.938 0.288
33.6888 8.125 0.291
33.7093 8.677 0.301
33.7298 10.531 0.331
33.7502 9.771 0.319
33.7707 9.354 0.312
33.7912 8.698 0.301
33.8116 8.729 0.302
33.8321 8.698 0.301
33.8526 7.938 0.288
33.8730 6.979 0.270
33.8935 7.073 0.271
33.9139 6.823 0.267
33.9344 6.958 0.269
33.9549 6.927 0.269
33.9753 7.490 0.279
33.9958 6.875 0.268
34.0163 7.167 0.273
34.0367 7.438 0.278
34.0572 7.479 0.279
34.0776 7.365 0.277
34.0981 6.927 0.269
34.1186 7.615 0.282
34.1390 7.740 0.284
34.1595 8.563 0.299
34.1800 9.135 0.308
34.2004 10.510 0.331
34.2209 11.948 0.353
34.2413 13.052 0.369
34.2618 12.198 0.356
34.2823 10.667 0.333
34.3027 9.990 0.323
34.3232 10.292 0.327
34.3437 9.229 0.310
34.3641 8.792 0.303
34.3846 7.594 0.281
34.4050 7.563 0.281
34.4255 7.146 0.273
34.4460 7.260 0.275
34.4664 6.979 0.270
34.4869 7.833 0.286
34.5074 7.260 0.275
34.5278 7.031 0.271
34.5483 7.604 0.281
34.5687 7.240 0.275
34.5892 7.125 0.272
34.6097 6.917 0.268
34.6301 7.448 0.279
34.6506 7.052 0.271
34.6711 7.344 0.277
34.6915 7.250 0.275
34.7120 7.510 0.280
34.7325 7.750 0.284
34.7529 7.708 0.283
34.7734 7.448 0.279
34.7938 7.875 0.286
34.8143 8.365 0.295
34.8348 8.573 0.299
34.8552 8.844 0.304
34.8757 10.188 0.326
34.8962 11.646 0.348
34.9166 14.771 0.392
34.9371 18.406 0.438
34.9575 22.635 0.486
34.9780 23.104 0.491
34.9985 20.302 0.460
35.0189 16.823 0.419
35.0394 16.135 0.410
35.0599 17.729 0.430
35.0803 15.906 0.407
35.1008 12.417 0.360
35.1212 10.677 0.333
35.1417 9.458 0.314
35.1622 8.948 0.305
35.1826 8.802 0.303
35.2031 8.542 0.298
35.2236 8.896 0.304
35.2440 8.167 0.292
35.2645 7.969 0.288
35.2849 7.938 0.288
35.3054 7.917 0.287
35.3259 7.802 0.285
35.3463 8.083 0.290
35.3668 8.063 0.290
35.3873 7.573 0.281
35.4077 7.510 0.280
35.4282 7.802 0.285
35.4486 7.573 0.281
35.4691 7.958 0.288
35.4896 7.479 0.279
35.5100 8.385 0.296
35.5305 8.417 0.296
35.5510 8.156 0.291
35.5714 8.021 0.289
35.5919 7.865 0.286
35.6124 7.906 0.287
35.6328 7.667 0.283
35.6533 7.781 0.285
35.6737 7.521 0.280
35.6942 7.750 0.284
35.7147 7.583 0.281
35.7351 7.917 0.287
35.7556 8.063 0.290
35.7761 8.115 0.291
35.7965 8.177 0.292
35.8170 8.667 0.300
35.8374 7.885 0.287
35.8579 8.052 0.290
35.8784 8.323 0.294
35.8988 8.729 0.302
35.9193 8.875 0.304
35.9398 8.948 0.305
35.9602 9.135 0.308
35.9807 9.125 0.308
36.0011 10.344 0.328
36.0216 10.125 0.325
36.0421 10.156 0.325
36.0625 11.698 0.349
36.0830 12.521 0.361
36.1035 12.208 0.357
36.1239 11.990 0.353
36.1444 12.833 0.366
36.1648 13.240 0.371
36.1853 13.646 0.377
36.2058 12.604 0.362
36.2262 12.938 0.367
36.2467 12.771 0.365
36.2672 12.906 0.367
36.2876 13.104 0.369
36.3081 13.198 0.371
36.3285 13.896 0.380
36.3490 13.479 0.375
36.3695 12.906 0.367
36.3899 13.365 0.373
36.4104 13.865 0.380
36.4309 13.927 0.381
36.4513 13.063 0.369
36.4718 14.469 0.388
36.4923 14.708 0.391
36.5127 14.781 0.392
36.5332 14.656 0.391
36.5536 15.688 0.404
36.5741 16.552 0.415
36.5946 18.052 0.434
36.6150 17.542 0.427
36.6355 18.219 0.436
36.6560 16.677 0.417
36.6764 16.479 0.414
36.6969 16.229 0.411
36.7173 16.115 0.410
36.7378 14.271 0.386
36.7583 14.094 0.383
36.7787 13.969 0.381
36.7992 13.458 0.374
36.8197 13.490 0.375
36.8401 12.885 0.366
36.8606 14.167 0.384
36.8810 13.135 0.370
36.9015 13.563 0.376
36.9220 13.646 0.377
36.9424 13.958 0.381
36.9629 13.708 0.378
36.9834 13.958 0.381
37.0038 14.052 0.383
37.0243 15.865 0.407
37.0447 15.427 0.401
37.0652 16.417 0.414
37.0857 16.927 0.420
37.1061 16.813 0.418
37.1266 17.292 0.424
37.1471 16.656 0.417
37.1675 15.938 0.407
37.1880 15.615 0.403
37.2084 16.302 0.412
37.2289 15.229 0.398
37.2494 14.156 0.384
37.2698 16.031 0.409
37.2903 14.010 0.382
37.3108 14.125 0.384
37.3312 12.646 0.363
37.3517 12.729 0.364
37.3722 12.677 0.363
37.3926 11.625 0.348
37.4131 10.969 0.338
37.4335 11.688 0.349
37.4540 11.500 0.346
37.4745 10.917 0.337
37.4949 10.500 0.331
37.5154 10.865 0.336
37.5359 10.625 0.333
37.5563 10.219 0.326
37.5768 10.240 0.327
37.5972 9.875 0.321
37.6177 10.438 0.330
37.6382 10.365 0.329
37.6586 10.125 0.325
37.6791 9.531 0.315
37.6996 9.969 0.322
37.7200 10.417 0.329
37.7405 9.531 0.315
37.7609 9.677 0.317
37.7814 10.188 0.326
37.8019 9.500 0.315
37.8223 10.271 0.327
37.8428 9.688 0.318
37.8633 10.177 0.326
37.8837 9.740 0.319
37.9042 10.188 0.326
37.9246 9.677 0.317
37.9451 10.323 0.328
37.9656 10.094 0.324
37.9860 10.781 0.335
38.0065 10.021 0.323
38.0270 11.438 0.345
38.0474 11.219 0.342
38.0679 11.208 0.342
38.0884 10.948 0.338
38.1088 11.073 0.340
38.1293 11.344 0.344
38.1497 11.250 0.342
38.1702 10.938 0.338
38.1907 11.531 0.347
38.2111 10.719 0.334
38.2316 10.479 0.330
38.2521 11.385 0.344
38.2725 10.781 0.335
38.2930 11.052 0.339
38.3134 11.375 0.344
38.3339 10.781 0.335
38.3544 10.823 0.336
38.3748 10.573 0.332
38.3953 11.635 0.348
38.4158 10.948 0.338
38.4362 10.938 0.338
38.4567 11.010 0.339
38.4771 10.656 0.333
38.4976 10.292 0.327
38.5181 10.125 0.325
38.5385 10.417 0.329
38.5590 9.927 0.322
38.5795 9.240 0.310
38.5999 9.438 0.314
38.6204 9.885 0.321
38.6408 9.302 0.311
38.6613 9.115 0.308
38.6818 8.917 0.305
38.7022 9.094 0.308
38.7227 9.063 0.307
38.7432 9.313 0.311
38.7636 8.750 0.302
38.7841 8.625 0.300
38.8045 8.458 0.297
38.8250 8.719 0.301
38.8455 8.260 0.293
38.8659 8.552 0.298
38.8864 8.958 0.305
38.9069 7.906 0.287
38.9273 8.125 0.291
38.9478 8.563 0.299
38.9683 8.427 0.296
38.9887 8.729 0.302
39.0092 8.271 0.294
39.0296 9.052 0.307
39.0501 8.708 0.301
39.0706 9.125 0.308
39.0910 8.969 0.306
39.1115 8.594 0.299
39.1320 8.281 0.294
39.1524 8.635 0.300
39.1729 8.896 0.304
39.1933 8.167 0.292
39.2138 8.198 0.292
39.2343 8.042 0.289
39.2547 8.260 0.293
39.2752 8.396 0.296
39.2957 8.646 0.300
39.3161 8.333 0.295
39.3366 8.583 0.299
39.3570 8.479 0.297
39.3775 8.365 0.295
39.3980 8.365 0.295
39.4184 7.729 0.284
39.4389 9.052 0.307
39.4594 8.604 0.299
39.4798 8.063 0.290
39.5003 8.021 0.289
39.5207 8.344 0.295
39.5412 8.083 0.290
39.5617 8.448 0.297
39.5821 8.500 0.298
39.6026 8.260 0.293
39.6231 8.396 0.296
39.6435 8.802 0.303
39.6640 8.792 0.303
39.6844 8.781 0.302
39.7049 8.594 0.299
39.7254 8.854 0.304
39.7458 9.167 0.309
39.7663 9.271 0.311
39.7868 9.552 0.315
39.8072 10.073 0.324
39.8277 9.625 0.317
39.8482 9.271 0.311
39.8686 9.052 0.307
39.8891 8.698 0.301
39.9095 9.115 0.308
39.9300 9.573 0.316
39.9505 8.802 0.303
39.9709 8.552 0.298
39.9914 8.729 0.302
40.0119 8.094 0.290
40.0323 7.615 0.282
40.0528 8.427 0.296
40.0732 7.854 0.286
40.0937 8.104 0.291
40.1142 8.250 0.293
40.1346 8.115 0.291
40.1551 8.260 0.293
40.1756 7.979 0.288
40.1960 8.083 0.290
40.2165 7.448 0.279
40.2369 8.552 0.298
40.2574 8.094 0.290
40.2779 8.396 0.296
40.2983 9.063 0.307
40.3188 9.563 0.316
40.3393 9.677 0.317
40.3597 9.906 0.321
40.3802 9.885 0.321
40.4006 9.427 0.313
40.4211 9.219 0.310
40.4416 8.969 0.306
40.4620 8.667 0.300
40.4825 8.802 0.303
40.5030 9.156 0.309
40.5234 8.375 0.295
40.5439 9.073 0.307
40.5643 8.594 0.299
40.5848 8.833 0.303
40.6053 8.500 0.298
40.6257 9.250 0.310
40.6462 9.177 0.309
40.6667 9.531 0.315
40.6871 9.958 0.322
40.7076 10.760 0.335
40.7281 11.781 0.350
40.7485 13.479 0.375
40.7690 15.677 0.404
40.7894 17.583 0.428
40.8099 19.021 0.445
40.8304 19.542 0.451
40.8508 16.896 0.420
40.8713 14.802 0.393
40.8918 15.125 0.397
40.9122 14.469 0.388
40.9327 15.000 0.395
40.9531 12.844 0.366
40.9736 10.938 0.338
40.9941 9.958 0.322
41.0145 9.198 0.310
41.0350 8.573 0.299
41.0555 8.958 0.305
41.0759 9.167 0.309
41.0964 8.948 0.305
41.1168 9.188 0.309
41.1373 9.167 0.309
41.1578 8.854 0.304
41.1782 8.896 0.304
41.1987 9.865 0.321
41.2192 9.229 0.310
41.2396 9.563 0.316
41.2601 9.781 0.319
41.2805 9.833 0.320
41.3010 9.146 0.309
41.3215 9.063 0.307
41.3419 8.521 0.298
41.3624 8.552 0.298
41.3829 9.156 0.309
41.4033 8.875 0.304
41.4238 8.417 0.296
41.4442 8.229 0.293
41.4647 8.813 0.303
41.4852 8.302 0.294
41.5056 8.740 0.302
41.5261 9.146 0.309
41.5466 9.594 0.316
41.5670 10.323 0.328
41.5875 10.271 0.327
41.6080 9.521 0.315
41.6284 9.490 0.314
41.6489 9.490 0.314
41.6693 9.792 0.319
41.6898 9.823 0.320
41.7103 9.417 0.313
41.7307 8.698 0.301
41.7512 9.344 0.312
41.7717 9.448 0.314
41.7921 9.813 0.320
41.8126 10.313 0.328
41.8330 10.302 0.328
41.8535 12.219 0.357
41.8740 13.000 0.368
41.8944 14.583 0.390
41.9149 14.396 0.387
41.9354 12.385 0.359
41.9558 10.635 0.333
41.9763 11.042 0.339
41.9967 10.938 0.338
42.0172 11.344 0.344
42.0377 10.458 0.330
42.0581 8.958 0.305
42.0786 8.354 0.295
42.0991 8.375 0.295
42.1195 7.500 0.280
42.1400 7.875 0.286
42.1604 7.583 0.281
42.1809 7.656 0.282
42.2014 7.740 0.284
42.2218 7.771 0.285
42.2423 7.333 0.276
42.2628 8.073 0.290
42.2832 7.719 0.284
42.3037 7.990 0.288
42.3242 7.885 0.287
42.3446 7.958 0.288
42.3651 8.427 0.296
42.3855 8.094 0.290
42.4060 8.323 0.294
42.4265 8.271 0.294
42.4469 8.167 0.292
42.4674 8.333 0.295
42.4879 8.646 0.300
42.5083 9.042 0.307
42.5288 8.917 0.305
42.5492 8.969 0.306
42.5697 8.792 0.303
42.5902 9.010 0.306
42.6106 8.792 0.303
42.6311 8.583 0.299
42.6516 8.896 0.304
42.6720 8.521 0.298
42.6925 8.094 0.290
42.7129 8.948 0.305
42.7334 8.813 0.303
42.7539 8.906 0.305
42.7743 9.010 0.306
42.7948 7.760 0.284
42.8153 8.083 0.290
42.8357 8.104 0.291
42.8562 8.292 0.294
42.8766 8.552 0.298
42.8971 8.010 0.289
42.9176 7.427 0.278
42.9380 8.135 0.291
42.9585 7.792 0.285
42.9790 8.313 0.294
42.9994 7.615 0.282
43.0199 7.417 0.278
43.0403 7.688 0.283
43.0608 7.229 0.274
43.0813 7.750 0.284
43.1017 7.948 0.288
43.1222 7.573 0.281
43.1427 7.813 0.285
43.1631 7.656 0.282
43.1836 7.906 0.287
43.2041 7.823 0.285
43.2245 7.573 0.281
43.2450 7.750 0.284
43.2654 8.688 0.301
43.2859 7.313 0.276
43.3064 8.208 0.292
43.3268 8.000 0.289
43.3473 8.427 0.296
43.3678 8.740 0.302
43.3882 8.938 0.305
43.4087 8.823 0.303
43.4291 9.031 0.307
43.4496 8.865 0.304
43.4701 8.573 0.299
43.4905 8.771 0.302
43.5110 8.833 0.303
43.5315 9.563 0.316
43.5519 9.542 0.315
43.5724 9.521 0.315
43.5928 9.833 0.320
43.6133 10.229 0.326
43.6338 10.594 0.332
43.6542 10.396 0.329
43.6747 10.031 0.323
43.6952 10.302 0.328
43.7156 11.188 0.341
43.7361 10.500 0.331
43.7565 9.875 0.321
43.7770 10.719 0.334
43.7975 10.375 0.329
43.8179 9.719 0.318
43.8384 9.771 0.319
43.8589 10.208 0.326
43.8793 9.875 0.321
43.8998 9.948 0.322
43.9202 9.656 0.317
43.9407 8.990 0.306
43.9612 8.333 0.295
43.9816 9.021 0.307
44.0021 8.542 0.298
44.0226 8.073 0.290
44.0430 8.344 0.295
44.0635 8.531 0.298
44.0840 7.385 0.277
44.1044 7.573 0.281
44.1249 7.188 0.274
44.1453 6.792 0.266
44.1658 8.010 0.289
44.1863 8.021 0.289
44.2067 7.000 0.270
44.2272 7.531 0.280
44.2477 7.052 0.271
44.2681 7.385 0.277
44.2886 7.208 0.274
44.3090 7.063 0.271
44.3295 7.719 0.284
44.3500 6.813 0.266
44.3704 7.010 0.270
44.3909 6.990 0.270
44.4114 7.646 0.282
44.4318 7.490 0.279
44.4523 7.188 0.274
44.4727 7.094 0.272
44.4932 7.542 0.280
44.5137 7.542 0.280
44.5341 7.479 0.279
44.5546 7.635 0.282
44.5751 7.333 0.276
44.5955 7.490 0.279
44.6160 7.219 0.274
44.6364 7.583 0.281
44.6569 7.104 0.272
44.6774 6.875 0.268
44.6978 7.667 0.283
44.7183 6.979 0.270
44.7388 7.094 0.272
44.7592 7.365 0.277
44.7797 6.948 0.269
44.8001 6.990 0.270
44.8206 6.990 0.270
44.8411 7.260 0.275
44.8615 7.031 0.271
44.8820 6.646 0.263
44.9025 7.198 0.274
44.9229 7.083 0.272
44.9434 6.844 0.267
44.9639 6.979 0.270
44.9843 6.844 0.267
45.0048 6.719 0.265
45.0252 7.094 0.272
45.0457 6.760 0.265
45.0662 6.792 0.266
45.0866 7.250 0.275
45.1071 6.958 0.269
45.1276 7.427 0.278
45.1480 7.813 0.285
45.1685 7.948 0.288
45.1889 7.844 0.286
45.2094 7.948 0.288
45.2299 7.271 0.275
45.2503 7.521 0.280
45.2708 8.052 0.290
45.2913 8.385 0.296
45.3117 8.094 0.290
45.3322 7.677 0.283
45.3526 8.031 0.289
45.3731 7.729 0.284
45.3936 7.875 0.286
45.4140 7.250 0.275
45.4345 6.927 0.269
45.4550 7.188 0.274
45.4754 7.125 0.272
45.4959 6.708 0.264
45.5163 6.729 0.265
45.5368 6.396 0.258
45.5573 6.625 0.263
45.5777 6.740 0.265
45.5982 6.656 0.263
45.6187 6.969 0.269
45.6391 6.583 0.262
45.6596 6.531 0.261
45.6800 6.979 0.270
45.7005 6.813 0.266
45.7210 6.365 0.257
45.7414 6.802 0.266
45.7619 7.125 0.272
45.7824 6.281 0.256
45.8028 7.094 0.272
45.8233 6.635 0.263
45.8438 6.917 0.268
45.8642 6.396 0.258
45.8847 6.771 0.266
45.9051 6.615 0.262
45.9256 7.281 0.275
45.9461 7.688 0.283
45.9665 6.625 0.263
45.9870 6.885 0.268
46.0075 6.833 0.267
46.0279 6.760 0.265
46.0484 6.594 0.262
46.0688 6.677 0.264
46.0893 6.854 0.267
46.1098 6.448 0.259
46.1302 6.708 0.264
46.1507 6.969 0.269
46.1712 6.875 0.268
46.1916 5.958 0.249
46.2121 6.500 0.260
46.2325 6.219 0.255
46.2530 6.594 0.262
46.2735 6.594 0.262
46.2939 6.813 0.266
46.3144 6.521 0.261
46.3349 6.635 0.263
46.3553 6.458 0.259
46.3758 6.969 0.269
46.3962 6.510 0.260
46.4167 6.844 0.267
46.4372 7.063 0.271
46.4576 6.510 0.260
46.4781 6.813 0.266
46.4986 6.646 0.263
46.5190 6.625 0.263
46.5395 7.083 0.272
46.5600 7.469 0.279
46.5804 8.031 0.289
46.6009 8.844 0.304
46.6213 8.969 0.306
46.6418 9.563 0.316
46.6623 8.760 0.302
46.6827 7.969 0.288
46.7032 7.969 0.288
46.7237 8.385 0.296
46.7441 8.240 0.293
46.7646 8.938 0.305
46.7850 8.229 0.293
46.8055 7.323 0.276
46.8260 7.510 0.280
46.8464 6.865 0.267
46.8669 6.677 0.264
46.8874 6.490 0.260
46.9078 6.583 0.262
46.9283 6.854 0.267
46.9487 6.354 0.257
46.9692 6.635 0.263
46.9897 6.427 0.259
47.0101 6.313 0.256
47.0306 6.573 0.262
47.0511 6.104 0.252
47.0715 6.135 0.253
47.0920 5.969 0.249
47.1124 6.573 0.262
47.1329 6.313 0.256
47.1534 6.333 0.257
47.1738 6.344 0.257
47.1943 6.333 0.257
47.2148 6.146 0.253
47.2352 5.854 0.247
47.2557 6.448 0.259
47.2761 6.167 0.253
47.2966 6.198 0.254
47.3171 6.115 0.252
47.3375 6.042 0.251
47.3580 6.708 0.264
47.3785 6.573 0.262
47.3989 5.958 0.249
47.4194 6.490 0.260
47.4399 6.490 0.260
47.4603 6.583 0.262
47.4808 6.510 0.260
47.5012 6.115 0.252
47.5217 6.458 0.259
47.5422 6.292 0.256
47.5626 7.000 0.270
47.5831 6.917 0.268
47.6036 6.719 0.265
47.6240 7.021 0.270
47.6445 6.906 0.268
47.6649 7.354 0.277
47.6854 6.656 0.263
47.7059 6.979 0.270
47.7263 6.906 0.268
47.7468 7.281 0.275
47.7673 7.542 0.280
47.7877 6.969 0.269
47.8082 6.667 0.264
47.8286 6.438 0.259
47.8491 6.125 0.253
47.8696 6.396 0.258
47.8900 6.760 0.265
47.9105 6.542 0.261
47.9310 6.031 0.251
47.9514 6.604 0.262
47.9719 6.469 0.260
47.9923 5.885 0.248
48.0128 6.563 0.261
48.0333 6.292 0.256
48.0537 6.458 0.259
48.0742 6.177 0.254
48.0947 5.719 0.244
48.1151 6.125 0.253
48.1356 6.146 0.253
48.1560 6.333 0.257
48.1765 6.219 0.255
48.1970 6.323 0.257
48.2174 6.208 0.254
48.2379 6.010 0.250
48.2584 6.396 0.258
48.2788 6.302 0.256
48.2993 5.865 0.247
48.3198 6.302 0.256
48.3402 6.552 0.261
48.3607 6.292 0.256
48.3811 6.438 0.259
48.4016 7.260 0.275
48.4221 6.490 0.260
48.4425 6.771 0.266
48.4630 6.792 0.266
48.4835 6.875 0.268
48.5039 6.031 0.251
48.5244 6.792 0.266
48.5448 6.844 0.267
48.5653 6.646 0.263
48.5858 7.031 0.271
48.6062 6.771 0.266
48.6267 6.688 0.264
48.6472 6.406 0.258
48.6676 6.500 0.260
48.6881 6.594 0.262
48.7085 6.760 0.265
48.7290 6.448 0.259
48.7495 6.292 0.256
48.7699 6.031 0.251
48.7904 6.667 0.264
48.8109 6.406 0.258
48.8313 5.750 0.245
48.8518 6.563 0.261
48.8722 6.083 0.252
48.8927 5.865 0.247
48.9132 5.781 0.245
48.9336 5.740 0.245
48.9541 6.354 0.257
48.9746 6.260 0.255
48.9950 6.500 0.260
49.0155 6.281 0.256
49.0359 6.792 0.266
49.0564 7.740 0.284
49.0769 7.448 0.279
49.0973 7.969 0.288
49.1178 8.146 0.291
49.1383 7.531 0.280
49.1587 7.146 0.273
49.1792 7.188 0.274
49.1997 6.958 0.269
49.2201 6.969 0.269
49.2406 6.677 0.264
49.2610 6.844 0.267
49.2815 6.438 0.259
49.3020 7.375 0.277
49.3224 7.635 0.282
49.3429 7.042 0.271
49.3634 7.521 0.280
49.3838 7.240 0.275
49.4043 6.833 0.267
49.4247 6.896 0.268
49.4452 6.865 0.267
49.4657 7.042 0.271
49.4861 7.594 0.281
49.5066 7.000 0.270
49.5271 6.948 0.269
49.5475 6.885 0.268
49.5680 6.688 0.264
49.5884 6.448 0.259
49.6089 7.208 0.274
49.6294 6.688 0.264
49.6498 6.906 0.268
49.6703 7.260 0.275
49.6908 6.854 0.267
49.7112 7.198 0.274
49.7317 7.427 0.278
49.7521 7.750 0.284
49.7726 8.344 0.295
49.7931 8.427 0.296
49.8135 8.438 0.296
49.8340 8.552 0.298
49.8545 8.885 0.304
49.8749 8.688 0.301
49.8954 8.760 0.302
49.9158 8.385 0.296
49.9363 8.542 0.298
49.9568 8.000 0.289
49.9772 7.781 0.285
49.9977 7.760 0.284
50.0182 7.406 0.278
50.0386 7.396 0.278
50.0591 7.615 0.282
50.0796 7.063 0.271
50.1000 7.375 0.277
50.1205 7.323 0.276
50.1409 7.271 0.275
50.1614 7.594 0.281
50.1819 7.135 0.273
50.2023 7.115 0.272
50.2228 7.729 0.284
50.2433 7.479 0.279
50.2637 7.010 0.270
50.2842 7.896 0.287
50.3046 7.594 0.281
50.3251 7.510 0.280
50.3456 6.958 0.269
50.3660 6.927 0.269
50.3865 6.813 0.266
50.4070 6.948 0.269
50.4274 7.240 0.275
50.4479 7.323 0.276
50.4683 7.031 0.271
50.4888 7.417 0.278
50.5093 7.021 0.270
50.5297 6.667 0.264
50.5502 6.698 0.264
50.5707 7.104 0.272
50.5911 7.448 0.279
50.6116 6.677 0.264
50.6320 7.104 0.272
50.6525 6.719 0.265
50.6730 6.531 0.261
50.6934 6.729 0.265
50.7139 6.292 0.256
50.7344 6.448 0.259
50.7548 6.531 0.261
50.7753 6.240 0.255
50.7958 6.333 0.257
50.8162 6.313 0.256
50.8367 6.083 0.252
50.8571 6.510 0.260
50.8776 5.990 0.250
50.8981 5.979 0.250
50.9185 6.250 0.255
50.9390 6.531 0.261
50.9595 6.604 0.262
50.9799 6.865 0.267
51.0004 6.708 0.264
51.0208 6.719 0.265
51.0413 6.573 0.262
51.0618 5.990 0.250
51.0822 6.146 0.253
51.1027 6.490 0.260
51.1232 6.146 0.253
51.1436 6.354 0.257
51.1641 6.531 0.261
51.1845 6.125 0.253
51.2050 5.917 0.248
51.2255 6.281 0.256
51.2459 6.313 0.256
51.2664 6.188 0.254
51.2869 6.073 0.252
51.3073 6.052 0.251
51.3278 6.021 0.250
51.3482 5.615 0.242
51.3687 6.115 0.252
51.3892 5.927 0.248
51.4096 5.833 0.247
51.4301 5.844 0.247
51.4506 5.635 0.242
51.4710 5.646 0.243
51.4915 5.823 0.246
51.5119 5.844 0.247
51.5324 5.594 0.241
51.5529 5.719 0.244
51.5733 6.146 0.253
51.5938 6.083 0.252
51.6143 6.531 0.261
51.6347 6.688 0.264
51.6552 6.688 0.264
51.6757 6.583 0.262
51.6961 6.583 0.262
51.7166 6.865 0.267
51.7370 5.802 0.246
51.7575 6.229 0.255
51.7780 6.271 0.256
51.7984 6.208 0.254
51.8189 5.698 0.244
51.8394 6.500 0.260
51.8598 5.635 0.242
51.8803 5.698 0.244
51.9007 6.469 0.260
51.9212 6.229 0.255
51.9417 6.208 0.254
51.9621 5.875 0.247
51.9826 5.844 0.247
52.0031 5.708 0.244
52.0235 5.781 0.245
52.0440 5.552 0.240
52.0644 5.781 0.245
52.0849 5.708 0.244
52.1054 5.302 0.235
52.1258 5.438 0.238
52.1463 5.500 0.239
52.1668 5.292 0.235
52.1872 5.458 0.238
52.2077 5.135 0.231
52.2281 5.313 0.235
52.2486 5.302 0.235
52.2691 5.531 0.240
52.2895 5.854 0.247
52.3100 5.656 0.243
52.3305 5.552 0.240
52.3509 5.135 0.231
52.3714 5.135 0.231
52.3918 5.417 0.238
52.4123 5.563 0.241
52.4328 5.167 0.232
52.4532 4.938 0.227
52.4737 5.031 0.229
52.4942 4.865 0.225
52.5146 5.177 0.232
52.5351 4.969 0.228
52.5556 4.844 0.225
52.5760 4.781 0.223
52.5965 4.583 0.219
52.6169 5.198 0.233
52.6374 5.198 0.233
52.6579 4.969 0.228
52.6783 4.802 0.224
52.6988 4.865 0.225
52.7193 4.500 0.217
52.7397 4.854 0.225
52.7602 4.688 0.221
52.7806 4.969 0.228
52.8011 4.365 0.213
52.8216 4.740 0.222
52.8420 4.667 0.220
52.8625 4.615 0.219
52.8830 4.583 0.219
52.9034 4.844 0.225
52.9239 4.969 0.228
52.9443 4.969 0.228
52.9648 5.094 0.230
52.9853 4.552 0.218
53.0057 5.010 0.228
53.0262 5.156 0.232
53.0467 5.146 0.232
53.0671 5.583 0.241
53.0876 5.396 0.237
53.1080 5.156 0.232
53.1285 5.458 0.238
53.1490 5.250 0.234
53.1694 5.510 0.240
53.1899 4.854 0.225
53.2104 4.792 0.223
53.2308 5.052 0.229
53.2513 4.885 0.226
53.2717 5.135 0.231
53.2922 4.813 0.224
53.3127 5.000 0.228
53.3331 4.833 0.224
53.3536 4.969 0.228
53.3741 4.677 0.221
53.3945 4.677 0.221
53.4150 5.010 0.228
53.4355 4.833 0.224
53.4559 4.802 0.224
53.4764 4.573 0.218
53.4968 5.083 0.230
53.5173 4.719 0.222
53.5378 4.615 0.219
53.5582 4.833 0.224
53.5787 5.010 0.228
53.5992 5.115 0.231
53.6196 5.260 0.234
53.6401 4.865 0.225
53.6605 5.958 0.249
53.6810 5.302 0.235
53.7015 5.656 0.243
53.7219 5.865 0.247
53.7424 5.375 0.237
53.7629 5.844 0.247
53.7833 5.406 0.237
53.8038 5.052 0.229
53.8242 5.052 0.229
53.8447 5.333 0.236
53.8652 5.208 0.233
53.8856 5.354 0.236
53.9061 5.010 0.228
53.9266 5.021 0.229
53.9470 4.990 0.228
53.9675 5.021 0.229
53.9879 4.656 0.220
54.0084 4.479 0.216
54.0289 5.385 0.237
54.0493 4.854 0.225
54.0698 4.875 0.225
54.0903 5.146 0.232
54.1107 5.146 0.232
54.1312 5.135 0.231
54.1516 5.177 0.232
54.1721 4.875 0.225
54.1926 4.552 0.218
54.2130 4.667 0.220
54.2335 5.073 0.230
54.2540 4.156 0.208
54.2744 5.104 0.231
54.2949 4.729 0.222
54.3154 4.865 0.225
54.3358 4.979 0.228
54.3563 4.896 0.226
54.3767 4.969 0.228
54.3972 4.781 0.223
54.4177 4.781 0.223
54.4381 4.781 0.223
54.4586 4.990 0.228
54.4791 4.688 0.221
54.4995 4.948 0.227
54.5200 5.344 0.236
54.5404 5.875 0.247
54.5609 6.271 0.256
54.5814 6.333 0.257
54.6018 6.021 0.250
54.6223 5.948 0.249
54.6428 5.813 0.246
54.6632 5.438 0.238
54.6837 5.271 0.234
54.7041 5.729 0.244
54.7246 5.406 0.237
54.7451 5.469 0.239
54.7655 5.573 0.241
54.7860 5.188 0.232
54.8065 4.708 0.221
54.8269 5.146 0.232
54.8474 4.740 0.222
54.8678 4.823 0.224
54.8883 5.135 0.231
54.9088 5.458 0.238
54.9292 5.406 0.237
54.9497 5.396 0.237
54.9702 5.875 0.247
54.9906 6.448 0.259
55.0111 6.625 0.263
55.0316 7.260 0.275
55.0520 7.313 0.276
55.0725 8.438 0.296
55.0929 9.365 0.312
55.1134 9.313 0.311
55.1339 10.563 0.332
55.1543 10.708 0.334
55.1748 9.885 0.321
55.1953 11.354 0.344
55.2157 10.698 0.334
55.2362 11.396 0.345
55.2566 11.208 0.342
55.2771 10.563 0.332
55.2976 9.823 0.320
55.3180 9.906 0.321
55.3385 9.688 0.318
55.3590 8.521 0.298
55.3794 8.396 0.296
55.3999 7.802 0.285
55.4203 7.365 0.277
55.4408 7.125 0.272
55.4613 6.927 0.269
55.4817 6.333 0.257
55.5022 6.500 0.260
55.5227 6.490 0.260
55.5431 5.760 0.245
55.5636 5.573 0.241
55.5840 5.802 0.246
55.6045 5.677 0.243
55.6250 5.802 0.246
55.6454 5.625 0.242
55.6659 5.854 0.247
55.6864 5.385 0.237
55.7068 5.365 0.236
55.7273 5.563 0.241
55.7477 4.969 0.228
55.7682 5.125 0.231
55.7887 5.396 0.237
55.8091 5.260 0.234
55.8296 5.490 0.239
55.8501 5.615 0.242
55.8705 5.521 0.240
55.8910 5.313 0.235
55.9115 5.281 0.235
55.9319 5.698 0.244
55.9524 5.792 0.246
55.9728 5.844 0.247
55.9933 5.885 0.248
56.0138 5.385 0.237
56.0342 5.594 0.241
56.0547 5.958 0.249
56.0752 6.406 0.258
56.0956 6.167 0.253
56.1161 6.500 0.260
56.1365 6.208 0.254
56.1570 7.063 0.271
56.1775 7.208 0.274
56.1979 6.979 0.270
56.2184 6.760 0.265
56.2389 6.813 0.266
56.2593 6.917 0.268
56.2798 7.135 0.273
56.3002 6.833 0.267
56.3207 6.917 0.268
56.3412 6.219 0.255
56.3616 6.104 0.252
56.3821 6.500 0.260
56.4026 5.885 0.248
56.4230 6.083 0.252
56.4435 5.885 0.248
56.4639 5.615 0.242
56.4844 5.958 0.249
56.5049 5.917 0.248
56.5253 5.333 0.236
56.5458 5.729 0.244
56.5663 5.750 0.245
56.5867 6.177 0.254
56.6072 5.969 0.249
56.6276 5.781 0.245
56.6481 6.250 0.255
56.6686 5.979 0.250
56.6890 6.385 0.258
56.7095 6.740 0.265
56.7300 6.771 0.266
56.7504 6.667 0.264
56.7709 5.885 0.248
56.7914 5.927 0.248
56.8118 5.542 0.240
56.8323 5.542 0.240
56.8527 5.583 0.241
56.8732 5.521 0.240
56.8937 5.094 0.230
56.9141 4.948 0.227
56.9346 4.656 0.220
56.9551 4.573 0.218
56.9755 4.510 0.217
56.9960 4.250 0.210
57.0164 4.698 0.221
57.0369 3.719 0.197
57.0574 4.063 0.206
57.0778 4.229 0.210
57.0983 4.490 0.216
57.1188 4.063 0.206
57.1392 4.469 0.216
57.1597 4.563 0.218
57.1801 4.354 0.213
57.2006 4.510 0.217
57.2211 4.469 0.216
57.2415 4.521 0.217
57.2620 4.094 0.207
57.2825 4.760 0.223
57.3029 4.573 0.218
57.3234 4.208 0.209
57.3438 4.115 0.207
57.3643 4.781 0.223
57.3848 4.135 0.208
57.4052 4.604 0.219
57.4257 4.448 0.215
57.4462 4.177 0.209
57.4666 4.573 0.218
57.4871 4.875 0.225
57.5075 4.375 0.213
57.5280 5.344 0.236
57.5485 4.875 0.225
57.5689 4.865 0.225
57.5894 4.625 0.219
57.6099 4.771 0.223
57.6303 4.823 0.224
57.6508 4.906 0.226
57.6713 4.948 0.227
57.6917 4.458 0.216
57.7122 5.094 0.230
57.7326 5.208 0.233
57.7531 4.708 0.221
57.7736 4.688 0.221
57.7940 4.896 0.226
57.8145 4.688 0.221
57.8350 5.073 0.230
57.8554 5.438 0.238
57.8759 5.208 0.233
57.8963 5.188 0.232
57.9168 5.031 0.229
57.9373 5.469 0.239
57.9577 5.063 0.230
57.9782 5.292 0.235
57.9987 5.333 0.236
58.0191 5.156 0.232
58.0396 4.948 0.227
58.0600 4.906 0.226
58.0805 5.125 0.231
58.1010 5.344 0.236
58.1214 5.396 0.237
58.1419 5.208 0.233
58.1624 5.229 0.233
58.1828 5.375 0.237
58.2033 4.813 0.224
58.2237 5.448 0.238
58.2442 5.323 0.235
58.2647 5.479 0.239
58.2851 5.563 0.241
58.3056 5.094 0.230
58.3261 5.125 0.231
58.3465 5.135 0.231
58.3670 4.906 0.226
58.3874 5.010 0.228
58.4079 5.198 0.233
58.4284 5.354 0.236
58.4488 5.823 0.246
58.4693 5.823 0.246
58.4898 6.052 0.251
58.5102 5.583 0.241
58.5307 5.792 0.246
58.5512 6.354 0.257
58.5716 5.604 0.242
58.5921 5.500 0.239
58.6125 5.125 0.231
58.6330 5.396 0.237
58.6535 5.198 0.233
58.6739 5.396 0.237
58.6944 5.198 0.233
58.7149 5.135 0.231
58.7353 5.385 0.237
58.7558 5.094 0.230
58.7762 4.594 0.219
58.7967 4.708 0.221
58.8172 5.000 0.228
58.8376 5.156 0.232
58.8581 4.604 0.219
58.8786 4.521 0.217
58.8990 4.813 0.224
58.9195 4.844 0.225
58.9399 4.792 0.223
58.9604 4.396 0.214
58.9809 4.646 0.220
59.0013 4.906 0.226
59.0218 5.083 0.230
59.0423 4.823 0.224
59.0627 5.177 0.232
59.0832 4.833 0.224
59.1036 4.948 0.227
59.1241 4.708 0.221
59.1446 4.885 0.226
59.1650 5.167 0.232
59.1855 4.656 0.220
59.2060 4.708 0.221
59.2264 4.927 0.227
59.2469 4.979 0.228
59.2674 4.688 0.221
59.2878 4.646 0.220
59.3083 4.656 0.220
59.3287 4.813 0.224
59.3492 4.563 0.218
59.3697 4.542 0.218
59.3901 4.260 0.211
59.4106 4.542 0.218
59.4311 4.458 0.216
59.4515 4.094 0.207
59.4720 4.292 0.211
59.4924 3.938 0.203
59.5129 4.021 0.205
59.5334 3.938 0.203
59.5538 4.281 0.211
59.5743 4.229 0.210
59.5948 4.104 0.207
59.6152 3.875 0.201
59.6357 4.406 0.214
59.6561 4.344 0.213
59.6766 4.385 0.214
59.6971 4.010 0.204
59.7175 4.094 0.207
59.7380 4.073 0.206
59.7585 4.094 0.207
59.7789 4.094 0.207
59.7994 4.260 0.211
59.8198 4.490 0.216
59.8403 4.740 0.222
59.8608 4.188 0.209
59.8812 4.854 0.225
59.9017 4.792 0.223
59.9222 4.458 0.216
59.9426 4.490 0.216
59.9631 4.563 0.218
59.9835 4.740 0.222
60.0040 4.708 0.221
60.0245 4.281 0.211
60.0449 4.635 0.220
60.0654 4.115 0.207
60.0859 4.448 0.215
60.1063 4.438 0.215
60.1268 4.125 0.207
60.1473 4.406 0.214
60.1677 4.208 0.209
60.1882 4.417 0.214
60.2086 4.323 0.212
60.2291 4.302 0.212
60.2496 4.250 0.210
60.2700 3.615 0.194
60.2905 3.875 0.201
60.3110 4.271 0.211
60.3314 4.052 0.205
60.3519 4.302 0.212
60.3723 4.365 0.213
60.3928 4.229 0.210
60.4133 4.531 0.217
60.4337 4.115 0.207
60.4542 3.958 0.203
60.4747 3.969 0.203
60.4951 4.031 0.205
60.5156 4.188 0.209
60.5360 4.135 0.208
60.5565 4.250 0.210
60.5770 4.125 0.207
60.5974 4.229 0.210
60.6179 3.594 0.193
60.6384 3.927 0.202
60.6588 4.021 0.205
60.6793 3.938 0.203
60.6997 4.167 0.208
60.7202 4.271 0.211
60.7407 4.146 0.208
60.7611 3.927 0.202
60.7816 3.688 0.196
60.8021 3.688 0.196
60.8225 4.021 0.205
60.8430 4.229 0.210
60.8634 3.917 0.202
60.8839 4.052 0.205
60.9044 4.146 0.208
60.9248 4.250 0.210
60.9453 4.177 0.209
60.9658 3.688 0.196
60.9862 4.302 0.212
61.0067 4.281 0.211
61.0272 4.260 0.211
61.0476 4.646 0.220
61.0681 4.146 0.208
61.0885 3.813 0.199
61.1090 3.990 0.204
61.1295 4.260 0.211
61.1499 4.104 0.207
61.1704 3.844 0.200
61.1909 3.865 0.201
61.2113 4.031 0.205
61.2318 3.990 0.204
61.2522 4.448 0.215
61.2727 4.167 0.208
61.2932 3.906 0.202
61.3136 3.917 0.202
61.3341 4.417 0.214
61.3546 4.583 0.219
61.3750 4.552 0.218
61.3955 4.896 0.226
61.4159 4.833 0.224
61.4364 4.094 0.207
61.4569 3.969 0.203
61.4773 4.531 0.217
61.4978 4.344 0.213
61.5183 4.010 0.204
61.5387 4.104 0.207
61.5592 4.031 0.205
61.5796 4.135 0.208
61.6001 3.542 0.192
61.6206 3.521 0.192
61.6410 3.740 0.197
61.6615 3.958 0.203
61.6820 4.063 0.206
61.7024 4.094 0.207
61.7229 3.833 0.200
61.7433 3.500 0.191
61.7638 3.698 0.196
61.7843 3.594 0.193
61.8047 3.781 0.198
61.8252 3.938 0.203
61.8457 3.958 0.203
61.8661 3.563 0.193
61.8866 3.688 0.196
61.9071 3.917 0.202
61.9275 3.604 0.194
61.9480 4.115 0.207
61.9684 3.719 0.197
61.9889 3.948 0.203
62.0094 3.688 0.196
62.0298 4.021 0.205
62.0503 3.979 0.204
62.0708 4.698 0.221
62.0912 4.406 0.214
62.1117 4.719 0.222
62.1321 4.552 0.218
62.1526 4.479 0.216
62.1731 4.438 0.215
62.1935 4.010 0.204
62.2140 4.219 0.210
62.2345 4.010 0.204
62.2549 4.031 0.205
62.2754 3.958 0.203
62.2958 4.219 0.210
62.3163 4.042 0.205
62.3368 3.521 0.192
62.3572 4.177 0.209
62.3777 3.708 0.197
62.3982 4.063 0.206
62.4186 3.802 0.199
62.4391 3.688 0.196
62.4595 3.563 0.193
62.4800 3.490 0.191
62.5005 3.792 0.199
62.5209 3.635 0.195
62.5414 3.438 0.189
62.5619 3.500 0.191
62.5823 3.719 0.197
62.6028 3.802 0.199
62.6232 3.344 0.187
62.6437 3.479 0.190
62.6642 3.833 0.200
62.6846 3.750 0.198
62.7051 3.635 0.195
62.7256 3.729 0.197
62.7460 3.604 0.194
62.7665 3.802 0.199
62.7870 3.448 0.190
62.8074 3.583 0.193
62.8279 3.271 0.185
62.8483 3.583 0.193
62.8688 3.313 0.186
62.8893 3.688 0.196
62.9097 3.531 0.192
62.9302 3.656 0.195
62.9507 3.531 0.192
62.9711 3.521 0.192
62.9916 3.635 0.195
63.0120 3.542 0.192
63.0325 3.448 0.190
63.0530 3.281 0.185
63.0734 3.667 0.195
63.0939 3.698 0.196
63.1144 3.771 0.198
63.1348 3.802 0.199
63.1553 3.531 0.192
63.1757 3.688 0.196
63.1962 3.823 0.200
63.2167 3.375 0.188
63.2371 3.521 0.192
63.2576 3.656 0.195
63.2781 3.792 0.199
63.2985 3.323 0.186
63.3190 3.792 0.199
63.3394 3.698 0.196
63.3599 4.229 0.210
63.3804 4.208 0.209
63.4008 4.135 0.208
63.4213 4.240 0.210
63.4418 4.188 0.209
63.4622 4.302 0.212
63.4827 4.344 0.213
63.5032 4.365 0.213
63.5236 4.313 0.212
63.5441 4.000 0.204
63.5645 4.281 0.211
63.5850 4.490 0.216
63.6055 4.344 0.213
63.6259 4.396 0.214
63.6464 4.698 0.221
63.6669 4.448 0.215
63.6873 4.625 0.219
63.7078 4.177 0.209
63.7282 4.365 0.213
63.7487 4.240 0.210
63.7692 4.188 0.209
63.7896 4.792 0.223
63.8101 4.208 0.209
63.8306 4.417 0.214
63.8510 4.281 0.211
63.8715 4.333 0.212
63.8919 4.354 0.213
63.9124 4.281 0.211
63.9329 4.438 0.215
63.9533 3.958 0.203
63.9738 4.146 0.208
63.9943 4.521 0.217
64.0147 4.104 0.207
64.0352 3.646 0.195
64.0556 4.240 0.210
64.0761 4.094 0.207
64.0966 3.823 0.200
64.1170 4.042 0.205
64.1375 4.229 0.210
64.1580 4.208 0.209
64.1784 4.156 0.208
64.1989 4.125 0.207
64.2193 4.052 0.205
64.2398 4.135 0.208
64.2603 4.188 0.209
64.2807 3.740 0.197
64.3012 3.802 0.199
64.3217 4.042 0.205
64.3421 4.167 0.208
64.3626 4.219 0.210
64.3831 4.135 0.208
64.4035 3.906 0.202
64.4240 4.156 0.208
64.4444 4.219 0.210
64.4649 4.552 0.218
64.4854 4.115 0.207
64.5058 4.063 0.206
64.5263 3.906 0.202
64.5468 4.115 0.207
64.5672 4.510 0.217
64.5877 4.448 0.215
64.6081 4.875 0.225
64.6286 4.719 0.222
64.6491 5.146 0.232
64.6695 4.958 0.227
64.6900 4.802 0.224
64.7105 5.438 0.238
64.7309 5.375 0.237
64.7514 4.938 0.227
64.7718 5.292 0.235
64.7923 4.625 0.219
64.8128 4.927 0.227
64.8332 4.563 0.218
64.8537 4.917 0.226
64.8742 4.667 0.220
64.8946 4.406 0.214
64.9151 4.177 0.209
64.9355 4.208 0.209
64.9560 3.969 0.203
64.9765 4.302 0.212
64.9969 4.208 0.209
65.0174 4.281 0.211
65.0379 3.885 0.201
65.0583 4.083 0.206
65.0788 4.021 0.205
65.0992 3.927 0.202
65.1197 3.771 0.198
65.1402 4.115 0.207
65.1606 3.802 0.199
65.1811 3.948 0.203
65.2016 3.927 0.202
65.2220 3.750 0.198
65.2425 4.271 0.211
65.2630 3.844 0.200
65.2834 4.146 0.208
65.3039 3.677 0.196
65.3243 3.875 0.201
65.3448 3.885 0.201
65.3653 3.854 0.200
65.3857 3.760 0.198
65.4062 4.073 0.206
65.4267 3.854 0.200
65.4471 3.938 0.203
65.4676 3.875 0.201
65.4880 4.521 0.217
65.5085 4.010 0.204
65.5290 3.906 0.202
65.5494 4.521 0.217
65.5699 3.969 0.203
65.5904 4.198 0.209
65.6108 4.365 0.213
65.6313 3.813 0.199
65.6517 4.125 0.207
65.6722 4.302 0.212
65.6927 4.146 0.208
65.7131 4.198 0.209
65.7336 4.260 0.211
65.7541 4.010 0.204
65.7745 4.323 0.212
65.7950 4.115 0.207
65.8154 3.906 0.202
65.8359 4.125 0.207
65.8564 3.927 0.202
65.8768 3.927 0.202
65.8973 3.750 0.198
65.9178 3.469 0.190
65.9382 4.052 0.205
65.9587 3.802 0.199
65.9791 3.948 0.203
65.9996 3.958 0.203
66.0201 4.052 0.205
66.0405 3.802 0.199
66.0610 3.542 0.192
66.0815 3.979 0.204
66.1019 3.875 0.201
66.1224 3.865 0.201
66.1429 3.760 0.198
66.1633 3.948 0.203
66.1838 3.760 0.198
66.2042 4.115 0.207
66.2247 3.646 0.195
66.2452 3.198 0.183
66.2656 3.406 0.188
66.2861 3.896 0.201
66.3066 3.521 0.192
66.3270 4.052 0.205
66.3475 4.052 0.205
66.3679 3.708 0.197
66.3884 3.573 0.193
66.4089 3.469 0.190
66.4293 3.760 0.198
66.4498 3.573 0.193
66.4703 3.458 0.190
66.4907 3.823 0.200
66.5112 3.490 0.191
66.5316 3.615 0.194
66.5521 3.781 0.198
66.5726 3.625 0.194
66.5930 3.115 0.180
66.6135 3.771 0.198
66.6340 3.250 0.184
66.6544 3.896 0.201
66.6749 3.677 0.196
66.6953 3.760 0.198
66.7158 3.427 0.189
66.7363 3.740 0.197
66.7567 3.563 0.193
66.7772 3.938 0.203
66.7977 3.635 0.195
66.8181 3.385 0.188
66.8386 3.844 0.200
66.8590 3.885 0.201
66.8795 3.688 0.196
66.9000 3.750 0.198
66.9204 3.719 0.197
66.9409 3.677 0.196
66.9614 3.521 0.192
66.9818 3.656 0.195
67.0023 4.010 0.204
67.0228 4.167 0.208
67.0432 3.948 0.203
67.0637 4.375 0.213
67.0841 3.885 0.201
67.1046 4.104 0.207
67.1251 4.510 0.217
67.1455 4.510 0.217
67.1660 4.646 0.220
67.1865 4.656 0.220
67.2069 4.521 0.217
67.2274 4.969 0.228
67.2478 4.521 0.217
67.2683 4.458 0.216
67.2888 4.958 0.227
67.3092 4.813 0.224
67.3297 4.479 0.216
67.3502 4.948 0.227
67.3706 4.656 0.220
67.3911 5.167 0.232
67.4115 4.500 0.217
67.4320 4.552 0.218
67.4525 4.188 0.209
67.4729 4.115 0.207
67.4934 4.906 0.226
67.5139 4.302 0.212
67.5343 4.271 0.211
67.5548 4.313 0.212
67.5752 4.323 0.212
67.5957 4.656 0.220
67.6162 4.125 0.207
67.6366 3.760 0.198
67.6571 4.167 0.208
67.6776 3.958 0.203
67.6980 4.531 0.217
67.7185 4.094 0.207
67.7389 4.229 0.210
67.7594 3.927 0.202
67.7799 3.948 0.203
67.8003 4.292 0.211
67.8208 3.802 0.199
67.8413 3.688 0.196
67.8617 3.813 0.199
67.8822 4.240 0.210
67.9027 4.052 0.205
67.9231 4.000 0.204
67.9436 3.646 0.195
67.9640 4.104 0.207
67.9845 3.802 0.199
68.0050 3.969 0.203
68.0254 4.073 0.206
68.0459 3.823 0.200
68.0664 3.385 0.188
68.0868 3.823 0.200
68.1073 3.771 0.198
68.1277 3.875 0.201
68.1482 3.927 0.202
68.1687 3.646 0.195
68.1891 3.938 0.203
68.2096 3.708 0.197
68.2301 3.938 0.203
68.2505 3.760 0.198
68.2710 3.948 0.203
68.2914 3.375 0.188
68.3119 4.167 0.208
68.3324 3.625 0.194
68.3528 3.844 0.200
68.3733 3.969 0.203
68.3938 3.906 0.202
68.4142 3.594 0.193
68.4347 3.750 0.198
68.4551 3.302 0.185
68.4756 3.448 0.190
68.4961 3.552 0.192
68.5165 3.990 0.204
68.5370 3.927 0.202
68.5575 3.833 0.200
68.5779 3.573 0.193
68.5984 3.552 0.192
68.6189 3.438 0.189
68.6393 3.479 0.190
68.6598 3.510 0.191
68.6802 3.438 0.189
68.7007 3.063 0.179
68.7212 3.229 0.183
68.7416 3.563 0.193
68.7621 3.760 0.198
68.7826 3.396 0.188
68.8030 3.333 0.186
68.8235 3.500 0.191
68.8439 3.115 0.180
68.8644 3.646 0.195
68.8849 3.615 0.194
68.9053 3.344 0.187
68.9258 3.427 0.189
68.9463 3.792 0.199
68.9667 3.313 0.186
68.9872 3.375 0.188
69.0076 3.802 0.199
69.0281 3.938 0.203
69.0486 3.948 0.203
69.0690 4.010 0.204
69.0895 3.771 0.198
69.1100 4.271 0.211
69.1304 3.927 0.202
69.1509 3.740 0.197
69.1713 3.521 0.192
69.1918 3.656 0.195
69.2123 3.792 0.199
69.2327 3.260 0.184
69.2532 3.729 0.197
69.2737 3.635 0.195
69.2941 3.979 0.204
69.3146 3.615 0.194
69.3350 3.615 0.194
69.3555 3.854 0.200
69.3760 3.510 0.191
69.3964 3.552 0.192
69.4169 3.323 0.186
69.4374 3.521 0.192
69.4578 3.313 0.186
69.4783 3.708 0.197
69.4988 3.406 0.188
69.5192 3.344 0.187
69.5397 3.313 0.186
69.5601 3.219 0.183
69.5806 3.219 0.183
69.6011 3.073 0.179
69.6215 3.521 0.192
69.6420 3.240 0.184
69.6625 3.333 0.186
69.6829 3.177 0.182
69.7034 3.135 0.181
69.7238 2.948 0.175
69.7443 3.229 0.183
69.7648 3.625 0.194
69.7852 3.354 0.187
69.8057 3.188 0.182
69.8262 2.958 0.176
69.8466 3.406 0.188
69.8671 2.979 0.176
69.8875 3.104 0.180
69.9080 3.302 0.185
69.9285 2.990 0.176
69.9489 3.479 0.190
69.9694 3.521 0.192
69.9899 3.458 0.190
70.0103 3.104 0.180
70.0308 3.260 0.184
70.0512 3.458 0.190
70.0717 3.063 0.179
70.0922 3.052 0.178
70.1126 3.031 0.178
70.1331 3.302 0.185
70.1536 2.938 0.175
70.1740 3.229 0.183
70.1945 3.135 0.181
70.2149 3.135 0.181
70.2354 3.365 0.187
70.2559 3.094 0.180
70.2763 3.198 0.183
70.2968 3.031 0.178
70.3173 3.385 0.188
70.3377 3.208 0.183
70.3582 3.229 0.183
70.3787 3.083 0.179
70.3991 2.844 0.172
70.4196 3.333 0.186
70.4400 2.990 0.176
70.4605 3.385 0.188
70.4810 3.385 0.188
70.5014 3.052 0.178
70.5219 2.906 0.174
70.5424 3.010 0.177
70.5628 3.135 0.181
70.5833 3.083 0.179
70.6037 3.094 0.180
70.6242 3.146 0.181
70.6447 3.188 0.182
70.6651 2.917 0.174
70.6856 3.000 0.177
70.7061 2.990 0.176
70.7265 2.938 0.175
70.7470 3.115 0.180
70.7674 3.229 0.183
70.7879 3.135 0.181
70.8084 3.271 0.185
70.8288 3.313 0.186
70.8493 2.958 0.176
70.8698 3.115 0.180
70.8902 3.490 0.191
70.9107 3.521 0.192
70.9311 3.656 0.195
70.9516 3.448 0.190
70.9721 3.385 0.188
70.9925 3.094 0.180
71.0130 2.833 0.172
71.0335 2.740 0.169
71.0539 3.010 0.177
71.0744 3.208 0.183
71.0948 3.146 0.181
71.1153 2.906 0.174
71.1358 3.292 0.185
71.1562 3.188 0.182
71.1767 3.177 0.182
71.1972 2.781 0.170
71.2176 2.927 0.175
71.2381 2.958 0.176
71.2586 2.760 0.170
71.2790 3.146 0.181
71.2995 3.083 0.179
71.3199 3.010 0.177
71.3404 3.260 0.184
71.3609 3.115 0.180
71.3813 2.969 0.176
71.4018 2.927 0.175
71.4223 2.854 0.172
71.4427 2.969 0.176
71.4632 2.875 0.173
71.4836 3.260 0.184
71.5041 3.094 0.180
71.5246 3.094 0.180
71.5450 2.948 0.175
71.5655 2.865 0.173
71.5860 3.104 0.180
71.6064 3.063 0.179
71.6269 3.104 0.180
71.6473 3.083 0.179
71.6678 2.771 0.170
71.6883 2.635 0.166
71.7087 2.802 0.171
71.7292 2.896 0.174
71.7497 3.177 0.182
71.7701 3.000 0.177
71.7906 3.042 0.178
71.8110 2.594 0.164
71.8315 2.646 0.166
71.8520 3.115 0.180
71.8724 2.688 0.167
71.8929 2.813 0.171
71.9134 2.969 0.176
71.9338 2.615 0.165
71.9543 2.760 0.170
71.9747 2.677 0.167
71.9952 2.552 0.163
72.0157 2.615 0.165
72.0361 2.719 0.168
72.0566 3.198 0.183
72.0771 2.865 0.173
72.0975 2.927 0.175
72.1180 3.313 0.186
72.1385 3.354 0.187
72.1589 3.094 0.180
72.1794 2.917 0.174
72.1998 3.021 0.177
72.2203 2.969 0.176
72.2408 2.948 0.175
72.2612 2.708 0.168
72.2817 3.010 0.177
72.3022 3.083 0.179
72.3226 2.990 0.176
72.3431 3.156 0.181
72.3635 3.417 0.189
72.3840 3.344 0.187
72.4045 2.854 0.172
72.4249 3.167 0.182
72.4454 2.958 0.176
72.4659 2.802 0.171
72.4863 3.021 0.177
72.5068 3.021 0.177
72.5272 2.698 0.168
72.5477 3.021 0.177
72.5682 2.813 0.171
72.5886 2.740 0.169
72.6091 2.375 0.157
72.6296 2.677 0.167
72.6500 2.875 0.173
72.6705 2.875 0.173
72.6909 2.802 0.171
72.7114 2.813 0.171
72.7319 2.729 0.169
72.7523 2.948 0.175
72.7728 2.458 0.160
72.7933 2.708 0.168
72.8137 2.719 0.168
72.8342 2.708 0.168
72.8547 2.604 0.165
72.8751 2.719 0.168
72.8956 2.625 0.165
72.9160 2.750 0.169
72.9365 2.729 0.169
72.9570 3.083 0.179
72.9774 2.625 0.165
72.9979 2.875 0.173
73.0184 2.906 0.174
73.0388 2.698 0.168
73.0593 2.844 0.172
73.0797 2.667 0.167
73.1002 2.656 0.166
73.1207 2.469 0.160
73.1411 2.781 0.170
73.1616 2.854 0.172
73.1821 2.833 0.172
73.2025 2.656 0.166
73.2230 2.865 0.173
73.2434 2.417 0.159
73.2639 2.865 0.173
73.2844 2.688 0.167
73.3048 2.740 0.169
73.3253 2.375 0.157
73.3458 3.000 0.177
73.3662 2.635 0.166
73.3867 2.635 0.166
73.4071 2.760 0.170
73.4276 2.615 0.165
73.4481 2.635 0.166
73.4685 2.844 0.172
73.4890 2.813 0.171
73.5095 2.490 0.161
73.5299 2.688 0.167
73.5504 3.073 0.179
73.5708 2.677 0.167
73.5913 2.813 0.171
73.6118 2.802 0.171
73.6322 2.583 0.164
73.6527 2.740 0.169
73.6732 2.396 0.158
73.6936 2.771 0.170
73.7141 2.531 0.162
73.7346 2.521 0.162
73.7550 2.750 0.169
73.7755 2.521 0.162
73.7959 2.990 0.176
73.8164 2.583 0.164
73.8369 2.688 0.167
73.8573 2.927 0.175
73.8778 2.615 0.165
73.8983 2.615 0.165
73.9187 2.948 0.175
73.9392 2.969 0.176
73.9596 3.083 0.179
73.9801 3.135 0.181
74.0006 3.042 0.178
74.0210 3.396 0.188
74.0415 3.031 0.178
74.0620 2.802 0.171
74.0824 2.573 0.164
74.1029 2.865 0.173
74.1233 2.844 0.172
74.1438 2.531 0.162
74.1643 2.646 0.166
74.1847 2.750 0.169
74.2052 3.000 0.177
74.2257 2.615 0.165
74.2461 2.917 0.174
74.2666 2.490 0.161
74.2870 2.677 0.167
74.3075 2.396 0.158
74.3280 2.406 0.158
74.3484 2.563 0.163
74.3689 2.302 0.155
74.3894 2.417 0.159
74.4098 2.646 0.166
74.4303 2.396 0.158
74.4507 2.698 0.168
74.4712 2.458 0.160
74.4917 2.479 0.161
74.5121 2.302 0.155
74.5326 2.688 0.167
74.5531 2.490 0.161
74.5735 2.563 0.163
74.5940 2.438 0.159
74.6145 2.323 0.156
74.6349 2.448 0.160
74.6554 2.438 0.159
74.6758 2.573 0.164
74.6963 2.385 0.158
74.7168 2.490 0.161
74.7372 2.406 0.158
74.7577 2.635 0.166
74.7782 2.313 0.155
74.7986 2.479 0.161
74.8191 2.792 0.171
74.8395 2.583 0.164
74.8600 2.719 0.168
74.8805 2.688 0.167
74.9009 2.698 0.168
74.9214 2.573 0.164
74.9419 2.573 0.164
74.9623 2.458 0.160
74.9828 2.740 0.169
75.0032 2.375 0.157
75.0237 2.625 0.165
75.0442 2.708 0.168
75.0646 2.615 0.165
75.0851 2.865 0.173
75.1056 2.958 0.176
75.1260 2.740 0.169
75.1465 2.896 0.174
75.1669 2.594 0.164
75.1874 2.740 0.169
75.2079 2.656 0.166
75.2283 2.573 0.164
75.2488 2.448 0.160
75.2693 2.948 0.175
75.2897 3.104 0.180
75.3102 2.792 0.171
75.3306 2.740 0.169
75.3511 2.833 0.172
75.3716 2.750 0.169
75.3920 2.615 0.165
75.4125 2.365 0.157
75.4330 2.563 0.163
75.4534 2.750 0.169
75.4739 3.042 0.178
75.4944 3.031 0.178
75.5148 2.573 0.164
75.5353 2.531 0.162
75.5557 2.219 0.152
75.5762 2.542 0.163
75.5967 2.510 0.162
75.6171 2.552 0.163
75.6376 3.010 0.177
75.6581 2.719 0.168
75.6785 2.802 0.171
75.6990 3.063 0.179
75.7194 2.938 0.175
75.7399 2.958 0.176
75.7604 3.219 0.183
75.7808 3.063 0.179
75.8013 3.375 0.188
75.8218 3.604 0.194
75.8422 2.979 0.176
75.8627 3.656 0.195
75.8831 3.229 0.183
75.9036 3.396 0.188
75.9241 3.177 0.182
75.9445 3.313 0.186
75.9650 3.167 0.182
75.9855 3.427 0.189
76.0059 2.958 0.176
76.0264 3.115 0.180
76.0468 3.260 0.184
76.0673 3.010 0.177
76.0878 2.917 0.174
76.1082 2.896 0.174
76.1287 3.000 0.177
76.1492 2.906 0.174
76.1696 2.802 0.171
76.1901 2.990 0.176
76.2105 2.948 0.175
76.2310 2.917 0.174
76.2515 2.708 0.168
76.2719 3.104 0.180
76.2924 2.760 0.170
76.3129 2.802 0.171
76.3333 2.729 0.169
76.3538 2.635 0.166
76.3743 3.021 0.177
76.3947 2.781 0.170
76.4152 2.573 0.164
76.4356 2.844 0.172
76.4561 2.385 0.158
76.4766 2.917 0.174
76.4970 2.563 0.163
76.5175 2.500 0.161
76.5380 2.833 0.172
76.5584 2.583 0.164
76.5789 2.688 0.167
76.5993 2.656 0.166
76.6198 2.583 0.164
76.6403 2.448 0.160
76.6607 2.490 0.161
76.6812 2.844 0.172
76.7017 2.510 0.162
76.7221 2.427 0.159
76.7426 2.490 0.161
76.7630 2.896 0.174
76.7835 2.688 0.167
76.8040 2.500 0.161
76.8244 2.354 0.157
76.8449 2.656 0.166
76.8654 2.604 0.165
76.8858 2.490 0.161
76.9063 2.396 0.158
76.9267 2.500 0.161
76.9472 2.583 0.164
76.9677 2.448 0.160
76.9881 2.521 0.162
77.0086 2.521 0.162
77.0291 2.469 0.160
77.0495 2.406 0.158
77.0700 2.844 0.172
77.0905 2.385 0.158
77.1109 2.625 0.165
77.1314 2.333 0.156
77.1518 2.698 0.168
77.1723 2.458 0.160
77.1928 3.104 0.180
77.2132 2.625 0.165
77.2337 2.354 0.157
77.2542 2.844 0.172
77.2746 2.948 0.175
77.2951 2.813 0.171
77.3155 2.708 0.168
77.3360 2.573 0.164
77.3565 2.708 0.168
77.3769 2.802 0.171
77.3974 2.740 0.169
77.4179 2.583 0.164
77.4383 2.635 0.166
77.4588 2.979 0.176
77.4792 2.760 0.170
77.4997 2.948 0.175
77.5202 2.708 0.168
77.5406 2.594 0.164
77.5611 2.813 0.171
77.5816 3.167 0.182
77.6020 2.771 0.170
77.6225 2.615 0.165
77.6429 2.708 0.168
77.6634 2.427 0.159
77.6839 2.729 0.169
77.7043 2.427 0.159
77.7248 2.990 0.176
77.7453 2.896 0.174
77.7657 2.625 0.165
77.7862 2.760 0.170
77.8066 3.240 0.184
77.8271 3.115 0.180
77.8476 3.031 0.178
77.8680 2.802 0.171
77.8885 2.792 0.171
77.9090 2.656 0.166
77.9294 2.979 0.176
77.9499 2.604 0.165
77.9704 2.646 0.166
77.9908 2.969 0.176
78.0113 3.052 0.178
78.0317 2.771 0.170
78.0522 2.927 0.175
78.0727 2.979 0.176
78.0931 2.927 0.175
78.1136 2.833 0.172
78.1341 2.750 0.169
78.1545 3.042 0.178
78.1750 2.677 0.167
78.1954 2.646 0.166
78.2159 2.490 0.161
78.2364 2.719 0.168
78.2568 2.823 0.171
78.2773 2.958 0.176
78.2978 2.813 0.171
78.3182 2.688 0.167
78.3387 2.656 0.166
78.3591 2.885 0.173
78.3796 2.906 0.174
78.4001 2.573 0.164
78.4205 2.771 0.170
78.4410 2.552 0.163
78.4615 2.865 0.173
78.4819 2.875 0.173
78.5024 2.594 0.164
78.5228 2.563 0.163
78.5433 2.792 0.171
78.5638 2.823 0.171
78.5842 2.896 0.174
78.6047 2.906 0.174
78.6252 2.688 0.167
78.6456 2.969 0.176
78.6661 2.708 0.168
78.6865 2.969 0.176
78.7070 2.615 0.165
78.7275 2.635 0.166
78.7479 2.677 0.167
78.7684 2.656 0.166
78.7889 2.542 0.163
78.8093 2.917 0.174
78.8298 2.698 0.168
78.8503 2.646 0.166
78.8707 2.917 0.174
78.8912 2.844 0.172
78.9116 2.406 0.158
78.9321 2.844 0.172
78.9526 2.573 0.164
78.9730 2.615 0.165
78.9935 2.740 0.169
79.0140 2.719 0.168
79.0344 2.667 0.167
79.0549 2.688 0.167
79.0753 2.385 0.158
79.0958 2.667 0.167
79.1163 2.760 0.170
79.1367 2.729 0.169
79.1572 2.635 0.166
79.1777 2.667 0.167
79.1981 2.500 0.161
79.2186 2.573 0.164
79.2390 2.417 0.159
79.2595 2.510 0.162
79.2800 2.771 0.170
79.3004 2.552 0.163
79.3209 2.510 0.162
79.3414 2.885 0.173
79.3618 2.604 0.165
79.3823 2.760 0.170
79.4027 2.896 0.174
79.4232 2.990 0.176
79.4437 2.833 0.172
79.4641 2.740 0.169
79.4846 2.552 0.163
79.5051 2.969 0.176
79.5255 3.125 0.180
79.5460 2.844 0.172
79.5664 2.563 0.163
79.5869 2.469 0.160
79.6074 2.729 0.169
79.6278 2.677 0.167
79.6483 2.823 0.171
79.6688 2.479 0.161
79.6892 3.083 0.179
79.7097 2.854 0.172
79.7302 2.740 0.169
79.7506 2.906 0.174
79.7711 2.906 0.174
79.7915 2.677 0.167
79.8120 3.000 0.177
79.8325 3.115 0.180
79.8529 2.760 0.170
79.8734 2.781 0.170
79.8939 2.604 0.165
79.9143 3.042 0.178
79.9348 2.479 0.161
79.9552 2.667 0.167
79.9757 2.719 0.168
79.9962 2.875 0.173
