'Id: "" Comment: "" Operator: "Lab Manager" Anode: "Cu" Scantype: "Locked Coupled" TimePerStep: "96" X: "0" Y: "0" Z: "0" 
5.0000 24.729 0.508
5.0205 24.573 0.506
5.0409 25.021 0.511
5.0614 24.594 0.506
5.0819 24.438 0.505
5.1023 24.229 0.502
5.1228 23.469 0.494
5.1432 23.865 0.499
5.1637 24.417 0.504
5.1842 24.156 0.502
5.2046 23.823 0.498
5.2251 22.813 0.487
5.2456 23.698 0.497
5.2660 23.115 0.491
5.2865 23.229 0.492
5.3069 23.604 0.496
5.3274 22.729 0.487
5.3479 22.656 0.486
5.3683 23.438 0.494
5.3888 22.948 0.489
5.4093 23.271 0.492
5.4297 24.198 0.502
5.4502 22.542 0.485
5.4706 23.333 0.493
5.4911 22.813 0.487
5.5116 23.885 0.499
5.5320 23.271 0.492
5.5525 22.771 0.487
5.5730 22.323 0.482
5.5934 22.667 0.486
5.6139 23.104 0.491
5.6343 22.563 0.485
5.6548 22.385 0.483
5.6753 23.302 0.493
5.6957 22.781 0.487
5.7162 22.823 0.488
5.7367 22.833 0.488
5.7571 22.292 0.482
5.7776 21.792 0.476
5.7980 21.510 0.473
5.8185 22.323 0.482
5.8390 22.646 0.486
5.8594 22.208 0.481
5.8799 21.146 0.469
5.9004 21.688 0.475
5.9208 21.438 0.473
5.9413 21.302 0.471
5.9618 21.354 0.472
5.9822 22.000 0.479
6.0027 20.969 0.467
6.0231 21.635 0.475
6.0436 21.365 0.472
6.0641 20.604 0.463
6.0845 21.302 0.471
6.1050 21.396 0.472
6.1255 22.625 0.485
6.1459 21.646 0.475
6.1664 21.000 0.468
6.1868 21.042 0.468
6.2073 20.865 0.466
6.2278 21.688 0.475
6.2482 20.698 0.464
6.2687 20.427 0.461
6.2892 21.760 0.476
6.3096 21.625 0.475
6.3301 21.167 0.470
6.3505 22.490 0.484
6.3710 21.563 0.474
6.3915 22.542 0.485
6.4119 21.146 0.469
6.4324 22.771 0.487
6.4529 22.594 0.485
6.4733 23.188 0.491
6.4938 25.063 0.511
6.5142 25.938 0.520
6.5347 25.729 0.518
6.5552 25.740 0.518
6.5756 27.229 0.533
6.5961 28.010 0.540
6.6166 30.313 0.562
6.6370 37.250 0.623
6.6575 44.958 0.684
6.6779 58.260 0.779
6.6984 87.823 0.956
6.7189 269.354 1.675
6.7393 338.438 1.878
6.7598 129.229 1.160
6.7803 48.781 0.713
6.8007 32.073 0.578
6.8212 28.385 0.544
6.8417 27.073 0.531
6.8621 26.646 0.527
6.8826 25.125 0.512
6.9030 25.385 0.514
6.9235 25.052 0.511
6.9440 25.656 0.517
6.9644 23.510 0.495
6.9849 23.865 0.499
7.0054 22.740 0.487
7.0258 23.833 0.498
7.0463 21.594 0.474
7.0667 21.583 0.474
7.0872 22.833 0.488
7.1077 22.406 0.483
7.1281 22.094 0.480
7.1486 22.115 0.480
7.1691 20.990 0.468
7.1895 21.344 0.472
7.2100 21.240 0.470
7.2304 21.292 0.471
7.2509 21.250 0.470
7.2714 22.531 0.484
7.2918 22.073 0.480
7.3123 21.365 0.472
7.3328 20.469 0.462
7.3532 21.375 0.472
7.3737 21.740 0.476
7.3941 22.146 0.480
7.4146 21.271 0.471
7.4351 21.760 0.476
7.4555 20.677 0.464
7.4760 20.458 0.462
7.4965 21.177 0.470
7.5169 21.354 0.472
7.5374 21.573 0.474
7.5579 21.406 0.472
7.5783 21.417 0.472
7.5988 21.156 0.469
7.6192 22.104 0.480
7.6397 21.302 0.471
7.6602 22.063 0.479
7.6806 21.260 0.471
7.7011 20.854 0.466
7.7216 21.833 0.477
7.7420 22.063 0.479
7.7625 21.896 0.478
7.7829 21.750 0.476
7.8034 22.135 0.480
7.8239 21.375 0.472
7.8443 20.938 0.467
7.8648 21.927 0.478
7.8853 21.281 0.471
7.9057 20.885 0.466
7.9262 21.323 0.471
7.9466 20.979 0.467
7.9671 21.719 0.476
7.9876 21.813 0.477
8.0080 21.938 0.478
8.0285 20.885 0.466
8.0490 22.146 0.480
8.0694 21.865 0.477
8.0899 22.458 0.484
8.1103 22.073 0.480
8.1308 22.365 0.483
8.1513 21.104 0.469
8.1717 22.479 0.484
8.1922 22.854 0.488
8.2127 22.271 0.482
8.2331 22.906 0.488
8.2536 23.208 0.492
8.2740 22.115 0.480
8.2945 22.240 0.481
8.3150 22.802 0.487
8.3354 22.167 0.481
8.3559 22.115 0.480
8.3764 22.740 0.487
8.3968 22.615 0.485
8.4173 22.292 0.482
8.4378 23.156 0.491
8.4582 22.302 0.482
8.4787 22.615 0.485
8.4991 21.813 0.477
8.5196 22.208 0.481
8.5401 22.865 0.488
8.5605 23.458 0.494
8.5810 22.177 0.481
8.6015 21.979 0.478
8.6219 22.510 0.484
8.6424 22.792 0.487
8.6628 22.542 0.485
8.6833 22.458 0.484
8.7038 21.990 0.479
8.7242 23.448 0.494
8.7447 23.760 0.497
8.7652 23.156 0.491
8.7856 23.792 0.498
8.8061 23.573 0.496
8.8265 24.167 0.502
8.8470 22.521 0.484
8.8675 24.104 0.501
8.8879 25.208 0.512
8.9084 24.906 0.509
8.9289 26.177 0.522
8.9493 26.531 0.526
8.9698 26.854 0.529
8.9902 27.115 0.531
9.0107 29.146 0.551
9.0312 29.906 0.558
9.0516 30.760 0.566
9.0721 34.469 0.599
9.0926 37.417 0.624
9.1130 38.833 0.636
9.1335 41.385 0.657
9.1539 41.000 0.654
9.1744 40.417 0.649
9.1949 41.177 0.655
9.2153 44.198 0.679
9.2358 47.958 0.707
9.2563 54.677 0.755
9.2767 59.208 0.785
9.2972 66.417 0.832
9.3177 67.708 0.840
9.3381 67.813 0.840
9.3586 65.500 0.826
9.3790 62.750 0.808
9.3995 62.646 0.808
9.4200 61.573 0.801
9.4404 61.833 0.803
9.4609 62.365 0.806
9.4814 64.094 0.817
9.5018 63.719 0.815
9.5223 66.844 0.834
9.5427 67.844 0.841
9.5632 71.656 0.864
9.5837 75.417 0.886
9.6041 79.094 0.908
9.6246 84.323 0.937
9.6451 89.448 0.965
9.6655 94.448 0.992
9.6860 99.417 1.018
9.7064 107.417 1.058
9.7269 116.635 1.102
9.7474 132.490 1.175
9.7678 151.635 1.257
9.7883 177.635 1.360
9.8088 216.531 1.502
9.8292 269.219 1.675
9.8497 346.563 1.900
9.8701 453.844 2.174
9.8906 579.177 2.456
9.9111 667.688 2.637
9.9315 556.563 2.408
9.9520 343.396 1.891
9.9725 191.938 1.414
9.9929 126.042 1.146
10.0134 94.927 0.994
10.0338 79.438 0.910
10.0543 69.563 0.851
10.0748 63.042 0.810
10.0952 57.750 0.776
10.1157 53.375 0.746
10.1362 49.698 0.720
10.1566 46.104 0.693
10.1771 40.990 0.653
10.1976 37.479 0.625
10.2180 36.510 0.617
10.2385 34.396 0.599
10.2589 33.385 0.590
10.2794 30.948 0.568
10.2999 31.438 0.572
10.3203 31.177 0.570
10.3408 29.740 0.557
10.3613 28.323 0.543
10.3817 28.844 0.548
10.4022 28.333 0.543
10.4226 28.938 0.549
10.4431 28.323 0.543
10.4636 27.781 0.538
10.4840 28.573 0.546
10.5045 27.198 0.532
10.5250 26.146 0.522
10.5454 26.188 0.522
10.5659 25.552 0.516
10.5863 25.073 0.511
10.6068 25.740 0.518
10.6273 25.042 0.511
10.6477 25.063 0.511
10.6682 24.646 0.507
10.6887 23.781 0.498
10.7091 23.531 0.495
10.7296 24.552 0.506
10.7500 23.969 0.500
10.7705 23.292 0.493
10.7910 23.500 0.495
10.8114 23.354 0.493
10.8319 22.698 0.486
10.8524 22.646 0.486
10.8728 22.167 0.481
10.8933 23.052 0.490
10.9137 22.823 0.488
10.9342 23.375 0.493
10.9547 21.771 0.476
10.9751 22.073 0.480
10.9956 21.760 0.476
11.0161 20.927 0.467
11.0365 20.490 0.462
11.0570 20.896 0.467
11.0775 21.604 0.474
11.0979 20.323 0.460
11.1184 21.042 0.468
11.1388 20.646 0.464
11.1593 20.604 0.463
11.1798 20.323 0.460
11.2002 19.854 0.455
11.2207 19.760 0.454
11.2412 19.510 0.451
11.2616 20.438 0.461
11.2821 19.594 0.452
11.3025 19.615 0.452
11.3230 20.354 0.460
11.3435 19.823 0.454
11.3639 20.167 0.458
11.3844 20.229 0.459
11.4049 19.719 0.453
11.4253 18.583 0.440
11.4458 19.125 0.446
11.4662 18.760 0.442
11.4867 19.292 0.448
11.5072 19.125 0.446
11.5276 18.990 0.445
11.5481 19.469 0.450
11.5686 19.031 0.445
11.5890 18.479 0.439
11.6095 18.844 0.443
11.6299 18.844 0.443
11.6504 17.958 0.433
11.6709 18.719 0.442
11.6913 18.750 0.442
11.7118 18.646 0.441
11.7323 18.417 0.438
11.7527 17.698 0.429
11.7732 17.000 0.421
11.7937 18.240 0.436
11.8141 18.458 0.438
11.8346 16.990 0.421
11.8550 17.073 0.422
11.8755 17.021 0.421
11.8960 17.552 0.428
11.9164 17.313 0.425
11.9369 17.292 0.424
11.9574 16.625 0.416
11.9778 16.167 0.410
11.9983 16.146 0.410
12.0187 16.688 0.417
12.0392 17.740 0.430
12.0597 17.031 0.421
12.0801 17.073 0.422
12.1006 16.625 0.416
12.1211 16.583 0.416
12.1415 16.708 0.417
12.1620 16.115 0.410
12.1824 16.333 0.412
12.2029 16.146 0.410
12.2234 16.188 0.411
12.2438 16.021 0.409
12.2643 15.688 0.404
12.2848 16.000 0.408
12.3052 16.615 0.416
12.3257 15.229 0.398
12.3461 15.844 0.406
12.3666 15.323 0.400
12.3871 16.083 0.409
12.4075 15.750 0.405
12.4280 15.375 0.400
12.4485 15.375 0.400
12.4689 15.344 0.400
12.4894 15.854 0.406
12.5098 15.156 0.397
12.5303 15.313 0.399
12.5508 14.656 0.391
12.5712 14.958 0.395
12.5917 14.948 0.395
12.6122 15.146 0.397
12.6326 14.719 0.392
12.6531 14.969 0.395
12.6736 15.073 0.396
12.6940 14.729 0.392
12.7145 14.625 0.390
12.7349 15.302 0.399
12.7554 14.667 0.391
12.7759 14.573 0.390
12.7963 14.823 0.393
12.8168 15.104 0.397
12.8373 14.583 0.390
12.8577 15.260 0.399
12.8782 14.219 0.385
12.8986 14.490 0.389
12.9191 14.281 0.386
12.9396 14.385 0.387
12.9600 13.938 0.381
12.9805 14.875 0.394
13.0010 14.167 0.384
13.0214 13.875 0.380
13.0419 14.948 0.395
13.0623 14.198 0.385
13.0828 15.063 0.396
13.1033 14.969 0.395
13.1237 14.375 0.387
13.1442 14.948 0.395
13.1647 15.500 0.402
13.1851 14.083 0.383
13.2056 14.375 0.387
13.2260 14.521 0.389
13.2465 14.865 0.393
13.2670 14.781 0.392
13.2874 14.438 0.388
13.3079 15.573 0.403
13.3284 17.844 0.431
13.3488 17.948 0.432
13.3693 20.833 0.466
13.3897 24.990 0.510
13.4102 70.552 0.857
13.4307 92.802 0.983
13.4511 63.667 0.814
13.4716 35.510 0.608
13.4921 17.240 0.424
13.5125 14.896 0.394
13.5330 14.375 0.387
13.5535 14.531 0.389
13.5739 14.115 0.383
13.5944 14.219 0.385
13.6148 13.385 0.373
13.6353 14.354 0.387
13.6558 13.375 0.373
13.6762 13.667 0.377
13.6967 12.854 0.366
13.7172 12.188 0.356
13.7376 13.448 0.374
13.7581 13.063 0.369
13.7785 12.854 0.366
13.7990 12.750 0.364
13.8195 12.625 0.363
13.8399 13.479 0.375
13.8604 12.760 0.365
13.8809 12.479 0.361
13.9013 12.448 0.360
13.9218 12.573 0.362
13.9422 11.948 0.353
13.9627 12.167 0.356
13.9832 13.104 0.369
14.0036 12.469 0.360
14.0241 12.354 0.359
14.0446 12.313 0.358
14.0650 12.010 0.354
14.0855 11.719 0.349
14.1059 12.292 0.358
14.1264 12.104 0.355
14.1469 12.031 0.354
14.1673 12.000 0.354
14.1878 11.833 0.351
14.2083 12.042 0.354
14.2287 12.010 0.354
14.2492 12.302 0.358
14.2696 11.896 0.352
14.2901 11.823 0.351
14.3106 12.260 0.357
14.3310 11.750 0.350
14.3515 12.208 0.357
14.3720 12.448 0.360
14.3924 11.927 0.352
14.4129 11.010 0.339
14.4334 11.802 0.351
14.4538 11.792 0.350
14.4743 11.385 0.344
14.4947 11.240 0.342
14.5152 11.260 0.342
14.5357 11.510 0.346
14.5561 11.229 0.342
14.5766 11.375 0.344
14.5971 11.125 0.340
14.6175 11.594 0.348
14.6380 11.333 0.344
14.6584 12.385 0.359
14.6789 10.708 0.334
14.6994 11.583 0.347
14.7198 11.448 0.345
14.7403 11.490 0.346
14.7608 11.552 0.347
14.7812 12.156 0.356
14.8017 11.490 0.346
14.8221 10.938 0.338
14.8426 10.875 0.337
14.8631 11.542 0.347
14.8835 10.563 0.332
14.9040 11.854 0.351
14.9245 11.042 0.339
14.9449 11.844 0.351
14.9654 11.094 0.340
14.9858 11.354 0.344
15.0063 10.969 0.338
15.0268 10.938 0.338
15.0472 10.969 0.338
15.0677 10.917 0.337
15.0882 10.750 0.335
15.1086 10.938 0.338
15.1291 10.708 0.334
15.1495 10.885 0.337
15.1700 11.042 0.339
15.1905 10.875 0.337
15.2109 11.385 0.344
15.2314 10.281 0.327
15.2519 10.552 0.332
15.2723 10.406 0.329
15.2928 10.521 0.331
15.3133 11.125 0.340
15.3337 10.938 0.338
15.3542 11.073 0.340
15.3746 10.771 0.335
15.3951 10.802 0.335
15.4156 11.354 0.344
15.4360 9.885 0.321
15.4565 10.510 0.331
15.4770 10.063 0.324
15.4974 11.208 0.342
15.5179 11.031 0.339
15.5383 9.979 0.322
15.5588 10.344 0.328
15.5793 10.656 0.333
15.5997 10.802 0.335
15.6202 10.260 0.327
15.6407 10.760 0.335
15.6611 11.052 0.339
15.6816 11.167 0.341
15.7020 10.635 0.333
15.7225 11.542 0.347
15.7430 12.135 0.356
15.7634 13.063 0.369
15.7839 13.969 0.381
15.8044 14.677 0.391
15.8248 14.552 0.389
15.8453 13.271 0.372
15.8657 12.344 0.359
15.8862 11.323 0.343
15.9067 10.719 0.334
15.9271 11.104 0.340
15.9476 10.885 0.337
15.9681 10.594 0.332
15.9885 9.708 0.318
16.0090 10.042 0.323
16.0295 10.500 0.331
16.0499 10.563 0.332
16.0704 10.583 0.332
16.0908 10.292 0.327
16.1113 10.396 0.329
16.1318 9.823 0.320
16.1522 10.031 0.323
16.1727 10.219 0.326
16.1932 9.885 0.321
16.2136 10.031 0.323
16.2341 10.177 0.326
16.2545 9.813 0.320
16.2750 9.896 0.321
16.2955 10.240 0.327
16.3159 10.292 0.327
16.3364 10.219 0.326
16.3569 9.677 0.317
16.3773 10.281 0.327
16.3978 9.865 0.321
16.4182 10.521 0.331
16.4387 10.740 0.334
16.4592 10.542 0.331
16.4796 10.750 0.335
16.5001 9.646 0.317
16.5206 9.813 0.320
16.5410 9.854 0.320
16.5615 10.135 0.325
16.5819 9.781 0.319
16.6024 9.906 0.321
16.6229 10.500 0.331
16.6433 9.677 0.317
16.6638 10.094 0.324
16.6843 9.750 0.319
16.7047 9.833 0.320
16.7252 9.208 0.310
16.7456 9.615 0.316
16.7661 10.677 0.333
16.7866 9.688 0.318
16.8070 10.021 0.323
16.8275 9.854 0.320
16.8480 10.281 0.327
16.8684 10.521 0.331
16.8889 9.646 0.317
16.9094 9.948 0.322
16.9298 10.896 0.337
16.9503 9.854 0.320
16.9707 9.865 0.321
16.9912 9.750 0.319
17.0117 10.354 0.328
17.0321 10.167 0.325
17.0526 9.688 0.318
17.0731 10.406 0.329
17.0935 10.073 0.324
17.1140 10.240 0.327
17.1344 9.875 0.321
17.1549 9.688 0.318
17.1754 9.771 0.319
17.1958 10.229 0.326
17.2163 9.698 0.318
17.2368 10.563 0.332
17.2572 10.479 0.330
17.2777 10.396 0.329
17.2981 9.948 0.322
17.3186 10.323 0.328
17.3391 10.656 0.333
17.3595 10.750 0.335
17.3800 10.865 0.336
17.4005 11.375 0.344
17.4209 10.490 0.331
17.4414 11.094 0.340
17.4618 11.417 0.345
17.4823 11.104 0.340
17.5028 11.333 0.344
17.5232 11.865 0.352
17.5437 11.729 0.350
17.5642 11.771 0.350
17.5846 11.146 0.341
17.6051 11.781 0.350
17.6255 12.354 0.359
17.6460 12.042 0.354
17.6665 12.813 0.365
17.6869 12.469 0.360
17.7074 12.229 0.357
17.7279 12.083 0.355
17.7483 13.177 0.370
17.7688 13.479 0.375
17.7893 13.844 0.380
17.8097 14.938 0.394
17.8302 15.188 0.398
17.8506 15.010 0.395
17.8711 15.385 0.400
17.8916 15.979 0.408
17.9120 16.594 0.416
17.9325 16.823 0.419
17.9530 16.875 0.419
17.9734 16.802 0.418
17.9939 17.260 0.424
18.0143 18.104 0.434
18.0348 19.302 0.448
18.0553 21.052 0.468
18.0757 22.948 0.489
18.0962 22.990 0.489
18.1167 23.688 0.497
18.1371 23.698 0.497
18.1576 24.229 0.502
18.1780 23.063 0.490
18.1985 23.615 0.496
18.2190 24.865 0.509
18.2394 23.865 0.499
18.2599 24.490 0.505
18.2804 26.344 0.524
18.3008 26.625 0.527
18.3213 26.240 0.523
18.3417 27.615 0.536
18.3622 27.010 0.530
18.3827 27.146 0.532
18.4031 27.313 0.533
18.4236 26.667 0.527
18.4441 26.844 0.529
18.4645 27.865 0.539
18.4850 26.635 0.527
18.5054 26.563 0.526
18.5259 28.344 0.543
18.5464 27.969 0.540
18.5668 29.333 0.553
18.5873 30.427 0.563
18.6078 31.271 0.571
18.6282 32.656 0.583
18.6487 32.885 0.585
18.6692 32.625 0.583
18.6896 31.948 0.577
18.7101 29.625 0.556
18.7305 28.729 0.547
18.7510 27.219 0.532
18.7715 27.469 0.535
18.7919 26.802 0.528
18.8124 25.729 0.518
18.8329 25.854 0.519
18.8533 25.198 0.512
18.8738 25.031 0.511
18.8942 24.500 0.505
18.9147 24.031 0.500
18.9352 22.833 0.488
18.9556 22.490 0.484
18.9761 21.896 0.478
18.9966 20.906 0.467
19.0170 20.583 0.463
19.0375 20.906 0.467
19.0579 20.385 0.461
19.0784 19.906 0.455
19.0989 18.646 0.441
19.1193 18.990 0.445
19.1398 18.865 0.443
19.1603 18.854 0.443
19.1807 19.240 0.448
19.2012 19.292 0.448
19.2216 18.938 0.444
19.2421 19.521 0.451
19.2626 18.854 0.443
19.2830 19.271 0.448
19.3035 18.375 0.438
19.3240 18.479 0.439
19.3444 19.490 0.451
19.3649 18.677 0.441
19.3853 19.365 0.449
19.4058 19.615 0.452
19.4263 19.167 0.447
19.4467 19.906 0.455
19.4672 19.635 0.452
19.4877 21.531 0.474
19.5081 21.896 0.478
19.5286 22.688 0.486
19.5491 23.281 0.492
19.5695 23.469 0.494
19.5900 25.813 0.519
19.6104 25.500 0.515
19.6309 27.948 0.540
19.6514 29.646 0.556
19.6718 31.729 0.575
19.6923 33.781 0.593
19.7128 37.167 0.622
19.7332 42.302 0.664
19.7537 51.323 0.731
19.7741 63.240 0.812
19.7946 79.896 0.912
19.8151 107.208 1.057
19.8355 147.719 1.240
19.8560 177.688 1.360
19.8765 153.698 1.265
19.8969 121.656 1.126
19.9174 96.000 1.000
19.9378 60.552 0.794
19.9583 40.969 0.653
19.9788 32.969 0.586
19.9992 28.260 0.543
20.0197 26.219 0.523
20.0402 25.010 0.510
20.0606 23.552 0.495
20.0811 22.854 0.488
20.1015 22.917 0.489
20.1220 24.396 0.504
20.1425 36.542 0.617
20.1629 97.219 1.006
20.1834 69.531 0.851
20.2039 48.896 0.714
20.2243 63.073 0.811
20.2448 30.990 0.568
20.2653 24.688 0.507
20.2857 24.604 0.506
20.3062 23.844 0.498
20.3266 25.115 0.511
20.3471 25.615 0.517
20.3676 24.188 0.502
20.3880 25.292 0.513
20.4085 24.552 0.506
20.4290 23.521 0.495
20.4494 23.458 0.494
20.4699 22.792 0.487
20.4903 22.104 0.480
20.5108 22.375 0.483
20.5313 21.885 0.477
20.5517 21.313 0.471
20.5722 20.531 0.462
20.5927 18.979 0.445
20.6131 18.771 0.442
20.6336 18.125 0.435
20.6540 17.417 0.426
20.6745 16.219 0.411
20.6950 16.427 0.414
20.7154 14.875 0.394
20.7359 14.083 0.383
20.7564 13.802 0.379
20.7768 14.396 0.387
20.7973 12.917 0.367
20.8177 12.792 0.365
20.8382 12.750 0.364
20.8587 12.823 0.365
20.8791 12.688 0.364
20.8996 11.833 0.351
20.9201 12.031 0.354
20.9405 12.073 0.355
20.9610 11.354 0.344
20.9814 11.490 0.346
21.0019 11.438 0.345
21.0224 11.031 0.339
21.0428 11.427 0.345
21.0633 11.250 0.342
21.0838 11.156 0.341
21.1042 10.583 0.332
21.1247 11.010 0.339
21.1452 11.208 0.342
21.1656 11.031 0.339
21.1861 11.458 0.345
21.2065 10.542 0.331
21.2270 10.667 0.333
21.2475 10.719 0.334
21.2679 10.708 0.334
21.2884 10.646 0.333
21.3089 10.698 0.334
21.3293 10.677 0.333
21.3498 10.792 0.335
21.3702 10.594 0.332
21.3907 10.896 0.337
21.4112 10.500 0.331
21.4316 10.333 0.328
21.4521 10.698 0.334
21.4726 10.573 0.332
21.4930 10.531 0.331
21.5135 10.469 0.330
21.5339 9.802 0.320
21.5544 10.177 0.326
21.5749 10.177 0.326
21.5953 10.938 0.338
21.6158 10.354 0.328
21.6363 10.188 0.326
21.6567 11.125 0.340
21.6772 10.594 0.332
21.6976 10.469 0.330
21.7181 11.344 0.344
21.7386 11.083 0.340
21.7590 11.063 0.339
21.7795 11.604 0.348
21.8000 11.323 0.343
21.8204 11.813 0.351
21.8409 11.094 0.340
21.8613 11.323 0.343
21.8818 11.667 0.349
21.9023 11.260 0.342
21.9227 11.521 0.346
21.9432 11.750 0.350
21.9637 11.385 0.344
21.9841 12.177 0.356
22.0046 12.333 0.358
22.0251 12.708 0.364
22.0455 13.646 0.377
22.0660 14.010 0.382
22.0864 15.146 0.397
22.1069 17.198 0.423
22.1274 20.188 0.459
22.1478 25.104 0.511
22.1683 31.906 0.577
22.1888 42.250 0.663
22.2092 45.906 0.692
22.2297 43.198 0.671
22.2501 37.969 0.629
22.2706 34.427 0.599
22.2911 27.667 0.537
22.3115 23.250 0.492
22.3320 19.844 0.455
22.3525 17.750 0.430
22.3729 16.729 0.417
22.3934 16.302 0.412
22.4138 14.865 0.393
22.4343 15.177 0.398
22.4548 14.125 0.384
22.4752 13.698 0.378
22.4957 12.427 0.360
22.5162 12.292 0.358
22.5366 12.656 0.363
22.5571 11.823 0.351
22.5775 11.406 0.345
22.5980 12.563 0.362
22.6185 11.802 0.351
22.6389 11.469 0.346
22.6594 11.542 0.347
22.6799 11.656 0.348
22.7003 11.375 0.344
22.7208 11.427 0.345
22.7412 11.031 0.339
22.7617 10.948 0.338
22.7822 11.073 0.340
22.8026 11.500 0.346
22.8231 10.792 0.335
22.8436 10.938 0.338
22.8640 11.698 0.349
22.8845 11.271 0.343
22.9050 12.531 0.361
22.9254 12.333 0.358
22.9459 12.667 0.363
22.9663 12.552 0.362
22.9868 12.333 0.358
23.0073 11.865 0.352
23.0277 11.719 0.349
23.0482 11.458 0.345
23.0687 11.313 0.343
23.0891 10.948 0.338
23.1096 10.292 0.327
23.1300 10.740 0.334
23.1505 9.469 0.314
23.1710 9.823 0.320
23.1914 10.448 0.330
23.2119 10.365 0.329
23.2324 10.323 0.328
23.2528 10.375 0.329
23.2733 9.938 0.322
23.2937 8.792 0.303
23.3142 10.396 0.329
23.3347 10.083 0.324
23.3551 9.813 0.320
23.3756 9.938 0.322
23.3961 9.417 0.313
23.4165 10.146 0.325
23.4370 10.292 0.327
23.4574 10.219 0.326
23.4779 10.208 0.326
23.4984 10.573 0.332
23.5188 10.156 0.325
23.5393 9.823 0.320
23.5598 10.260 0.327
23.5802 11.510 0.346
23.6007 11.927 0.352
23.6211 12.302 0.358
23.6416 12.021 0.354
23.6621 12.385 0.359
23.6825 12.052 0.354
23.7030 11.917 0.352
23.7235 10.969 0.338
23.7439 11.208 0.342
23.7644 10.240 0.327
23.7849 10.656 0.333
23.8053 9.813 0.320
23.8258 9.563 0.316
23.8462 9.490 0.314
23.8667 9.146 0.309
23.8872 9.042 0.307
23.9076 8.927 0.305
23.9281 9.219 0.310
23.9486 9.094 0.308
23.9690 8.792 0.303
23.9895 8.573 0.299
24.0099 8.188 0.292
24.0304 8.750 0.302
24.0509 7.979 0.288
24.0713 8.740 0.302
24.0918 8.521 0.298
24.1123 8.469 0.297
24.1327 9.146 0.309
24.1532 9.177 0.309
24.1736 8.354 0.295
24.1941 8.688 0.301
24.2146 8.750 0.302
24.2350 8.708 0.301
24.2555 8.771 0.302
24.2760 9.333 0.312
24.2964 10.323 0.328
24.3169 10.802 0.335
24.3373 10.948 0.338
24.3578 12.094 0.355
24.3783 11.427 0.345
24.3987 10.677 0.333
24.4192 9.854 0.320
24.4397 10.250 0.327
24.4601 9.479 0.314
24.4806 9.042 0.307
24.5011 9.000 0.306
24.5215 8.740 0.302
24.5420 8.302 0.294
24.5624 8.125 0.291
24.5829 8.531 0.298
24.6034 8.938 0.305
24.6238 7.854 0.286
24.6443 8.396 0.296
24.6648 8.031 0.289
24.6852 8.698 0.301
24.7057 8.823 0.303
24.7261 8.354 0.295
24.7466 7.917 0.287
24.7671 8.604 0.299
24.7875 8.896 0.304
24.8080 7.865 0.286
24.8285 7.552 0.280
24.8489 8.375 0.295
24.8694 8.083 0.290
24.8898 7.729 0.284
24.9103 7.792 0.285
24.9308 7.781 0.285
24.9512 8.115 0.291
24.9717 8.281 0.294
24.9922 7.729 0.284
25.0126 7.833 0.286
25.0331 8.094 0.290
25.0535 8.354 0.295
25.0740 8.490 0.297
25.0945 8.510 0.298
25.1149 8.448 0.297
25.1354 7.927 0.287
25.1559 8.021 0.289
25.1763 8.240 0.293
25.1968 7.323 0.276
25.2172 7.917 0.287
25.2377 7.594 0.281
25.2582 7.833 0.286
25.2786 7.313 0.276
25.2991 8.031 0.289
25.3196 7.719 0.284
25.3400 7.927 0.287
25.3605 7.708 0.283
25.3810 8.135 0.291
25.4014 8.104 0.291
25.4219 7.885 0.287
25.4423 7.354 0.277
25.4628 8.500 0.298
25.4833 7.667 0.283
25.5037 7.677 0.283
25.5242 7.573 0.281
25.5447 8.458 0.297
25.5651 8.604 0.299
25.5856 8.719 0.301
25.6060 9.458 0.314
25.6265 8.531 0.298
25.6470 8.521 0.298
25.6674 8.542 0.298
25.6879 8.958 0.305
25.7084 8.667 0.300
25.7288 8.469 0.297
25.7493 8.500 0.298
25.7697 7.917 0.287
25.7902 8.333 0.295
25.8107 8.490 0.297
25.8311 7.542 0.280
25.8516 8.250 0.293
25.8721 8.042 0.289
25.8925 7.615 0.282
25.9130 8.323 0.294
25.9334 7.792 0.285
25.9539 7.927 0.287
25.9744 8.354 0.295
25.9948 8.208 0.292
26.0153 7.969 0.288
26.0358 8.875 0.304
26.0562 8.323 0.294
26.0767 8.198 0.292
26.0971 7.677 0.283
26.1176 8.104 0.291
26.1381 8.052 0.290
26.1585 7.833 0.286
26.1790 8.271 0.294
26.1995 8.281 0.294
26.2199 8.240 0.293
26.2404 7.740 0.284
26.2609 7.625 0.282
26.2813 7.479 0.279
26.3018 8.365 0.295
26.3222 8.323 0.294
26.3427 8.260 0.293
26.3632 7.677 0.283
26.3836 8.625 0.300
26.4041 7.813 0.285
26.4246 7.531 0.280
26.4450 8.010 0.289
26.4655 7.865 0.286
26.4859 8.042 0.289
26.5064 7.719 0.284
26.5269 8.833 0.303
26.5473 8.260 0.293
26.5678 8.417 0.296
26.5883 8.177 0.292
26.6087 8.385 0.296
26.6292 8.635 0.300
26.6496 8.219 0.293
26.6701 8.510 0.298
26.6906 8.469 0.297
26.7110 8.000 0.289
26.7315 8.177 0.292
26.7520 8.427 0.296
26.7724 9.146 0.309
26.7929 8.875 0.304
26.8133 8.344 0.295
26.8338 8.948 0.305
26.8543 8.792 0.303
26.8747 8.875 0.304
26.8952 8.750 0.302
26.9157 8.719 0.301
26.9361 9.344 0.312
26.9566 10.833 0.336
26.9770 17.958 0.433
26.9975 18.729 0.442
27.0180 11.427 0.345
27.0384 12.260 0.357
27.0589 15.250 0.399
27.0794 10.875 0.337
27.0998 8.552 0.298
27.1203 8.542 0.298
27.1408 8.104 0.291
27.1612 7.979 0.288
27.1817 8.333 0.295
27.2021 8.708 0.301
27.2226 7.958 0.288
27.2431 8.521 0.298
27.2635 8.229 0.293
27.2840 8.177 0.292
27.3045 8.229 0.293
27.3249 8.031 0.289
27.3454 8.385 0.296
27.3658 8.031 0.289
27.3863 7.771 0.285
27.4068 8.667 0.300
27.4272 8.354 0.295
27.4477 8.208 0.292
27.4682 8.031 0.289
27.4886 8.281 0.294
27.5091 8.719 0.301
27.5295 8.229 0.293
27.5500 8.698 0.301
27.5705 8.583 0.299
27.5909 8.635 0.300
27.6114 9.094 0.308
27.6319 8.208 0.292
27.6523 7.917 0.287
27.6728 8.323 0.294
27.6932 8.667 0.300
27.7137 8.729 0.302
27.7342 8.865 0.304
27.7546 8.260 0.293
27.7751 8.271 0.294
27.7956 8.115 0.291
27.8160 8.208 0.292
27.8365 8.177 0.292
27.8569 8.208 0.292
27.8774 8.115 0.291
27.8979 8.510 0.298
27.9183 8.542 0.298
27.9388 7.583 0.281
27.9593 8.573 0.299
27.9797 8.615 0.300
28.0002 8.698 0.301
28.0207 8.438 0.296
28.0411 8.427 0.296
28.0616 8.177 0.292
28.0820 8.323 0.294
28.1025 7.917 0.287
28.1230 7.927 0.287
28.1434 7.604 0.281
28.1639 7.469 0.279
28.1844 8.208 0.292
28.2048 7.552 0.280
28.2253 7.938 0.288
28.2457 7.896 0.287
28.2662 8.010 0.289
28.2867 7.583 0.281
28.3071 7.802 0.285
28.3276 7.573 0.281
28.3481 7.698 0.283
28.3685 7.875 0.286
28.3890 7.573 0.281
28.4094 7.521 0.280
28.4299 7.313 0.276
28.4504 7.135 0.273
28.4708 8.063 0.290
28.4913 7.625 0.282
28.5118 7.167 0.273
28.5322 7.375 0.277
28.5527 7.115 0.272
28.5731 7.792 0.285
28.5936 7.906 0.287
28.6141 8.031 0.289
28.6345 7.323 0.276
28.6550 7.458 0.279
28.6755 7.406 0.278
28.6959 7.927 0.287
28.7164 7.521 0.280
28.7368 7.375 0.277
28.7573 7.635 0.282
28.7778 8.021 0.289
28.7982 7.427 0.278
28.8187 7.427 0.278
28.8392 7.406 0.278
28.8596 7.854 0.286
28.8801 7.948 0.288
28.9006 7.229 0.274
28.9210 7.000 0.270
28.9415 7.250 0.275
28.9619 7.000 0.270
28.9824 7.104 0.272
29.0029 7.115 0.272
29.0233 7.323 0.276
29.0438 7.323 0.276
29.0643 6.875 0.268
29.0847 7.396 0.278
29.1052 7.188 0.274
29.1256 7.375 0.277
29.1461 7.365 0.277
29.1666 7.885 0.287
29.1870 7.125 0.272
29.2075 7.302 0.276
29.2280 7.271 0.275
29.2484 7.688 0.283
29.2689 8.031 0.289
29.2893 8.458 0.297
29.3098 8.073 0.290
29.3303 8.875 0.304
29.3507 8.760 0.302
29.3712 8.917 0.305
29.3917 8.375 0.295
29.4121 7.688 0.283
29.4326 7.854 0.286
29.4530 7.771 0.285
29.4735 7.698 0.283
29.4940 7.667 0.283
29.5144 7.156 0.273
29.5349 7.594 0.281
29.5554 7.427 0.278
29.5758 7.052 0.271
29.5963 7.406 0.278
29.6168 7.156 0.273
29.6372 6.948 0.269
29.6577 6.958 0.269
29.6781 6.854 0.267
29.6986 7.115 0.272
29.7191 6.771 0.266
29.7395 7.073 0.271
29.7600 7.281 0.275
29.7805 7.063 0.271
29.8009 7.167 0.273
29.8214 6.938 0.269
29.8418 6.906 0.268
29.8623 6.719 0.265
29.8828 7.198 0.274
29.9032 6.760 0.265
29.9237 6.896 0.268
29.9442 6.719 0.265
29.9646 7.031 0.271
29.9851 7.417 0.278
30.0055 7.146 0.273
30.0260 6.823 0.267
30.0465 6.781 0.266
30.0669 7.260 0.275
30.0874 6.854 0.267
30.1079 7.063 0.271
30.1283 7.260 0.275
30.1488 6.813 0.266
30.1692 7.135 0.273
30.1897 6.729 0.265
30.2102 7.240 0.275
30.2306 6.583 0.262
30.2511 7.125 0.272
30.2716 7.260 0.275
30.2920 7.031 0.271
30.3125 6.802 0.266
30.3329 6.594 0.262
30.3534 6.688 0.264
30.3739 6.833 0.267
30.3943 7.188 0.274
30.4148 7.677 0.283
30.4353 7.010 0.270
30.4557 6.906 0.268
30.4762 6.979 0.270
30.4967 6.979 0.270
30.5171 6.792 0.266
30.5376 7.052 0.271
30.5580 7.021 0.270
30.5785 7.083 0.272
30.5990 7.375 0.277
30.6194 6.760 0.265
30.6399 6.771 0.266
30.6604 7.271 0.275
30.6808 7.125 0.272
30.7013 7.177 0.273
30.7217 6.667 0.264
30.7422 7.385 0.277
30.7627 7.594 0.281
30.7831 8.135 0.291
30.8036 8.052 0.290
30.8241 8.458 0.297
30.8445 8.573 0.299
30.8650 9.542 0.315
30.8854 9.688 0.318
30.9059 9.948 0.322
30.9264 12.021 0.354
30.9468 13.698 0.378
30.9673 17.750 0.430
30.9878 24.396 0.504
31.0082 35.271 0.606
31.0287 48.042 0.707
31.0491 57.969 0.777
31.0696 55.417 0.760
31.0901 47.021 0.700
31.1105 43.438 0.673
31.1310 37.490 0.625
31.1515 30.000 0.559
31.1719 22.906 0.488
31.1924 16.740 0.418
31.2128 12.573 0.362
31.2333 10.781 0.335
31.2538 10.240 0.327
31.2742 9.031 0.307
31.2947 8.250 0.293
31.3152 8.583 0.299
31.3356 8.302 0.294
31.3561 8.000 0.289
31.3766 8.104 0.291
31.3970 7.385 0.277
31.4175 7.760 0.284
31.4379 6.990 0.270
31.4584 7.354 0.277
31.4789 7.292 0.276
31.4993 6.844 0.267
31.5198 7.000 0.270
31.5403 6.552 0.261
31.5607 6.865 0.267
31.5812 7.052 0.271
31.6016 7.073 0.271
31.6221 6.844 0.267
31.6426 6.729 0.265
31.6630 6.708 0.264
31.6835 6.667 0.264
31.7040 6.698 0.264
31.7244 6.969 0.269
31.7449 7.073 0.271
31.7653 6.667 0.264
31.7858 7.146 0.273
31.8063 6.948 0.269
31.8267 6.813 0.266
31.8472 7.000 0.270
31.8677 7.365 0.277
31.8881 7.583 0.281
31.9086 6.615 0.262
31.9290 7.667 0.283
31.9495 6.969 0.269
31.9700 7.417 0.278
31.9904 7.896 0.287
32.0109 7.552 0.280
32.0314 7.094 0.272
32.0518 7.521 0.280
32.0723 8.260 0.293
32.0927 8.177 0.292
32.1132 8.594 0.299
32.1337 9.271 0.311
32.1541 8.760 0.302
32.1746 9.552 0.315
32.1951 8.500 0.298
32.2155 9.344 0.312
32.2360 9.000 0.306
32.2565 9.427 0.313
32.2769 9.240 0.310
32.2974 9.323 0.312
32.3178 8.875 0.304
32.3383 9.188 0.309
32.3588 8.760 0.302
32.3792 9.094 0.308
32.3997 9.094 0.308
32.4202 9.781 0.319
32.4406 10.167 0.325
32.4611 10.917 0.337
32.4815 12.010 0.354
32.5020 14.198 0.385
32.5225 14.167 0.384
32.5429 14.781 0.392
32.5634 16.729 0.417
32.5839 17.771 0.430
32.6043 20.490 0.462
32.6248 23.260 0.492
32.6452 24.240 0.502
32.6657 23.115 0.491
32.6862 19.542 0.451
32.7066 16.708 0.417
32.7271 15.469 0.401
32.7476 14.688 0.391
32.7680 11.625 0.348
32.7885 10.260 0.327
32.8089 8.750 0.302
32.8294 8.698 0.301
32.8499 8.240 0.293
32.8703 8.031 0.289
32.8908 7.760 0.284
32.9113 7.281 0.275
32.9317 7.229 0.274
32.9522 8.167 0.292
32.9726 7.177 0.273
32.9931 6.844 0.267
33.0136 6.979 0.270
33.0340 7.271 0.275
33.0545 6.250 0.255
33.0750 6.448 0.259
33.0954 6.885 0.268
33.1159 6.979 0.270
33.1364 6.750 0.265
33.1568 6.844 0.267
33.1773 6.833 0.267
33.1977 6.906 0.268
33.2182 6.969 0.269
33.2387 6.479 0.260
33.2591 6.385 0.258
33.2796 6.458 0.259
33.3001 6.521 0.261
33.3205 7.083 0.272
33.3410 7.229 0.274
33.3614 6.896 0.268
33.3819 7.177 0.273
33.4024 7.042 0.271
33.4228 6.760 0.265
33.4433 7.333 0.276
33.4638 7.094 0.272
33.4842 6.917 0.268
33.5047 6.698 0.264
33.5251 6.771 0.266
33.5456 6.969 0.269
33.5661 6.760 0.265
33.5865 6.240 0.255
33.6070 6.604 0.262
33.6275 6.219 0.255
33.6479 6.135 0.253
33.6684 6.542 0.261
33.6888 6.490 0.260
33.7093 6.510 0.260
33.7298 6.542 0.261
33.7502 6.198 0.254
33.7707 6.146 0.253
33.7912 7.073 0.271
33.8116 6.479 0.260
33.8321 6.854 0.267
33.8526 6.844 0.267
33.8730 7.844 0.286
33.8935 10.896 0.337
33.9139 12.010 0.354
33.9344 8.167 0.292
33.9549 7.448 0.279
33.9753 7.396 0.278
33.9958 9.396 0.313
34.0163 7.615 0.282
34.0367 6.875 0.268
34.0572 6.250 0.255
34.0776 7.010 0.270
34.0981 6.594 0.262
34.1186 6.146 0.253
34.1390 6.188 0.254
34.1595 6.417 0.259
34.1800 7.396 0.278
34.2004 6.438 0.259
34.2209 6.521 0.261
34.2413 6.844 0.267
34.2618 6.958 0.269
34.2823 6.688 0.264
34.3027 7.146 0.273
34.3232 7.313 0.276
34.3437 7.125 0.272
34.3641 6.594 0.262
34.3846 6.958 0.269
34.4050 7.260 0.275
34.4255 6.656 0.263
34.4460 5.844 0.247
34.4664 6.542 0.261
34.4869 6.073 0.252
34.5074 5.708 0.244
34.5278 6.333 0.257
34.5483 6.292 0.256
34.5687 6.271 0.256
34.5892 5.750 0.245
34.6097 6.177 0.254
34.6301 6.042 0.251
34.6506 6.240 0.255
34.6711 5.875 0.247
34.6915 5.823 0.246
34.7120 6.229 0.255
34.7325 6.219 0.255
34.7529 5.917 0.248
34.7734 6.104 0.252
34.7938 6.427 0.259
34.8143 6.313 0.256
34.8348 6.354 0.257
34.8552 6.458 0.259
34.8757 6.490 0.260
34.8962 6.927 0.269
34.9166 6.375 0.258
34.9371 6.406 0.258
34.9575 7.479 0.279
34.9780 7.750 0.284
34.9985 7.490 0.279
35.0189 8.198 0.292
35.0394 7.677 0.283
35.0599 7.802 0.285
35.0803 7.448 0.279
35.1008 7.719 0.284
35.1212 7.708 0.283
35.1417 7.865 0.286
35.1622 6.104 0.252
35.1826 6.865 0.267
35.2031 6.594 0.262
35.2236 6.771 0.266
35.2440 6.656 0.263
35.2645 6.823 0.267
35.2849 6.969 0.269
35.3054 6.896 0.268
35.3259 6.719 0.265
35.3463 6.896 0.268
35.3668 6.063 0.251
35.3873 6.656 0.263
35.4077 6.917 0.268
35.4282 6.333 0.257
35.4486 6.635 0.263
35.4691 6.490 0.260
35.4896 6.698 0.264
35.5100 6.708 0.264
35.5305 6.635 0.263
35.5510 7.083 0.272
35.5714 6.865 0.267
35.5919 6.896 0.268
35.6124 7.010 0.270
35.6328 6.667 0.264
35.6533 7.063 0.271
35.6737 6.927 0.269
35.6942 6.760 0.265
35.7147 7.177 0.273
35.7351 6.854 0.267
35.7556 7.406 0.278
35.7761 7.083 0.272
35.7965 7.354 0.277
35.8170 7.156 0.273
35.8374 7.990 0.288
35.8579 7.750 0.284
35.8784 8.000 0.289
35.8988 8.198 0.292
35.9193 7.625 0.282
35.9398 8.625 0.300
35.9602 8.708 0.301
35.9807 8.771 0.302
36.0011 9.677 0.317
36.0216 9.552 0.315
36.0421 10.385 0.329
36.0625 11.552 0.347
36.0830 12.573 0.362
36.1035 13.302 0.372
36.1239 13.740 0.378
36.1444 15.552 0.402
36.1648 16.010 0.408
36.1853 15.896 0.407
36.2058 16.490 0.414
36.2262 15.500 0.402
36.2467 15.500 0.402
36.2672 14.938 0.394
36.2876 15.563 0.403
36.3081 14.885 0.394
36.3285 15.646 0.404
36.3490 14.927 0.394
36.3695 14.917 0.394
36.3899 15.896 0.407
36.4104 16.458 0.414
36.4309 17.094 0.422
36.4513 18.323 0.437
36.4718 19.885 0.455
36.4923 20.948 0.467
36.5127 20.958 0.467
36.5332 22.063 0.479
36.5536 24.063 0.501
36.5741 25.146 0.512
36.5946 28.781 0.548
36.6150 31.417 0.572
36.6355 31.990 0.577
36.6560 27.885 0.539
36.6764 24.771 0.508
36.6969 24.188 0.502
36.7173 24.667 0.507
36.7378 22.583 0.485
36.7583 20.573 0.463
36.7787 18.656 0.441
36.7992 17.063 0.422
36.8197 16.677 0.417
36.8401 17.115 0.422
36.8606 16.927 0.420
36.8810 16.792 0.418
36.9015 17.521 0.427
36.9220 17.677 0.429
36.9424 18.479 0.439
36.9629 19.042 0.445
36.9834 20.823 0.466
37.0038 23.115 0.491
37.0243 24.594 0.506
37.0447 29.760 0.557
37.0652 32.885 0.585
37.0857 36.365 0.615
37.1061 36.698 0.618
37.1266 32.354 0.581
37.1471 28.365 0.544
37.1675 25.260 0.513
37.1880 25.406 0.514
37.2084 22.802 0.487
37.2289 18.625 0.440
37.2494 16.479 0.414
37.2698 14.698 0.391
37.2903 12.906 0.367
37.3108 12.802 0.365
37.3312 12.125 0.355
37.3517 11.583 0.347
37.3722 11.260 0.342
37.3926 10.865 0.336
37.4131 10.396 0.329
37.4335 11.844 0.351
37.4540 10.667 0.333
37.4745 11.229 0.342
37.4949 10.281 0.327
37.5154 10.375 0.329
37.5359 10.458 0.330
37.5563 10.844 0.336
37.5768 10.823 0.336
37.5972 10.740 0.334
37.6177 10.438 0.330
37.6382 10.656 0.333
37.6586 10.333 0.328
37.6791 10.646 0.333
37.6996 10.844 0.336
37.7200 10.333 0.328
37.7405 10.740 0.334
37.7609 10.417 0.329
37.7814 10.302 0.328
37.8019 10.792 0.335
37.8223 10.896 0.337
37.8428 10.656 0.333
37.8633 11.094 0.340
37.8837 11.229 0.342
37.9042 11.458 0.345
37.9246 11.292 0.343
37.9451 11.240 0.342
37.9656 12.708 0.364
37.9860 14.000 0.382
38.0065 14.885 0.394
38.0270 16.708 0.417
38.0474 17.323 0.425
38.0679 16.479 0.414
38.0884 15.979 0.408
38.1088 15.240 0.398
38.1293 15.448 0.401
38.1497 15.365 0.400
38.1702 14.469 0.388
38.1907 13.708 0.378
38.2111 13.646 0.377
38.2316 12.740 0.364
38.2521 12.781 0.365
38.2725 13.146 0.370
38.2930 12.208 0.357
38.3134 11.885 0.352
38.3339 12.281 0.358
38.3544 12.354 0.359
38.3748 12.104 0.355
38.3953 12.563 0.362
38.4158 12.063 0.354
38.4362 13.865 0.380
38.4567 15.375 0.400
38.4771 15.365 0.400
38.4976 15.208 0.398
38.5181 14.354 0.387
38.5385 13.271 0.372
38.5590 13.385 0.373
38.5795 12.958 0.367
38.5999 12.646 0.363
38.6204 12.458 0.360
38.6408 11.146 0.341
38.6613 10.906 0.337
38.6818 10.802 0.335
38.7022 10.333 0.328
38.7227 10.344 0.328
38.7432 10.458 0.330
38.7636 9.802 0.320
38.7841 10.083 0.324
38.8045 9.896 0.321
38.8250 9.615 0.316
38.8455 9.260 0.311
38.8659 9.406 0.313
38.8864 9.510 0.315
38.9069 9.198 0.310
38.9273 9.365 0.312
38.9478 9.135 0.308
38.9683 9.698 0.318
38.9887 9.927 0.322
39.0092 9.667 0.317
39.0296 9.385 0.313
39.0501 9.271 0.311
39.0706 8.958 0.305
39.0910 10.042 0.323
39.1115 9.542 0.315
39.1320 8.979 0.306
39.1524 9.260 0.311
39.1729 9.750 0.319
39.1933 9.542 0.315
39.2138 9.031 0.307
39.2343 9.198 0.310
39.2547 8.896 0.304
39.2752 9.188 0.309
39.2957 9.313 0.311
39.3161 8.969 0.306
39.3366 9.052 0.307
39.3570 9.677 0.317
39.3775 8.969 0.306
39.3980 9.594 0.316
39.4184 9.458 0.314
39.4389 10.021 0.323
39.4594 9.281 0.311
39.4798 9.365 0.312
39.5003 9.438 0.314
39.5207 10.333 0.328
39.5412 9.000 0.306
39.5617 9.719 0.318
39.5821 9.063 0.307
39.6026 8.833 0.303
39.6231 8.813 0.303
39.6435 9.042 0.307
39.6640 8.792 0.303
39.6844 9.406 0.313
39.7049 8.719 0.301
39.7254 9.271 0.311
39.7458 9.583 0.316
39.7663 10.760 0.335
39.7868 11.146 0.341
39.8072 11.542 0.347
39.8277 11.948 0.353
39.8482 11.729 0.350
39.8686 10.635 0.333
39.8891 10.260 0.327
39.9095 10.052 0.324
39.9300 10.135 0.325
39.9505 9.740 0.319
39.9709 9.479 0.314
39.9914 8.781 0.302
40.0119 9.646 0.317
40.0323 9.073 0.307
40.0528 8.927 0.305
40.0732 8.979 0.306
40.0937 8.771 0.302
40.1142 8.740 0.302
40.1346 9.552 0.315
40.1551 9.438 0.314
40.1756 9.146 0.309
40.1960 9.625 0.317
40.2165 9.708 0.318
40.2369 10.708 0.334
40.2574 11.219 0.342
40.2779 12.135 0.356
40.2983 13.063 0.369
40.3188 13.208 0.371
40.3393 11.625 0.348
40.3597 10.177 0.326
40.3802 10.750 0.335
40.4006 10.865 0.336
40.4211 10.813 0.336
40.4416 10.063 0.324
40.4620 9.750 0.319
40.4825 9.833 0.320
40.5030 9.292 0.311
40.5234 8.906 0.305
40.5439 8.875 0.304
40.5643 8.740 0.302
40.5848 8.656 0.300
40.6053 8.729 0.302
40.6257 8.552 0.298
40.6462 8.427 0.296
40.6667 8.844 0.304
40.6871 9.396 0.313
40.7076 8.677 0.301
40.7281 8.990 0.306
40.7485 8.469 0.297
40.7690 9.156 0.309
40.7894 8.094 0.290
40.8099 8.729 0.302
40.8304 9.188 0.309
40.8508 9.177 0.309
40.8713 9.521 0.315
40.8918 9.448 0.314
40.9122 10.219 0.326
40.9327 11.052 0.339
40.9531 14.073 0.383
40.9736 12.094 0.355
40.9941 10.521 0.331
41.0145 9.698 0.318
41.0350 10.260 0.327
41.0555 12.927 0.367
41.0759 12.365 0.359
41.0964 11.406 0.345
41.1168 12.490 0.361
41.1373 13.375 0.373
41.1578 13.615 0.377
41.1782 13.146 0.370
41.1987 11.906 0.352
41.2192 11.854 0.351
41.2396 11.375 0.344
41.2601 11.104 0.340
41.2805 11.052 0.339
41.3010 9.760 0.319
41.3215 9.354 0.312
41.3419 8.990 0.306
41.3624 8.781 0.302
41.3829 8.260 0.293
41.4033 8.635 0.300
41.4238 7.156 0.273
41.4442 7.792 0.285
41.4647 7.698 0.283
41.4852 7.781 0.285
41.5056 7.458 0.279
41.5261 7.344 0.277
41.5466 7.396 0.278
41.5670 7.323 0.276
41.5875 8.104 0.291
41.6080 7.510 0.280
41.6284 6.917 0.268
41.6489 7.490 0.279
41.6693 7.229 0.274
41.6898 7.375 0.277
41.7103 7.167 0.273
41.7307 7.229 0.274
41.7512 7.229 0.274
41.7717 7.667 0.283
41.7921 7.531 0.280
41.8126 7.615 0.282
41.8330 7.354 0.277
41.8535 7.073 0.271
41.8740 6.969 0.269
41.8944 7.073 0.271
41.9149 7.333 0.276
41.9354 7.542 0.280
41.9558 7.813 0.285
41.9763 7.323 0.276
41.9967 7.354 0.277
42.0172 7.500 0.280
42.0377 7.760 0.284
42.0581 7.125 0.272
42.0786 7.313 0.276
42.0991 7.375 0.277
42.1195 7.604 0.281
42.1400 7.323 0.276
42.1604 7.302 0.276
42.1809 7.219 0.274
42.2014 7.469 0.279
42.2218 7.792 0.285
42.2423 8.146 0.291
42.2628 8.250 0.293
42.2832 8.438 0.296
42.3037 8.688 0.301
42.3242 8.906 0.305
42.3446 9.219 0.310
42.3651 9.260 0.311
42.3855 9.667 0.317
42.4060 10.198 0.326
42.4265 9.323 0.312
42.4469 10.063 0.324
42.4674 9.917 0.321
42.4879 9.750 0.319
42.5083 9.958 0.322
42.5288 9.771 0.319
42.5492 9.229 0.310
42.5697 8.469 0.297
42.5902 8.719 0.301
42.6106 9.365 0.312
42.6311 8.573 0.299
42.6516 9.188 0.309
42.6720 9.333 0.312
42.6925 8.750 0.302
42.7129 9.125 0.308
42.7334 9.448 0.314
42.7539 8.417 0.296
42.7743 8.833 0.303
42.7948 8.667 0.300
42.8153 8.500 0.298
42.8357 8.448 0.297
42.8562 8.521 0.298
42.8766 8.542 0.298
42.8971 8.240 0.293
42.9176 8.438 0.296
42.9380 8.229 0.293
42.9585 8.250 0.293
42.9790 8.146 0.291
42.9994 7.646 0.282
43.0199 8.604 0.299
43.0403 8.219 0.293
43.0608 8.313 0.294
43.0813 7.990 0.288
43.1017 8.844 0.304
43.1222 8.760 0.302
43.1427 8.531 0.298
43.1631 9.240 0.310
43.1836 10.010 0.323
43.2041 10.448 0.330
43.2245 10.521 0.331
43.2450 10.292 0.327
43.2654 10.594 0.332
43.2859 10.000 0.323
43.3064 10.125 0.325
43.3268 10.250 0.327
43.3473 10.917 0.337
43.3678 11.031 0.339
43.3882 10.656 0.333
43.4087 10.583 0.332
43.4291 10.313 0.328
43.4496 10.552 0.332
43.4701 10.844 0.336
43.4905 12.052 0.354
43.5110 12.063 0.354
43.5315 13.333 0.373
43.5519 14.219 0.385
43.5724 15.240 0.398
43.5928 16.792 0.418
43.6133 18.458 0.438
43.6338 20.448 0.462
43.6542 21.813 0.477
43.6747 19.156 0.447
43.6952 18.281 0.436
43.7156 16.073 0.409
43.7361 15.802 0.406
43.7565 15.969 0.408
43.7770 14.771 0.392
43.7975 13.344 0.373
43.8179 11.354 0.344
43.8384 10.677 0.333
43.8589 9.750 0.319
43.8793 9.458 0.314
43.8998 9.344 0.312
43.9202 8.823 0.303
43.9407 8.813 0.303
43.9612 8.313 0.294
43.9816 8.083 0.290
44.0021 8.146 0.291
44.0226 7.844 0.286
44.0430 8.573 0.299
44.0635 8.708 0.301
44.0840 8.010 0.289
44.1044 8.250 0.293
44.1249 7.906 0.287
44.1453 8.177 0.292
44.1658 7.740 0.284
44.1863 7.563 0.281
44.2067 8.104 0.291
44.2272 7.240 0.275
44.2477 7.156 0.273
44.2681 8.583 0.299
44.2886 7.917 0.287
44.3090 7.875 0.286
44.3295 7.917 0.287
44.3500 7.948 0.288
44.3704 8.156 0.291
44.3909 8.104 0.291
44.4114 7.302 0.276
44.4318 7.615 0.282
44.4523 7.448 0.279
44.4727 7.604 0.281
44.4932 7.583 0.281
44.5137 6.844 0.267
44.5341 6.531 0.261
44.5546 7.896 0.287
44.5751 7.365 0.277
44.5955 7.125 0.272
44.6160 7.458 0.279
44.6364 7.490 0.279
44.6569 7.313 0.276
44.6774 6.906 0.268
44.6978 6.813 0.266
44.7183 7.021 0.270
44.7388 6.969 0.269
44.7592 7.094 0.272
44.7797 6.781 0.266
44.8001 7.292 0.276
44.8206 7.250 0.275
44.8411 7.406 0.278
44.8615 7.156 0.273
44.8820 7.323 0.276
44.9025 7.083 0.272
44.9229 7.073 0.271
44.9434 7.656 0.282
44.9639 7.385 0.277
44.9843 7.302 0.276
45.0048 7.104 0.272
45.0252 7.167 0.273
45.0457 7.573 0.281
45.0662 7.635 0.282
45.0866 7.385 0.277
45.1071 7.688 0.283
45.1276 7.594 0.281
45.1480 7.615 0.282
45.1685 8.719 0.301
45.1889 8.542 0.298
45.2094 9.135 0.308
45.2299 9.563 0.316
45.2503 10.625 0.333
45.2708 10.656 0.333
45.2913 9.740 0.319
45.3117 9.917 0.321
45.3322 9.406 0.313
45.3526 9.167 0.309
45.3731 8.917 0.305
45.3936 9.271 0.311
45.4140 8.792 0.303
45.4345 7.948 0.288
45.4550 7.594 0.281
45.4754 7.813 0.285
45.4959 7.635 0.282
45.5163 7.469 0.279
45.5368 7.323 0.276
45.5573 7.052 0.271
45.5777 6.719 0.265
45.5982 6.719 0.265
45.6187 7.281 0.275
45.6391 6.729 0.265
45.6596 6.417 0.259
45.6800 6.573 0.262
45.7005 6.948 0.269
45.7210 6.396 0.258
45.7414 6.385 0.258
45.7619 6.323 0.257
45.7824 5.938 0.249
45.8028 6.073 0.252
45.8233 6.229 0.255
45.8438 6.510 0.260
45.8642 6.146 0.253
45.8847 5.958 0.249
45.9051 6.469 0.260
45.9256 6.625 0.263
45.9461 6.458 0.259
45.9665 6.146 0.253
45.9870 6.448 0.259
46.0075 6.198 0.254
46.0279 6.094 0.252
46.0484 6.146 0.253
46.0688 5.594 0.241
46.0893 6.427 0.259
46.1098 6.354 0.257
46.1302 6.115 0.252
46.1507 5.938 0.249
46.1712 5.667 0.243
46.1916 6.385 0.258
46.2121 5.740 0.245
46.2325 5.969 0.249
46.2530 5.906 0.248
46.2735 6.281 0.256
46.2939 6.271 0.256
46.3144 5.927 0.248
46.3349 5.917 0.248
46.3553 5.792 0.246
46.3758 5.792 0.246
46.3962 5.927 0.248
46.4167 5.750 0.245
46.4372 5.906 0.248
46.4576 5.813 0.246
46.4781 6.052 0.251
46.4986 6.042 0.251
46.5190 5.688 0.243
46.5395 5.792 0.246
46.5600 6.031 0.251
46.5804 6.490 0.260
46.6009 6.135 0.253
46.6213 5.625 0.242
46.6418 5.750 0.245
46.6623 5.802 0.246
46.6827 5.823 0.246
46.7032 5.896 0.248
46.7237 5.688 0.243
46.7441 6.000 0.250
46.7646 6.229 0.255
46.7850 6.042 0.251
46.8055 6.208 0.254
46.8260 6.042 0.251
46.8464 6.344 0.257
46.8669 5.813 0.246
46.8874 6.333 0.257
46.9078 6.073 0.252
46.9283 5.833 0.247
46.9487 5.823 0.246
46.9692 6.281 0.256
46.9897 6.010 0.250
47.0101 6.385 0.258
47.0306 5.813 0.246
47.0511 6.052 0.251
47.0715 6.219 0.255
47.0920 5.563 0.241
47.1124 6.333 0.257
47.1329 6.219 0.255
47.1534 6.469 0.260
47.1738 6.146 0.253
47.1943 6.083 0.252
47.2148 6.479 0.260
47.2352 6.313 0.256
47.2557 6.385 0.258
47.2761 6.542 0.261
47.2966 6.656 0.263
47.3171 6.365 0.257
47.3375 6.354 0.257
47.3580 6.385 0.258
47.3785 6.979 0.270
47.3989 6.688 0.264
47.4194 6.958 0.269
47.4399 6.208 0.254
47.4603 7.240 0.275
47.4808 7.396 0.278
47.5012 7.115 0.272
47.5217 7.219 0.274
47.5422 7.865 0.286
47.5626 8.969 0.306
47.5831 9.198 0.310
47.6036 10.396 0.329
47.6240 11.594 0.348
47.6445 11.031 0.339
47.6649 11.021 0.339
47.6854 10.083 0.324
47.7059 9.813 0.320
47.7263 10.063 0.324
47.7468 9.906 0.321
47.7673 9.281 0.311
47.7877 9.240 0.310
47.8082 8.594 0.299
47.8286 8.365 0.295
47.8491 7.969 0.288
47.8696 7.458 0.279
47.8900 6.927 0.269
47.9105 7.844 0.286
47.9310 6.844 0.267
47.9514 6.760 0.265
47.9719 6.958 0.269
47.9923 6.917 0.268
48.0128 6.729 0.265
48.0333 6.906 0.268
48.0537 6.854 0.267
48.0742 6.990 0.270
48.0947 7.469 0.279
48.1151 6.729 0.265
48.1356 6.865 0.267
48.1560 7.385 0.277
48.1765 7.698 0.283
48.1970 7.156 0.273
48.2174 6.750 0.265
48.2379 7.000 0.270
48.2584 7.323 0.276
48.2788 7.156 0.273
48.2993 7.885 0.287
48.3198 7.365 0.277
48.3402 7.698 0.283
48.3607 7.844 0.286
48.3811 8.073 0.290
48.4016 7.458 0.279
48.4221 7.396 0.278
48.4425 8.260 0.293
48.4630 7.740 0.284
48.4835 7.365 0.277
48.5039 7.219 0.274
48.5244 7.167 0.273
48.5448 6.542 0.261
48.5653 6.813 0.266
48.5858 6.875 0.268
48.6062 6.354 0.257
48.6267 6.865 0.267
48.6472 6.833 0.267
48.6676 6.708 0.264
48.6881 7.156 0.273
48.7085 7.333 0.276
48.7290 7.167 0.273
48.7495 7.052 0.271
48.7699 7.156 0.273
48.7904 6.063 0.251
48.8109 6.458 0.259
48.8313 6.490 0.260
48.8518 6.156 0.253
48.8722 6.333 0.257
48.8927 5.885 0.248
48.9132 5.531 0.240
48.9336 6.073 0.252
48.9541 5.583 0.241
48.9746 5.406 0.237
48.9950 5.594 0.241
49.0155 5.490 0.239
49.0359 5.594 0.241
49.0564 5.250 0.234
49.0769 5.823 0.246
49.0973 5.656 0.243
49.1178 5.635 0.242
49.1383 5.302 0.235
49.1587 5.458 0.238
49.1792 5.854 0.247
49.1997 5.406 0.237
49.2201 5.750 0.245
49.2406 5.719 0.244
49.2610 5.771 0.245
49.2815 5.583 0.241
49.3020 4.969 0.228
49.3224 6.146 0.253
49.3429 5.323 0.235
49.3634 6.271 0.256
49.3838 6.521 0.261
49.4043 5.771 0.245
49.4247 6.125 0.253
49.4452 6.333 0.257
49.4657 5.885 0.248
49.4861 6.292 0.256
49.5066 6.896 0.268
49.5271 6.385 0.258
49.5475 6.542 0.261
49.5680 6.677 0.264
49.5884 6.042 0.251
49.6089 6.708 0.264
49.6294 7.344 0.277
49.6498 7.250 0.275
49.6703 7.677 0.283
49.6908 7.708 0.283
49.7112 7.896 0.287
49.7317 8.625 0.300
49.7521 8.510 0.298
49.7726 9.146 0.309
49.7931 11.573 0.347
49.8135 12.365 0.359
49.8340 14.198 0.385
49.8545 15.563 0.403
49.8749 16.469 0.414
49.8954 15.885 0.407
49.9158 14.229 0.385
49.9363 12.906 0.367
49.9568 12.896 0.367
49.9772 12.792 0.365
49.9977 13.469 0.375
50.0182 12.979 0.368
50.0386 11.958 0.353
50.0591 9.854 0.320
50.0796 10.500 0.331
50.1000 10.188 0.326
50.1205 8.948 0.305
50.1409 9.052 0.307
50.1614 9.240 0.310
50.1819 9.188 0.309
50.2023 10.302 0.328
50.2228 10.042 0.323
50.2433 9.979 0.322
50.2637 10.042 0.323
50.2842 9.219 0.310
50.3046 8.823 0.303
50.3251 8.677 0.301
50.3456 9.406 0.313
50.3660 9.240 0.310
50.3865 8.635 0.300
50.4070 8.677 0.301
50.4274 8.135 0.291
50.4479 7.865 0.286
50.4683 7.167 0.273
50.4888 8.073 0.290
50.5093 7.281 0.275
50.5297 7.521 0.280
50.5502 8.052 0.290
50.5707 7.302 0.276
50.5911 7.531 0.280
50.6116 7.500 0.280
50.6320 7.188 0.274
50.6525 7.781 0.285
50.6730 7.521 0.280
50.6934 8.396 0.296
50.7139 7.438 0.278
50.7344 7.813 0.285
50.7548 7.813 0.285
50.7753 7.792 0.285
50.7958 7.833 0.286
50.8162 7.563 0.281
50.8367 7.396 0.278
50.8571 7.104 0.272
50.8776 6.802 0.266
50.8981 6.969 0.269
50.9185 7.448 0.279
50.9390 7.313 0.276
50.9595 7.479 0.279
50.9799 8.000 0.289
51.0004 8.125 0.291
51.0208 7.510 0.280
51.0413 6.865 0.267
51.0618 6.969 0.269
51.0822 7.135 0.273
51.1027 6.573 0.262
51.1232 6.490 0.260
51.1436 6.865 0.267
51.1641 6.542 0.261
51.1845 6.333 0.257
51.2050 5.990 0.250
51.2255 6.865 0.267
51.2459 5.865 0.247
51.2664 6.625 0.263
51.2869 6.542 0.261
51.3073 6.677 0.264
51.3278 6.240 0.255
51.3482 6.521 0.261
51.3687 6.125 0.253
51.3892 6.104 0.252
51.4096 6.385 0.258
51.4301 6.177 0.254
51.4506 5.594 0.241
51.4710 6.271 0.256
51.4915 6.260 0.255
51.5119 5.625 0.242
51.5324 5.417 0.238
51.5529 5.771 0.245
51.5733 5.542 0.240
51.5938 5.885 0.248
51.6143 6.146 0.253
51.6347 6.896 0.268
51.6552 6.781 0.266
51.6757 6.875 0.268
51.6961 6.708 0.264
51.7166 7.167 0.273
51.7370 6.667 0.264
51.7575 6.042 0.251
51.7780 5.719 0.244
51.7984 6.000 0.250
51.8189 6.146 0.253
51.8394 6.240 0.255
51.8598 5.510 0.240
51.8803 5.719 0.244
51.9007 6.208 0.254
51.9212 5.729 0.244
51.9417 5.740 0.245
51.9621 5.240 0.234
51.9826 5.458 0.238
52.0031 5.135 0.231
52.0235 5.531 0.240
52.0440 5.302 0.235
52.0644 5.396 0.237
52.0849 5.500 0.239
52.1054 5.344 0.236
52.1258 5.229 0.233
52.1463 5.115 0.231
52.1668 5.458 0.238
52.1872 5.260 0.234
52.2077 5.375 0.237
52.2281 5.271 0.234
52.2486 4.833 0.224
52.2691 5.292 0.235
52.2895 5.135 0.231
52.3100 5.240 0.234
52.3305 5.656 0.243
52.3509 5.354 0.236
52.3714 5.760 0.245
52.3918 5.865 0.247
52.4123 5.708 0.244
52.4328 5.823 0.246
52.4532 5.167 0.232
52.4737 5.708 0.244
52.4942 5.354 0.236
52.5146 5.240 0.234
52.5351 5.177 0.232
52.5556 5.333 0.236
52.5760 5.563 0.241
52.5965 5.115 0.231
52.6169 5.365 0.236
52.6374 5.073 0.230
52.6579 4.698 0.221
52.6783 4.906 0.226
52.6988 4.844 0.225
52.7193 4.792 0.223
52.7397 4.990 0.228
52.7602 5.073 0.230
52.7806 5.063 0.230
52.8011 4.719 0.222
52.8216 4.771 0.223
52.8420 5.083 0.230
52.8625 4.760 0.223
52.8830 5.135 0.231
52.9034 4.740 0.222
52.9239 4.906 0.226
52.9443 4.854 0.225
52.9648 5.031 0.229
52.9853 4.885 0.226
53.0057 5.396 0.237
53.0262 4.938 0.227
53.0467 5.104 0.231
53.0671 4.885 0.226
53.0876 5.094 0.230
53.1080 5.073 0.230
53.1285 4.615 0.219
53.1490 5.219 0.233
53.1694 4.625 0.219
53.1899 5.135 0.231
53.2104 5.115 0.231
53.2308 4.406 0.214
53.2513 4.990 0.228
53.2717 5.135 0.231
53.2922 5.073 0.230
53.3127 5.177 0.232
53.3331 4.969 0.228
53.3536 4.979 0.228
53.3741 4.938 0.227
53.3945 5.010 0.228
53.4150 4.865 0.225
53.4355 4.469 0.216
53.4559 4.792 0.223
53.4764 4.594 0.219
53.4968 4.542 0.218
53.5173 4.760 0.223
53.5378 4.510 0.217
53.5582 4.469 0.216
53.5787 4.938 0.227
53.5992 4.552 0.218
53.6196 4.292 0.211
53.6401 4.531 0.217
53.6605 4.438 0.215
53.6810 4.979 0.228
53.7015 4.833 0.224
53.7219 4.448 0.215
53.7424 4.677 0.221
53.7629 4.750 0.222
53.7833 4.906 0.226
53.8038 4.417 0.214
53.8242 4.896 0.226
53.8447 4.417 0.214
53.8652 4.500 0.217
53.8856 4.594 0.219
53.9061 4.719 0.222
53.9266 4.573 0.218
53.9470 4.865 0.225
53.9675 4.760 0.223
53.9879 4.771 0.223
54.0084 4.625 0.219
54.0289 4.958 0.227
54.0493 5.125 0.231
54.0698 4.865 0.225
54.0903 4.792 0.223
54.1107 5.115 0.231
54.1312 5.333 0.236
54.1516 5.240 0.234
54.1721 5.094 0.230
54.1926 5.219 0.233
54.2130 5.313 0.235
54.2335 5.490 0.239
54.2540 5.000 0.228
54.2744 5.156 0.232
54.2949 4.729 0.222
54.3154 5.083 0.230
54.3358 5.135 0.231
54.3563 4.604 0.219
54.3767 4.917 0.226
54.3972 4.542 0.218
54.4177 4.604 0.219
54.4381 4.688 0.221
54.4586 4.677 0.221
54.4791 4.813 0.224
54.4995 4.896 0.226
54.5200 4.740 0.222
54.5404 4.771 0.223
54.5609 4.802 0.224
54.5814 4.885 0.226
54.6018 4.771 0.223
54.6223 4.656 0.220
54.6428 4.625 0.219
54.6632 4.760 0.223
54.6837 4.333 0.212
54.7041 5.042 0.229
54.7246 4.510 0.217
54.7451 4.917 0.226
54.7655 4.510 0.217
54.7860 4.427 0.215
54.8065 4.677 0.221
54.8269 4.313 0.212
54.8474 4.531 0.217
54.8678 4.073 0.206
54.8883 4.927 0.227
54.9088 4.948 0.227
54.9292 4.781 0.223
54.9497 5.323 0.235
54.9702 5.146 0.232
54.9906 5.250 0.234
55.0111 5.646 0.243
55.0316 6.156 0.253
55.0520 6.115 0.252
55.0725 6.927 0.269
55.0929 8.063 0.290
55.1134 8.500 0.298
55.1339 10.438 0.330
55.1543 12.625 0.363
55.1748 14.667 0.391
55.1953 17.354 0.425
55.2157 17.354 0.425
55.2362 16.563 0.415
55.2566 13.844 0.380
55.2771 13.042 0.369
55.2976 13.938 0.381
55.3180 12.760 0.365
55.3385 12.458 0.360
55.3590 11.854 0.351
55.3794 10.823 0.336
55.3999 9.542 0.315
55.4203 9.427 0.313
55.4408 8.125 0.291
55.4613 6.833 0.267
55.4817 6.177 0.254
55.5022 6.479 0.260
55.5227 5.938 0.249
55.5431 5.646 0.243
55.5636 5.750 0.245
55.5840 7.438 0.278
55.6045 7.094 0.272
55.6250 6.021 0.250
55.6454 5.365 0.236
55.6659 5.063 0.230
55.6864 5.177 0.232
55.7068 5.229 0.233
55.7273 5.500 0.239
55.7477 6.333 0.257
55.7682 5.698 0.244
55.7887 5.750 0.245
55.8091 5.292 0.235
55.8296 5.302 0.235
55.8501 5.260 0.234
55.8705 5.781 0.245
55.8910 5.813 0.246
55.9115 5.990 0.250
55.9319 6.188 0.254
55.9524 5.521 0.240
55.9728 5.688 0.243
55.9933 6.292 0.256
56.0138 6.021 0.250
56.0342 6.479 0.260
56.0547 6.917 0.268
56.0752 7.104 0.272
56.0956 7.354 0.277
56.1161 8.323 0.294
56.1365 8.802 0.303
56.1570 10.323 0.328
56.1775 11.375 0.344
56.1979 12.708 0.364
56.2184 12.792 0.365
56.2389 12.281 0.358
56.2593 10.417 0.329
56.2798 9.542 0.315
56.3002 9.156 0.309
56.3207 8.917 0.305
56.3412 8.302 0.294
56.3616 8.458 0.297
56.3821 8.583 0.299
56.4026 7.250 0.275
56.4230 6.594 0.262
56.4435 6.167 0.253
56.4639 5.167 0.232
56.4844 5.365 0.236
56.5049 4.729 0.222
56.5253 4.740 0.222
56.5458 4.844 0.225
56.5663 4.354 0.213
56.5867 4.615 0.219
56.6072 4.385 0.214
56.6276 4.323 0.212
56.6481 3.760 0.198
56.6686 4.510 0.217
56.6890 4.333 0.212
56.7095 4.052 0.205
56.7300 3.906 0.202
56.7504 4.271 0.211
56.7709 3.990 0.204
56.7914 4.208 0.209
56.8118 4.010 0.204
56.8323 4.208 0.209
56.8527 3.938 0.203
56.8732 4.010 0.204
56.8937 3.990 0.204
56.9141 4.167 0.208
56.9346 3.979 0.204
56.9551 4.313 0.212
56.9755 3.573 0.193
56.9960 4.333 0.212
57.0164 3.958 0.203
57.0369 4.010 0.204
57.0574 4.000 0.204
57.0778 4.198 0.209
57.0983 4.042 0.205
57.1188 3.927 0.202
57.1392 3.792 0.199
57.1597 3.823 0.200
57.1801 3.771 0.198
57.2006 3.990 0.204
57.2211 4.083 0.206
57.2415 3.781 0.198
57.2620 4.240 0.210
57.2825 3.656 0.195
57.3029 3.865 0.201
57.3234 3.938 0.203
57.3438 4.042 0.205
57.3643 3.927 0.202
57.3848 4.313 0.212
57.4052 4.135 0.208
57.4257 4.313 0.212
57.4462 4.292 0.211
57.4666 3.958 0.203
57.4871 4.323 0.212
57.5075 3.958 0.203
57.5280 4.073 0.206
57.5485 4.531 0.217
57.5689 4.510 0.217
57.5894 4.115 0.207
57.6099 4.521 0.217
57.6303 4.490 0.216
57.6508 4.302 0.212
57.6713 5.094 0.230
57.6917 4.302 0.212
57.7122 5.156 0.232
57.7326 5.156 0.232
57.7531 5.625 0.242
57.7736 5.271 0.234
57.7940 5.427 0.238
57.8145 5.823 0.246
57.8350 6.521 0.261
57.8554 6.688 0.264
57.8759 7.896 0.287
57.8963 8.010 0.289
57.9168 8.792 0.303
57.9373 9.281 0.311
57.9577 8.792 0.303
57.9782 8.021 0.289
57.9987 7.760 0.284
58.0191 6.979 0.270
58.0396 7.302 0.276
58.0600 7.469 0.279
58.0805 7.604 0.281
58.1010 7.125 0.272
58.1214 6.958 0.269
58.1419 6.177 0.254
58.1624 5.729 0.244
58.1828 5.500 0.239
58.2033 5.865 0.247
58.2237 5.917 0.248
58.2442 5.406 0.237
58.2647 4.896 0.226
58.2851 5.479 0.239
58.3056 4.781 0.223
58.3261 5.292 0.235
58.3465 5.146 0.232
58.3670 5.229 0.233
58.3874 5.094 0.230
58.4079 5.385 0.237
58.4284 4.885 0.226
58.4488 5.010 0.228
58.4693 5.073 0.230
58.4898 5.146 0.232
58.5102 5.083 0.230
58.5307 4.802 0.224
58.5512 5.104 0.231
58.5716 4.896 0.226
58.5921 4.781 0.223
58.6125 4.604 0.219
58.6330 4.885 0.226
58.6535 5.104 0.231
58.6739 5.208 0.233
58.6944 4.677 0.221
58.7149 5.115 0.231
58.7353 4.896 0.226
58.7558 4.813 0.224
58.7762 5.281 0.235
58.7967 5.406 0.237
58.8172 4.906 0.226
58.8376 4.990 0.228
58.8581 5.271 0.234
58.8786 5.552 0.240
58.8990 5.104 0.231
58.9195 5.354 0.236
58.9399 5.354 0.236
58.9604 5.510 0.240
58.9809 5.010 0.228
59.0013 5.563 0.241
59.0218 5.448 0.238
59.0423 5.208 0.233
59.0627 5.604 0.242
59.0832 5.354 0.236
59.1036 5.823 0.246
59.1241 6.115 0.252
59.1446 6.323 0.257
59.1650 6.792 0.266
59.1855 7.927 0.287
59.2060 7.573 0.281
59.2264 7.479 0.279
59.2469 6.906 0.268
59.2674 6.646 0.263
59.2878 5.448 0.238
59.3083 5.781 0.245
59.3287 5.844 0.247
59.3492 5.646 0.243
59.3697 5.583 0.241
59.3901 5.708 0.244
59.4106 5.844 0.247
59.4311 5.292 0.235
59.4515 4.573 0.218
59.4720 4.427 0.215
59.4924 4.323 0.212
59.5129 4.146 0.208
59.5334 4.365 0.213
59.5538 4.073 0.206
59.5743 4.490 0.216
59.5948 4.156 0.208
59.6152 3.688 0.196
59.6357 4.125 0.207
59.6561 3.948 0.203
59.6766 4.260 0.211
59.6971 3.969 0.203
59.7175 4.229 0.210
59.7380 4.094 0.207
59.7585 3.896 0.201
59.7789 4.885 0.226
59.7994 4.750 0.222
59.8198 5.010 0.228
59.8403 5.563 0.241
59.8608 5.438 0.238
59.8812 6.188 0.254
59.9017 6.031 0.251
59.9222 6.354 0.257
59.9426 5.729 0.244
59.9631 5.427 0.238
59.9835 5.219 0.233
60.0040 5.542 0.240
60.0245 5.698 0.244
60.0449 5.292 0.235
60.0654 6.063 0.251
60.0859 5.313 0.235
60.1063 5.333 0.236
60.1268 5.073 0.230
60.1473 4.792 0.223
60.1677 4.500 0.217
60.1882 4.156 0.208
60.2086 4.167 0.208
60.2291 4.083 0.206
60.2496 4.594 0.219
60.2700 4.417 0.214
60.2905 4.333 0.212
60.3110 4.385 0.214
60.3314 3.833 0.200
60.3519 4.479 0.216
60.3723 3.875 0.201
60.3928 4.198 0.209
60.4133 4.281 0.211
60.4337 4.344 0.213
60.4542 4.260 0.211
60.4747 4.365 0.213
60.4951 3.927 0.202
60.5156 4.010 0.204
60.5360 4.063 0.206
60.5565 4.052 0.205
60.5770 4.333 0.212
60.5974 4.521 0.217
60.6179 4.240 0.210
60.6384 4.708 0.221
60.6588 4.406 0.214
60.6793 4.385 0.214
60.6997 4.729 0.222
60.7202 4.500 0.217
60.7407 4.083 0.206
60.7611 4.333 0.212
60.7816 4.073 0.206
60.8021 3.750 0.198
60.8225 4.365 0.213
60.8430 4.531 0.217
60.8634 4.333 0.212
60.8839 4.250 0.210
60.9044 4.292 0.211
60.9248 3.958 0.203
60.9453 4.135 0.208
60.9658 3.865 0.201
60.9862 3.906 0.202
61.0067 3.396 0.188
61.0272 3.563 0.193
61.0476 3.531 0.192
61.0681 3.844 0.200
61.0885 3.500 0.191
61.1090 3.833 0.200
61.1295 3.406 0.188
61.1499 3.635 0.195
61.1704 3.500 0.191
61.1909 3.646 0.195
61.2113 3.281 0.185
61.2318 3.521 0.192
61.2522 3.333 0.186
61.2727 3.292 0.185
61.2932 3.229 0.183
61.3136 3.573 0.193
61.3341 3.510 0.191
61.3546 3.875 0.201
61.3750 3.656 0.195
61.3955 3.479 0.190
61.4159 3.021 0.177
61.4364 3.656 0.195
61.4569 3.646 0.195
61.4773 3.688 0.196
61.4978 3.698 0.196
61.5183 3.656 0.195
61.5387 3.469 0.190
61.5592 3.500 0.191
61.5796 3.479 0.190
61.6001 3.635 0.195
61.6206 3.510 0.191
61.6410 3.313 0.186
61.6615 3.688 0.196
61.6820 3.510 0.191
61.7024 3.385 0.188
61.7229 3.365 0.187
61.7433 3.031 0.178
61.7638 3.500 0.191
61.7843 3.573 0.193
61.8047 3.510 0.191
61.8252 3.333 0.186
61.8457 3.542 0.192
61.8661 3.010 0.177
61.8866 3.615 0.194
61.9071 3.375 0.188
61.9275 3.094 0.180
61.9480 3.500 0.191
61.9684 3.542 0.192
61.9889 3.604 0.194
62.0094 3.958 0.203
62.0298 3.813 0.199
62.0503 3.927 0.202
62.0708 4.073 0.206
62.0912 3.740 0.197
62.1117 4.104 0.207
62.1321 4.427 0.215
62.1526 4.583 0.219
62.1731 4.198 0.209
62.1935 4.229 0.210
62.2140 3.792 0.199
62.2345 4.177 0.209
62.2549 4.177 0.209
62.2754 4.083 0.206
62.2958 4.323 0.212
62.3163 4.333 0.212
62.3368 4.458 0.216
62.3572 4.115 0.207
62.3777 3.698 0.196
62.3982 4.021 0.205
62.4186 3.823 0.200
62.4391 3.563 0.193
62.4595 2.990 0.176
62.4800 3.729 0.197
62.5005 3.250 0.184
62.5209 3.635 0.195
62.5414 3.635 0.195
62.5619 3.823 0.200
62.5823 3.313 0.186
62.6028 3.365 0.187
62.6232 3.333 0.186
62.6437 3.344 0.187
62.6642 3.240 0.184
62.6846 3.760 0.198
62.7051 3.385 0.188
62.7256 3.542 0.192
62.7460 3.313 0.186
62.7665 3.698 0.196
62.7870 3.219 0.183
62.8074 3.448 0.190
62.8279 3.333 0.186
62.8483 3.729 0.197
62.8688 3.302 0.185
62.8893 3.344 0.187
62.9097 3.188 0.182
62.9302 3.406 0.188
62.9507 3.510 0.191
62.9711 3.635 0.195
62.9916 3.219 0.183
63.0120 3.635 0.195
63.0325 3.396 0.188
63.0530 3.469 0.190
63.0734 3.292 0.185
63.0939 3.708 0.197
63.1144 3.490 0.191
63.1348 3.583 0.193
63.1553 3.292 0.185
63.1757 3.698 0.196
63.1962 3.958 0.203
63.2167 3.885 0.201
63.2371 3.490 0.191
63.2576 3.719 0.197
63.2781 3.844 0.200
63.2985 3.354 0.187
63.3190 3.813 0.199
63.3394 3.813 0.199
63.3599 4.135 0.208
63.3804 3.844 0.200
63.4008 3.854 0.200
63.4213 3.927 0.202
63.4418 3.875 0.201
63.4622 3.938 0.203
63.4827 3.875 0.201
63.5032 4.042 0.205
63.5236 3.771 0.198
63.5441 3.802 0.199
63.5645 4.281 0.211
63.5850 4.469 0.216
63.6055 4.167 0.208
63.6259 3.927 0.202
63.6464 4.365 0.213
63.6669 4.458 0.216
63.6873 4.479 0.216
63.7078 4.760 0.223
63.7282 4.573 0.218
63.7487 4.844 0.225
63.7692 5.042 0.229
63.7896 4.385 0.214
63.8101 4.375 0.213
63.8306 4.771 0.223
63.8510 4.781 0.223
63.8715 4.510 0.217
63.8919 5.094 0.230
63.9124 4.823 0.224
63.9329 4.417 0.214
63.9533 4.750 0.222
63.9738 4.750 0.222
63.9943 4.938 0.227
64.0147 5.083 0.230
64.0352 5.073 0.230
64.0556 4.990 0.228
64.0761 4.802 0.224
64.0966 4.396 0.214
64.1170 4.406 0.214
64.1375 4.365 0.213
64.1580 4.188 0.209
64.1784 4.646 0.220
64.1989 4.302 0.212
64.2193 4.385 0.214
64.2398 4.448 0.215
64.2603 4.135 0.208
64.2807 4.188 0.209
64.3012 4.563 0.218
64.3217 4.625 0.219
64.3421 4.417 0.214
64.3626 4.302 0.212
64.3831 4.167 0.208
64.4035 4.073 0.206
64.4240 4.552 0.218
64.4444 4.698 0.221
64.4649 4.885 0.226
64.4854 4.917 0.226
64.5058 5.063 0.230
64.5263 4.667 0.220
64.5468 5.302 0.235
64.5672 5.198 0.233
64.5877 5.313 0.235
64.6081 6.510 0.260
64.6286 6.781 0.266
64.6491 8.021 0.289
64.6695 8.031 0.289
64.6900 8.177 0.292
64.7105 7.865 0.286
64.7309 7.260 0.275
64.7514 6.979 0.270
64.7718 6.760 0.265
64.7923 6.458 0.259
64.8128 6.021 0.250
64.8332 6.167 0.253
64.8537 5.656 0.243
64.8742 6.219 0.255
64.8946 5.719 0.244
64.9151 4.958 0.227
64.9355 4.938 0.227
64.9560 5.177 0.232
64.9765 4.615 0.219
64.9969 4.260 0.211
65.0174 4.177 0.209
65.0379 3.948 0.203
65.0583 4.042 0.205
65.0788 3.667 0.195
65.0992 3.833 0.200
65.1197 3.542 0.192
65.1402 4.000 0.204
65.1606 3.365 0.187
65.1811 4.177 0.209
65.2016 3.594 0.193
65.2220 4.271 0.211
65.2425 3.563 0.193
65.2630 3.531 0.192
65.2834 3.479 0.190
65.3039 3.958 0.203
65.3243 3.792 0.199
65.3448 3.292 0.185
65.3653 3.948 0.203
65.3857 3.896 0.201
65.4062 3.656 0.195
65.4267 3.958 0.203
65.4471 3.948 0.203
65.4676 4.177 0.209
65.4880 4.479 0.216
65.5085 4.469 0.216
65.5290 4.948 0.227
65.5494 4.938 0.227
65.5699 5.635 0.242
65.5904 5.031 0.229
65.6108 5.219 0.233
65.6313 5.104 0.231
65.6517 5.177 0.232
65.6722 4.875 0.225
65.6927 4.510 0.217
65.7131 4.427 0.215
65.7336 4.406 0.214
65.7541 4.656 0.220
65.7745 4.854 0.225
65.7950 4.875 0.225
65.8154 4.719 0.222
65.8359 4.469 0.216
65.8564 4.229 0.210
65.8768 3.896 0.201
65.8973 4.000 0.204
65.9178 3.469 0.190
65.9382 3.760 0.198
65.9587 3.823 0.200
65.9791 3.448 0.190
65.9996 3.969 0.203
66.0201 3.875 0.201
66.0405 3.854 0.200
66.0610 3.969 0.203
66.0815 3.469 0.190
66.1019 3.792 0.199
66.1224 3.510 0.191
66.1429 3.958 0.203
66.1633 3.688 0.196
66.1838 3.771 0.198
66.2042 3.438 0.189
66.2247 3.688 0.196
66.2452 3.781 0.198
66.2656 3.750 0.198
66.2861 3.417 0.189
66.3066 3.969 0.203
66.3270 3.948 0.203
66.3475 3.771 0.198
66.3679 3.656 0.195
66.3884 3.479 0.190
66.4089 3.552 0.192
66.4293 3.781 0.198
66.4498 3.521 0.192
66.4703 3.667 0.195
66.4907 3.625 0.194
66.5112 3.698 0.196
66.5316 3.438 0.189
66.5521 3.635 0.195
66.5726 3.490 0.191
66.5930 3.625 0.194
66.6135 3.573 0.193
66.6340 3.719 0.197
66.6544 3.406 0.188
66.6749 3.771 0.198
66.6953 3.635 0.195
66.7158 3.813 0.199
66.7363 3.500 0.191
66.7567 3.354 0.187
66.7772 3.604 0.194
66.7977 3.979 0.204
66.8181 4.052 0.205
66.8386 3.885 0.201
66.8590 3.854 0.200
66.8795 3.719 0.197
66.9000 3.656 0.195
66.9204 3.865 0.201
66.9409 3.750 0.198
66.9614 3.760 0.198
66.9818 4.156 0.208
67.0023 4.406 0.214
67.0228 5.073 0.230
67.0432 4.990 0.228
67.0637 5.792 0.246
67.0841 5.552 0.240
67.1046 6.573 0.262
67.1251 7.000 0.270
67.1455 7.927 0.287
67.1660 8.635 0.300
67.1865 8.406 0.296
67.2069 7.552 0.280
67.2274 7.052 0.271
67.2478 6.875 0.268
67.2683 6.375 0.258
67.2888 6.240 0.255
67.3092 6.198 0.254
67.3297 6.583 0.262
67.3502 6.552 0.261
67.3706 6.625 0.263
67.3911 5.615 0.242
67.4115 5.667 0.243
67.4320 5.156 0.232
67.4525 4.729 0.222
67.4729 4.979 0.228
67.4934 4.698 0.221
67.5139 4.313 0.212
67.5343 4.510 0.217
67.5548 4.104 0.207
67.5752 4.115 0.207
67.5957 4.281 0.211
67.6162 4.375 0.213
67.6366 4.208 0.209
67.6571 4.063 0.206
67.6776 4.542 0.218
67.6980 4.208 0.209
67.7185 4.198 0.209
67.7389 4.229 0.210
67.7594 4.542 0.218
67.7799 4.479 0.216
67.8003 4.573 0.218
67.8208 4.302 0.212
67.8413 4.010 0.204
67.8617 3.969 0.203
67.8822 4.240 0.210
67.9027 4.240 0.210
67.9231 3.979 0.204
67.9436 3.938 0.203
67.9640 4.490 0.216
67.9845 4.073 0.206
68.0050 4.021 0.205
68.0254 4.542 0.218
68.0459 4.594 0.219
68.0664 4.500 0.217
68.0868 4.531 0.217
68.1073 4.427 0.215
68.1277 4.698 0.221
68.1482 4.573 0.218
68.1687 4.438 0.215
68.1891 4.563 0.218
68.2096 4.635 0.220
68.2301 4.875 0.225
68.2505 4.240 0.210
68.2710 5.104 0.231
68.2914 4.781 0.223
68.3119 5.104 0.231
68.3324 5.323 0.235
68.3528 4.938 0.227
68.3733 5.052 0.229
68.3938 5.052 0.229
68.4142 4.729 0.222
68.4347 4.594 0.219
68.4551 4.656 0.220
68.4756 4.313 0.212
68.4961 4.448 0.215
68.5165 4.167 0.208
68.5370 4.167 0.208
68.5575 4.344 0.213
68.5779 4.292 0.211
68.5984 4.052 0.205
68.6189 4.198 0.209
68.6393 3.844 0.200
68.6598 3.500 0.191
68.6802 3.990 0.204
68.7007 3.625 0.194
68.7212 3.573 0.193
68.7416 3.854 0.200
68.7621 3.479 0.190
68.7826 3.365 0.187
68.8030 3.563 0.193
68.8235 3.948 0.203
68.8439 3.490 0.191
68.8644 3.729 0.197
68.8849 3.667 0.195
68.9053 4.156 0.208
68.9258 4.000 0.204
68.9463 3.958 0.203
68.9667 3.781 0.198
68.9872 4.542 0.218
69.0076 4.281 0.211
69.0281 4.271 0.211
69.0486 4.094 0.207
69.0690 3.854 0.200
69.0895 3.917 0.202
69.1100 3.844 0.200
69.1304 4.292 0.211
69.1509 3.990 0.204
69.1713 3.990 0.204
69.1918 3.906 0.202
69.2123 4.417 0.214
69.2327 4.542 0.218
69.2532 4.010 0.204
69.2737 4.552 0.218
69.2941 4.510 0.217
69.3146 3.698 0.196
69.3350 3.865 0.201
69.3555 3.281 0.185
69.3760 3.427 0.189
69.3964 3.521 0.192
69.4169 4.021 0.205
69.4374 4.052 0.205
69.4578 3.688 0.196
69.4783 3.604 0.194
69.4988 3.594 0.193
69.5192 3.458 0.190
69.5397 3.521 0.192
69.5601 3.177 0.182
69.5806 3.219 0.183
69.6011 2.885 0.173
69.6215 3.083 0.179
69.6420 3.146 0.181
69.6625 3.177 0.182
69.6829 3.271 0.185
69.7034 2.979 0.176
69.7238 3.302 0.185
69.7443 3.188 0.182
69.7648 3.167 0.182
69.7852 3.104 0.180
69.8057 3.208 0.183
69.8262 3.260 0.184
69.8466 3.167 0.182
69.8671 3.135 0.181
69.8875 3.125 0.180
69.9080 2.823 0.171
69.9285 2.990 0.176
69.9489 3.083 0.179
69.9694 2.917 0.174
69.9899 3.063 0.179
70.0103 3.292 0.185
70.0308 3.063 0.179
70.0512 3.031 0.178
70.0717 3.167 0.182
70.0922 2.865 0.173
70.1126 2.990 0.176
70.1331 3.063 0.179
70.1536 3.083 0.179
70.1740 3.094 0.180
70.1945 3.479 0.190
70.2149 2.896 0.174
70.2354 3.021 0.177
70.2559 2.979 0.176
70.2763 3.146 0.181
70.2968 2.979 0.176
70.3173 3.333 0.186
70.3377 3.021 0.177
70.3582 2.906 0.174
70.3787 2.823 0.171
70.3991 2.948 0.175
70.4196 2.958 0.176
70.4400 3.281 0.185
70.4605 3.135 0.181
70.4810 3.448 0.190
70.5014 2.938 0.175
70.5219 2.844 0.172
70.5424 3.396 0.188
70.5628 3.063 0.179
70.5833 3.104 0.180
70.6037 3.094 0.180
70.6242 3.021 0.177
70.6447 3.063 0.179
70.6651 3.104 0.180
70.6856 3.094 0.180
70.7061 3.146 0.181
70.7265 3.219 0.183
70.7470 3.427 0.189
70.7674 3.073 0.179
70.7879 2.958 0.176
70.8084 3.063 0.179
70.8288 3.229 0.183
70.8493 3.083 0.179
70.8698 3.010 0.177
70.8902 3.323 0.186
70.9107 2.906 0.174
70.9311 3.281 0.185
70.9516 3.135 0.181
70.9721 2.990 0.176
70.9925 3.375 0.188
71.0130 2.854 0.172
71.0335 2.750 0.169
71.0539 2.958 0.176
71.0744 3.208 0.183
71.0948 2.833 0.172
71.1153 3.104 0.180
71.1358 3.063 0.179
71.1562 3.271 0.185
71.1767 3.281 0.185
71.1972 3.031 0.178
71.2176 2.979 0.176
71.2381 2.813 0.171
71.2586 3.177 0.182
71.2790 3.104 0.180
71.2995 3.125 0.180
71.3199 2.896 0.174
71.3404 2.896 0.174
71.3609 2.792 0.171
71.3813 3.010 0.177
71.4018 2.719 0.168
71.4223 2.708 0.168
71.4427 2.885 0.173
71.4632 2.792 0.171
71.4836 2.740 0.169
71.5041 2.781 0.170
71.5246 2.833 0.172
71.5450 2.844 0.172
71.5655 2.500 0.161
71.5860 2.469 0.160
71.6064 2.698 0.168
71.6269 2.938 0.175
71.6473 2.667 0.167
71.6678 2.917 0.174
71.6883 2.896 0.174
71.7087 2.698 0.168
71.7292 2.802 0.171
71.7497 2.740 0.169
71.7701 3.031 0.178
71.7906 2.719 0.168
71.8110 2.583 0.164
71.8315 2.802 0.171
71.8520 2.969 0.176
71.8724 2.927 0.175
71.8929 2.667 0.167
71.9134 2.563 0.163
71.9338 2.521 0.162
71.9543 2.635 0.166
71.9747 2.594 0.164
71.9952 2.990 0.176
72.0157 2.865 0.173
72.0361 2.229 0.152
72.0566 2.854 0.172
72.0771 2.510 0.162
72.0975 2.615 0.165
72.1180 2.896 0.174
72.1385 2.740 0.169
72.1589 3.010 0.177
72.1794 2.792 0.171
72.1998 2.750 0.169
72.2203 2.708 0.168
72.2408 2.635 0.166
72.2612 2.688 0.167
72.2817 2.698 0.168
72.3022 3.031 0.178
72.3226 2.792 0.171
72.3431 2.760 0.170
72.3635 2.438 0.159
72.3840 2.771 0.170
72.4045 3.240 0.184
72.4249 2.708 0.168
72.4454 2.844 0.172
72.4659 2.958 0.176
72.4863 2.469 0.160
72.5068 2.396 0.158
72.5272 2.750 0.169
72.5477 2.615 0.165
72.5682 2.885 0.173
72.5886 2.656 0.166
72.6091 2.708 0.168
72.6296 2.542 0.163
72.6500 2.813 0.171
72.6705 3.083 0.179
72.6909 2.906 0.174
72.7114 2.708 0.168
72.7319 3.125 0.180
72.7523 2.750 0.169
72.7728 2.958 0.176
72.7933 3.125 0.180
72.8137 2.917 0.174
72.8342 3.354 0.187
72.8547 3.313 0.186
72.8751 3.063 0.179
72.8956 3.031 0.178
72.9160 3.125 0.180
72.9365 2.990 0.176
72.9570 2.844 0.172
72.9774 2.594 0.164
72.9979 2.802 0.171
73.0184 2.792 0.171
73.0388 2.740 0.169
73.0593 2.875 0.173
73.0797 3.031 0.178
73.1002 2.646 0.166
73.1207 2.604 0.165
73.1411 2.583 0.164
73.1616 2.604 0.165
73.1821 2.573 0.164
73.2025 2.854 0.172
73.2230 2.521 0.162
73.2434 2.688 0.167
73.2639 2.438 0.159
73.2844 2.250 0.153
73.3048 2.521 0.162
73.3253 2.833 0.172
73.3458 2.646 0.166
73.3662 2.490 0.161
73.3867 2.531 0.162
73.4071 2.375 0.157
73.4276 2.365 0.157
73.4481 2.448 0.160
73.4685 2.125 0.149
73.4890 2.490 0.161
73.5095 2.458 0.160
73.5299 2.385 0.158
73.5504 2.667 0.167
73.5708 2.313 0.155
73.5913 2.438 0.159
73.6118 2.469 0.160
73.6322 2.396 0.158
73.6527 2.604 0.165
73.6732 2.458 0.160
73.6936 2.417 0.159
73.7141 2.563 0.163
73.7346 2.594 0.164
73.7550 2.333 0.156
73.7755 2.333 0.156
73.7959 2.479 0.161
73.8164 2.396 0.158
73.8369 2.615 0.165
73.8573 2.667 0.167
73.8778 2.354 0.157
73.8983 2.552 0.163
73.9187 2.385 0.158
73.9392 2.521 0.162
73.9596 2.677 0.167
73.9801 2.521 0.162
74.0006 2.333 0.156
74.0210 2.333 0.156
74.0415 3.115 0.180
74.0620 2.729 0.169
74.0824 2.573 0.164
74.1029 3.073 0.179
74.1233 2.500 0.161
74.1438 2.844 0.172
74.1643 2.458 0.160
74.1847 2.917 0.174
74.2052 2.333 0.156
74.2257 2.396 0.158
74.2461 2.323 0.156
74.2666 2.656 0.166
74.2870 2.281 0.154
74.3075 2.625 0.165
74.3280 2.604 0.165
74.3484 2.823 0.171
74.3689 2.510 0.162
74.3894 2.646 0.166
74.4098 2.594 0.164
74.4303 2.500 0.161
74.4507 2.729 0.169
74.4712 2.333 0.156
74.4917 2.250 0.153
74.5121 2.583 0.164
74.5326 2.406 0.158
74.5531 2.542 0.163
74.5735 2.292 0.155
74.5940 2.583 0.164
74.6145 2.365 0.157
74.6349 2.396 0.158
74.6554 2.188 0.151
74.6758 2.396 0.158
74.6963 2.385 0.158
74.7168 2.510 0.162
74.7372 2.333 0.156
74.7577 2.229 0.152
74.7782 2.500 0.161
74.7986 2.438 0.159
74.8191 2.302 0.155
74.8395 2.146 0.150
74.8600 2.344 0.156
74.8805 2.448 0.160
74.9009 2.604 0.165
74.9214 2.375 0.157
74.9419 2.417 0.159
74.9623 2.302 0.155
74.9828 2.302 0.155
75.0032 2.542 0.163
75.0237 2.469 0.160
75.0442 2.365 0.157
75.0646 2.188 0.151
75.0851 2.563 0.163
75.1056 2.594 0.164
75.1260 2.219 0.152
75.1465 2.760 0.170
75.1669 2.594 0.164
75.1874 2.667 0.167
75.2079 2.490 0.161
75.2283 2.354 0.157
75.2488 2.563 0.163
75.2693 2.542 0.163
75.2897 2.469 0.160
75.3102 2.500 0.161
75.3306 2.844 0.172
75.3511 2.677 0.167
75.3716 2.677 0.167
75.3920 2.594 0.164
75.4125 2.594 0.164
75.4330 2.802 0.171
75.4534 2.844 0.172
75.4739 2.625 0.165
75.4944 2.688 0.167
75.5148 2.802 0.171
75.5353 2.990 0.176
75.5557 2.865 0.173
75.5762 3.188 0.182
75.5967 3.135 0.181
75.6171 3.167 0.182
75.6376 2.948 0.175
75.6581 3.333 0.186
75.6785 3.281 0.185
75.6990 3.469 0.190
75.7194 3.885 0.201
75.7399 4.271 0.211
75.7604 3.865 0.201
75.7808 4.458 0.216
75.8013 4.417 0.214
75.8218 4.313 0.212
75.8422 4.688 0.221
75.8627 4.344 0.213
75.8831 3.833 0.200
75.9036 3.469 0.190
75.9241 3.708 0.197
75.9445 3.135 0.181
75.9650 3.323 0.186
75.9855 3.635 0.195
76.0059 3.406 0.188
76.0264 3.719 0.197
76.0468 3.615 0.194
76.0673 3.677 0.196
76.0878 3.552 0.192
76.1082 3.063 0.179
76.1287 3.344 0.187
76.1492 2.688 0.167
76.1696 2.938 0.175
76.1901 3.063 0.179
76.2105 2.896 0.174
76.2310 2.771 0.170
76.2515 2.885 0.173
76.2719 2.635 0.166
76.2924 2.698 0.168
76.3129 2.698 0.168
76.3333 2.396 0.158
76.3538 2.677 0.167
76.3743 2.719 0.168
76.3947 2.604 0.165
76.4152 3.021 0.177
76.4356 2.729 0.169
76.4561 2.760 0.170
76.4766 2.823 0.171
76.4970 2.729 0.169
76.5175 2.625 0.165
76.5380 2.365 0.157
76.5584 2.583 0.164
76.5789 2.792 0.171
76.5993 2.510 0.162
76.6198 2.708 0.168
76.6403 2.688 0.167
76.6607 2.833 0.172
76.6812 2.740 0.169
76.7017 2.688 0.167
76.7221 2.479 0.161
76.7426 2.542 0.163
76.7630 2.406 0.158
76.7835 2.938 0.175
76.8040 2.583 0.164
76.8244 2.479 0.161
76.8449 2.667 0.167
76.8654 2.313 0.155
76.8858 2.406 0.158
76.9063 2.615 0.165
76.9267 2.896 0.174
76.9472 2.438 0.159
76.9677 2.885 0.173
76.9881 2.740 0.169
77.0086 2.844 0.172
77.0291 2.635 0.166
77.0495 2.438 0.159
77.0700 2.250 0.153
77.0905 2.615 0.165
77.1109 2.417 0.159
77.1314 2.688 0.167
77.1518 2.552 0.163
77.1723 2.583 0.164
77.1928 2.521 0.162
77.2132 2.760 0.170
77.2337 2.854 0.172
77.2542 2.615 0.165
77.2746 2.594 0.164
77.2951 2.531 0.162
77.3155 2.417 0.159
77.3360 2.771 0.170
77.3565 2.719 0.168
77.3769 2.677 0.167
77.3974 2.875 0.173
77.4179 2.865 0.173
77.4383 2.563 0.163
77.4588 3.146 0.181
77.4792 2.896 0.174
77.4997 3.375 0.188
77.5202 3.698 0.196
77.5406 3.344 0.187
77.5611 3.542 0.192
77.5816 3.271 0.185
77.6020 3.302 0.185
77.6225 3.417 0.189
77.6429 3.302 0.185
77.6634 3.104 0.180
77.6839 2.896 0.174
77.7043 3.031 0.178
77.7248 3.490 0.191
77.7453 3.219 0.183
77.7657 3.344 0.187
77.7862 3.063 0.179
77.8066 3.323 0.186
77.8271 3.010 0.177
77.8476 3.135 0.181
77.8680 3.240 0.184
77.8885 3.271 0.185
77.9090 2.875 0.173
77.9294 2.823 0.171
77.9499 2.948 0.175
77.9704 2.896 0.174
77.9908 3.167 0.182
78.0113 2.635 0.166
78.0317 2.729 0.169
78.0522 3.115 0.180
78.0727 3.094 0.180
78.0931 2.896 0.174
78.1136 3.052 0.178
78.1341 2.740 0.169
78.1545 3.021 0.177
78.1750 2.844 0.172
78.1954 2.906 0.174
78.2159 2.771 0.170
78.2364 2.802 0.171
78.2568 2.542 0.163
78.2773 3.208 0.183
78.2978 2.750 0.169
78.3182 2.885 0.173
78.3387 3.177 0.182
78.3591 2.677 0.167
78.3796 3.031 0.178
78.4001 2.833 0.172
78.4205 2.844 0.172
78.4410 3.135 0.181
78.4615 2.917 0.174
78.4819 2.927 0.175
78.5024 3.292 0.185
78.5228 3.354 0.187
78.5433 3.000 0.177
78.5638 2.938 0.175
78.5842 3.000 0.177
78.6047 2.760 0.170
78.6252 3.052 0.178
78.6456 3.031 0.178
78.6661 3.240 0.184
78.6865 3.010 0.177
78.7070 3.219 0.183
78.7275 2.969 0.176
78.7479 2.885 0.173
78.7684 2.969 0.176
78.7889 2.615 0.165
78.8093 2.667 0.167
78.8298 3.156 0.181
78.8503 2.833 0.172
78.8707 2.656 0.166
78.8912 3.135 0.181
78.9116 2.740 0.169
78.9321 2.677 0.167
78.9526 3.135 0.181
78.9730 2.969 0.176
78.9935 2.948 0.175
79.0140 3.198 0.183
79.0344 2.781 0.170
79.0549 2.927 0.175
79.0753 2.698 0.168
79.0958 2.698 0.168
79.1163 2.969 0.176
79.1367 3.250 0.184
79.1572 3.052 0.178
79.1777 2.740 0.169
79.1981 2.802 0.171
79.2186 2.833 0.172
79.2390 2.469 0.160
79.2595 3.042 0.178
79.2800 2.802 0.171
79.3004 2.792 0.171
79.3209 2.563 0.163
79.3414 3.000 0.177
79.3618 2.948 0.175
79.3823 3.052 0.178
79.4027 2.844 0.172
79.4232 3.000 0.177
79.4437 3.229 0.183
79.4641 2.958 0.176
79.4846 2.729 0.169
79.5051 3.198 0.183
79.5255 3.240 0.184
79.5460 3.292 0.185
79.5664 3.188 0.182
79.5869 3.104 0.180
79.6074 3.229 0.183
79.6278 2.896 0.174
79.6483 2.781 0.170
79.6688 3.010 0.177
79.6892 3.146 0.181
79.7097 2.885 0.173
79.7302 2.802 0.171
79.7506 2.802 0.171
79.7711 2.740 0.169
79.7915 2.615 0.165
79.8120 3.010 0.177
79.8325 2.813 0.171
79.8529 2.625 0.165
79.8734 3.177 0.182
79.8939 2.698 0.168
79.9143 2.698 0.168
79.9348 2.427 0.159
79.9552 3.000 0.177
79.9757 2.698 0.168
79.9962 2.823 0.171
