'Id: "" Comment: "" Operator: "Lab Manager" Anode: "Cu" Scantype: "Locked Coupled" TimePerStep: "96" X: "0" Y: "0" Z: "0" 
5.0000 24.719 0.507
5.0205 24.427 0.504
5.0409 25.229 0.513
5.0614 24.010 0.500
5.0819 24.646 0.507
5.1023 23.875 0.499
5.1228 25.313 0.513
5.1432 24.146 0.502
5.1637 24.875 0.509
5.1842 23.948 0.499
5.2046 24.427 0.504
5.2251 23.990 0.500
5.2456 23.531 0.495
5.2660 23.469 0.494
5.2865 23.625 0.496
5.3069 24.031 0.500
5.3274 23.740 0.497
5.3479 23.052 0.490
5.3683 22.885 0.488
5.3888 23.167 0.491
5.4093 23.406 0.494
5.4297 23.104 0.491
5.4502 23.802 0.498
5.4706 22.260 0.482
5.4911 23.094 0.490
5.5116 22.219 0.481
5.5320 23.073 0.490
5.5525 23.438 0.494
5.5730 23.073 0.490
5.5934 22.885 0.488
5.6139 22.875 0.488
5.6343 23.188 0.491
5.6548 22.333 0.482
5.6753 22.646 0.486
5.6957 23.219 0.492
5.7162 22.469 0.484
5.7367 23.042 0.490
5.7571 22.104 0.480
5.7776 23.010 0.490
5.7980 22.740 0.487
5.8185 23.552 0.495
5.8390 23.677 0.497
5.8594 22.344 0.482
5.8799 21.458 0.473
5.9004 22.333 0.482
5.9208 22.375 0.483
5.9413 22.323 0.482
5.9618 21.563 0.474
5.9822 23.198 0.492
6.0027 22.563 0.485
6.0231 22.542 0.485
6.0436 21.427 0.472
6.0641 20.865 0.466
6.0845 22.458 0.484
6.1050 21.531 0.474
6.1255 21.781 0.476
6.1459 21.760 0.476
6.1664 22.177 0.481
6.1868 21.531 0.474
6.2073 21.000 0.468
6.2278 21.271 0.471
6.2482 21.885 0.477
6.2687 22.063 0.479
6.2892 21.083 0.469
6.3096 21.656 0.475
6.3301 21.875 0.477
6.3505 22.313 0.482
6.3710 22.219 0.481
6.3915 21.594 0.474
6.4119 21.573 0.474
6.4324 22.260 0.482
6.4529 21.604 0.474
6.4733 21.885 0.477
6.4938 20.948 0.467
6.5142 22.167 0.481
6.5347 20.875 0.466
6.5552 21.104 0.469
6.5756 21.042 0.468
6.5961 21.802 0.477
6.6166 21.979 0.478
6.6370 21.844 0.477
6.6575 21.458 0.473
6.6779 21.906 0.478
6.6984 22.000 0.479
6.7189 21.063 0.468
6.7393 21.281 0.471
6.7598 22.063 0.479
6.7803 21.688 0.475
6.8007 22.010 0.479
6.8212 21.396 0.472
6.8417 21.146 0.469
6.8621 21.604 0.474
6.8826 21.854 0.477
6.9030 21.635 0.475
6.9235 22.031 0.479
6.9440 21.698 0.475
6.9644 21.177 0.470
6.9849 21.917 0.478
7.0054 21.583 0.474
7.0258 22.031 0.479
7.0463 21.896 0.478
7.0667 22.219 0.481
7.0872 21.344 0.472
7.1077 21.042 0.468
7.1281 21.917 0.478
7.1486 22.292 0.482
7.1691 22.198 0.481
7.1895 21.646 0.475
7.2100 21.406 0.472
7.2304 21.708 0.476
7.2509 22.354 0.483
7.2714 21.198 0.470
7.2918 22.146 0.480
7.3123 22.021 0.479
7.3328 22.167 0.481
7.3532 21.781 0.476
7.3737 21.875 0.477
7.3941 21.583 0.474
7.4146 21.771 0.476
7.4351 21.604 0.474
7.4555 21.615 0.475
7.4760 21.823 0.477
7.4965 22.146 0.480
7.5169 21.927 0.478
7.5374 21.740 0.476
7.5579 22.375 0.483
7.5783 22.292 0.482
7.5988 21.698 0.475
7.6192 21.479 0.473
7.6397 21.542 0.474
7.6602 21.573 0.474
7.6806 22.604 0.485
7.7011 22.333 0.482
7.7216 21.979 0.478
7.7420 22.500 0.484
7.7625 22.396 0.483
7.7829 22.156 0.480
7.8034 22.135 0.480
7.8239 22.021 0.479
7.8443 22.813 0.487
7.8648 22.698 0.486
7.8853 22.385 0.483
7.9057 22.844 0.488
7.9262 21.552 0.474
7.9466 22.323 0.482
7.9671 22.906 0.488
7.9876 22.490 0.484
8.0080 22.396 0.483
8.0285 21.396 0.472
8.0490 22.688 0.486
8.0694 22.406 0.483
8.0899 22.667 0.486
8.1103 22.813 0.487
8.1308 22.385 0.483
8.1513 22.313 0.482
8.1717 22.938 0.489
8.1922 23.240 0.492
8.2127 23.500 0.495
8.2331 23.729 0.497
8.2536 22.885 0.488
8.2740 21.781 0.476
8.2945 21.698 0.475
8.3150 22.917 0.489
8.3354 22.875 0.488
8.3559 22.417 0.483
8.3764 22.375 0.483
8.3968 22.573 0.485
8.4173 22.594 0.485
8.4378 22.000 0.479
8.4582 22.073 0.480
8.4787 22.510 0.484
8.4991 22.625 0.485
8.5196 22.865 0.488
8.5401 22.719 0.486
8.5605 23.052 0.490
8.5810 23.010 0.490
8.6015 23.594 0.496
8.6219 23.229 0.492
8.6424 22.583 0.485
8.6628 22.260 0.482
8.6833 23.094 0.490
8.7038 23.500 0.495
8.7242 24.302 0.503
8.7447 23.208 0.492
8.7652 23.865 0.499
8.7856 23.333 0.493
8.8061 22.667 0.486
8.8265 23.281 0.492
8.8470 24.406 0.504
8.8675 24.552 0.506
8.8879 24.875 0.509
8.9084 25.865 0.519
8.9289 27.281 0.533
8.9493 26.792 0.528
8.9698 25.823 0.519
8.9902 24.938 0.510
9.0107 25.229 0.513
9.0312 25.271 0.513
9.0516 25.833 0.519
9.0721 26.604 0.526
9.0926 26.844 0.529
9.1130 27.208 0.532
9.1335 29.323 0.553
9.1539 29.052 0.550
9.1744 30.635 0.565
9.1949 32.208 0.579
9.2153 33.302 0.589
9.2358 35.563 0.609
9.2563 39.552 0.642
9.2767 43.031 0.670
9.2972 47.438 0.703
9.3177 50.667 0.726
9.3381 52.292 0.738
9.3586 54.469 0.753
9.3790 55.156 0.758
9.3995 55.906 0.763
9.4200 56.583 0.768
9.4404 57.344 0.773
9.4609 58.302 0.779
9.4814 60.594 0.794
9.5018 63.635 0.814
9.5223 68.073 0.842
9.5427 73.125 0.873
9.5632 79.802 0.912
9.5837 85.802 0.945
9.6041 93.104 0.985
9.6246 100.563 1.023
9.6451 109.281 1.067
9.6655 118.042 1.109
9.6860 128.271 1.156
9.7064 143.469 1.222
9.7269 168.885 1.326
9.7474 202.771 1.453
9.7678 254.865 1.629
9.7883 343.979 1.893
9.8088 479.375 2.235
9.8292 685.656 2.672
9.8497 988.938 3.210
9.8701 1368.781 3.776
9.8906 1671.865 4.173
9.9111 1386.302 3.800
9.9315 824.115 2.930
9.9520 405.833 2.056
9.9725 229.500 1.546
9.9929 160.021 1.291
10.0134 122.042 1.128
10.0338 104.906 1.045
10.0543 92.604 0.982
10.0748 82.625 0.928
10.0952 74.792 0.883
10.1157 68.635 0.846
10.1362 60.052 0.791
10.1566 52.490 0.739
10.1771 45.063 0.685
10.1976 41.354 0.656
10.2180 41.292 0.656
10.2385 37.563 0.626
10.2589 37.865 0.628
10.2794 36.115 0.613
10.2999 35.354 0.607
10.3203 34.021 0.595
10.3408 33.521 0.591
10.3613 32.760 0.584
10.3817 32.125 0.578
10.4022 31.302 0.571
10.4226 32.229 0.579
10.4431 30.073 0.560
10.4636 29.688 0.556
10.4840 29.010 0.550
10.5045 29.219 0.552
10.5250 28.083 0.541
10.5454 28.073 0.541
10.5659 27.573 0.536
10.5863 27.313 0.533
10.6068 27.198 0.532
10.6273 27.990 0.540
10.6477 27.979 0.540
10.6682 27.625 0.536
10.6887 28.010 0.540
10.7091 26.438 0.525
10.7296 26.302 0.523
10.7500 25.917 0.520
10.7705 26.865 0.529
10.7910 25.771 0.518
10.8114 24.823 0.508
10.8319 24.656 0.507
10.8524 24.240 0.502
10.8728 24.813 0.508
10.8933 24.271 0.503
10.9137 24.177 0.502
10.9342 25.156 0.512
10.9547 23.604 0.496
10.9751 23.771 0.498
10.9956 23.688 0.497
11.0161 22.760 0.487
11.0365 22.552 0.485
11.0570 22.906 0.488
11.0775 21.823 0.477
11.0979 22.813 0.487
11.1184 22.156 0.480
11.1388 21.604 0.474
11.1593 21.333 0.471
11.1798 22.458 0.484
11.2002 22.146 0.480
11.2207 21.479 0.473
11.2412 21.104 0.469
11.2616 21.635 0.475
11.2821 20.917 0.467
11.3025 21.438 0.473
11.3230 20.583 0.463
11.3435 20.646 0.464
11.3639 20.698 0.464
11.3844 20.479 0.462
11.4049 19.719 0.453
11.4253 20.729 0.465
11.4458 21.073 0.469
11.4662 19.969 0.456
11.4867 19.990 0.456
11.5072 19.781 0.454
11.5276 19.156 0.447
11.5481 19.740 0.453
11.5686 19.719 0.453
11.5890 19.156 0.447
11.6095 19.063 0.446
11.6299 19.365 0.449
11.6504 19.479 0.450
11.6709 19.292 0.448
11.6913 18.396 0.438
11.7118 18.688 0.441
11.7323 18.031 0.433
11.7527 17.771 0.430
11.7732 18.531 0.439
11.7937 17.458 0.426
11.8141 17.531 0.427
11.8346 17.240 0.424
11.8550 18.458 0.438
11.8755 17.396 0.426
11.8960 17.167 0.423
11.9164 16.948 0.420
11.9369 16.833 0.419
11.9574 16.531 0.415
11.9778 16.833 0.419
11.9983 16.740 0.418
12.0187 15.854 0.406
12.0392 16.719 0.417
12.0597 16.740 0.418
12.0801 16.198 0.411
12.1006 16.198 0.411
12.1211 16.125 0.410
12.1415 15.604 0.403
12.1620 15.896 0.407
12.1824 16.135 0.410
12.2029 15.313 0.399
12.2234 16.031 0.409
12.2438 14.854 0.393
12.2643 15.719 0.405
12.2848 15.302 0.399
12.3052 15.385 0.400
12.3257 15.729 0.405
12.3461 15.010 0.395
12.3666 16.010 0.408
12.3871 14.438 0.388
12.4075 14.948 0.395
12.4280 14.677 0.391
12.4485 15.031 0.396
12.4689 14.385 0.387
12.4894 13.885 0.380
12.5098 14.740 0.392
12.5303 14.615 0.390
12.5508 13.885 0.380
12.5712 14.479 0.388
12.5917 14.021 0.382
12.6122 14.292 0.386
12.6326 13.990 0.382
12.6531 13.927 0.381
12.6736 14.146 0.384
12.6940 13.875 0.380
12.7145 13.552 0.376
12.7349 13.740 0.378
12.7554 13.917 0.381
12.7759 13.427 0.374
12.7963 12.927 0.367
12.8168 13.406 0.374
12.8373 13.625 0.377
12.8577 14.083 0.383
12.8782 12.948 0.367
12.8986 13.375 0.373
12.9191 13.271 0.372
12.9396 12.906 0.367
12.9600 13.229 0.371
12.9805 12.917 0.367
13.0010 12.563 0.362
13.0214 12.885 0.366
13.0419 12.615 0.362
13.0623 12.323 0.358
13.0828 12.542 0.361
13.1033 12.500 0.361
13.1237 12.385 0.359
13.1442 12.594 0.362
13.1647 12.760 0.365
13.1851 12.979 0.368
13.2056 12.427 0.360
13.2260 12.031 0.354
13.2465 12.458 0.360
13.2670 12.708 0.364
13.2874 12.490 0.361
13.3079 12.177 0.356
13.3284 12.156 0.356
13.3488 12.156 0.356
13.3693 11.906 0.352
13.3897 11.552 0.347
13.4102 12.500 0.361
13.4307 11.938 0.353
13.4511 11.542 0.347
13.4716 12.479 0.361
13.4921 11.833 0.351
13.5125 12.042 0.354
13.5330 11.583 0.347
13.5535 11.854 0.351
13.5739 11.302 0.343
13.5944 11.281 0.343
13.6148 12.031 0.354
13.6353 11.552 0.347
13.6558 11.281 0.343
13.6762 11.042 0.339
13.6967 11.563 0.347
13.7172 10.958 0.338
13.7376 11.167 0.341
13.7581 11.167 0.341
13.7785 10.354 0.328
13.7990 11.000 0.339
13.8195 11.729 0.350
13.8399 11.260 0.342
13.8604 11.281 0.343
13.8809 10.958 0.338
13.9013 11.229 0.342
13.9218 11.281 0.343
13.9422 11.021 0.339
13.9627 11.344 0.344
13.9832 10.479 0.330
14.0036 11.094 0.340
14.0241 11.208 0.342
14.0446 10.208 0.326
14.0650 10.458 0.330
14.0855 11.115 0.340
14.1059 10.917 0.337
14.1264 10.969 0.338
14.1469 10.979 0.338
14.1673 10.760 0.335
14.1878 10.740 0.334
14.2083 10.323 0.328
14.2287 10.594 0.332
14.2492 10.656 0.333
14.2696 10.740 0.334
14.2901 10.198 0.326
14.3106 11.000 0.339
14.3310 10.750 0.335
14.3515 10.667 0.333
14.3720 9.927 0.322
14.3924 10.323 0.328
14.4129 10.250 0.327
14.4334 9.510 0.315
14.4538 10.375 0.329
14.4743 10.510 0.331
14.4947 10.771 0.335
14.5152 9.990 0.323
14.5357 10.198 0.326
14.5561 10.865 0.336
14.5766 9.823 0.320
14.5971 10.135 0.325
14.6175 9.604 0.316
14.6380 10.281 0.327
14.6584 9.813 0.320
14.6789 10.260 0.327
14.6994 10.219 0.326
14.7198 10.260 0.327
14.7403 10.250 0.327
14.7608 10.094 0.324
14.7812 9.906 0.321
14.8017 9.719 0.318
14.8221 9.927 0.322
14.8426 9.281 0.311
14.8631 9.635 0.317
14.8835 9.635 0.317
14.9040 9.688 0.318
14.9245 9.896 0.321
14.9449 9.521 0.315
14.9654 9.969 0.322
14.9858 9.896 0.321
15.0063 9.813 0.320
15.0268 9.542 0.315
15.0472 9.385 0.313
15.0677 10.042 0.323
15.0882 9.396 0.313
15.1086 9.365 0.312
15.1291 8.979 0.306
15.1495 9.021 0.307
15.1700 9.240 0.310
15.1905 9.760 0.319
15.2109 9.229 0.310
15.2314 9.135 0.308
15.2519 9.396 0.313
15.2723 9.604 0.316
15.2928 9.396 0.313
15.3133 9.021 0.307
15.3337 8.625 0.300
15.3542 9.156 0.309
15.3746 9.479 0.314
15.3951 9.167 0.309
15.4156 9.396 0.313
15.4360 9.219 0.310
15.4565 8.906 0.305
15.4770 9.438 0.314
15.4974 9.125 0.308
15.5179 8.833 0.303
15.5383 9.385 0.313
15.5588 9.208 0.310
15.5793 8.708 0.301
15.5997 9.208 0.310
15.6202 9.083 0.308
15.6407 8.667 0.300
15.6611 9.271 0.311
15.6816 8.615 0.300
15.7020 8.979 0.306
15.7225 8.990 0.306
15.7430 8.792 0.303
15.7634 9.042 0.307
15.7839 9.115 0.308
15.8044 8.958 0.305
15.8248 9.385 0.313
15.8453 9.167 0.309
15.8657 8.542 0.298
15.8862 9.031 0.307
15.9067 8.521 0.298
15.9271 8.521 0.298
15.9476 8.438 0.296
15.9681 8.542 0.298
15.9885 8.604 0.299
16.0090 8.771 0.302
16.0295 8.208 0.292
16.0499 8.573 0.299
16.0704 8.708 0.301
16.0908 9.167 0.309
16.1113 8.938 0.305
16.1318 8.667 0.300
16.1522 8.917 0.305
16.1727 8.719 0.301
16.1932 8.354 0.295
16.2136 8.833 0.303
16.2341 8.479 0.297
16.2545 8.323 0.294
16.2750 8.688 0.301
16.2955 8.896 0.304
16.3159 8.958 0.305
16.3364 8.458 0.297
16.3569 8.865 0.304
16.3773 8.396 0.296
16.3978 8.885 0.304
16.4182 8.885 0.304
16.4387 8.417 0.296
16.4592 8.958 0.305
16.4796 9.104 0.308
16.5001 9.031 0.307
16.5206 8.448 0.297
16.5410 8.615 0.300
16.5615 9.167 0.309
16.5819 8.594 0.299
16.6024 9.313 0.311
16.6229 8.740 0.302
16.6433 8.333 0.295
16.6638 8.542 0.298
16.6843 8.510 0.298
16.7047 9.031 0.307
16.7252 8.844 0.304
16.7456 8.354 0.295
16.7661 8.146 0.291
16.7866 8.500 0.298
16.8070 7.979 0.288
16.8275 8.823 0.303
16.8480 8.604 0.299
16.8684 8.833 0.303
16.8889 8.490 0.297
16.9094 8.104 0.291
16.9298 8.677 0.301
16.9503 8.615 0.300
16.9707 8.458 0.297
16.9912 8.635 0.300
17.0117 8.458 0.297
17.0321 9.052 0.307
17.0526 8.302 0.294
17.0731 8.708 0.301
17.0935 8.771 0.302
17.1140 8.260 0.293
17.1344 7.938 0.288
17.1549 8.448 0.297
17.1754 8.240 0.293
17.1958 8.354 0.295
17.2163 9.292 0.311
17.2368 9.458 0.314
17.2572 9.667 0.317
17.2777 10.385 0.329
17.2981 10.635 0.333
17.3186 10.844 0.336
17.3391 10.802 0.335
17.3595 10.740 0.334
17.3800 9.688 0.318
17.4005 9.646 0.317
17.4209 9.375 0.313
17.4414 8.917 0.305
17.4618 9.198 0.310
17.4823 8.635 0.300
17.5028 8.104 0.291
17.5232 8.927 0.305
17.5437 8.646 0.300
17.5642 8.677 0.301
17.5846 8.500 0.298
17.6051 8.823 0.303
17.6255 8.865 0.304
17.6460 8.979 0.306
17.6665 8.594 0.299
17.6869 8.792 0.303
17.7074 9.500 0.315
17.7279 9.344 0.312
17.7483 9.729 0.318
17.7688 10.010 0.323
17.7893 10.115 0.325
17.8097 9.875 0.321
17.8302 10.323 0.328
17.8506 10.333 0.328
17.8711 11.010 0.339
17.8916 11.667 0.349
17.9120 11.677 0.349
17.9325 11.406 0.345
17.9530 11.448 0.345
17.9734 12.219 0.357
17.9939 13.396 0.374
18.0143 14.260 0.385
18.0348 16.594 0.416
18.0553 19.625 0.452
18.0757 22.323 0.482
18.0962 22.854 0.488
18.1167 20.917 0.467
18.1371 22.156 0.480
18.1576 22.958 0.489
18.1780 26.792 0.528
18.1985 33.573 0.591
18.2190 43.344 0.672
18.2394 57.677 0.775
18.2599 77.208 0.897
18.2804 103.646 1.039
18.3008 123.885 1.136
18.3213 119.865 1.117
18.3417 100.292 1.022
18.3622 78.656 0.905
18.3827 57.281 0.772
18.4031 39.833 0.644
18.4236 30.885 0.567
18.4441 25.083 0.511
18.4645 22.021 0.479
18.4850 19.063 0.446
18.5054 17.781 0.430
18.5259 16.750 0.418
18.5464 16.813 0.418
18.5668 16.292 0.412
18.5873 16.313 0.412
18.6078 15.563 0.403
18.6282 15.688 0.404
18.6487 16.104 0.410
18.6692 16.615 0.416
18.6896 16.354 0.413
18.7101 16.354 0.413
18.7305 15.531 0.402
18.7510 16.156 0.410
18.7715 15.500 0.402
18.7919 15.396 0.400
18.8124 15.198 0.398
18.8329 14.375 0.387
18.8533 13.854 0.380
18.8738 14.688 0.391
18.8942 15.354 0.400
18.9147 14.635 0.390
18.9352 14.563 0.389
18.9556 14.573 0.390
18.9761 14.146 0.384
18.9966 13.500 0.375
19.0170 14.313 0.386
19.0375 13.656 0.377
19.0579 14.469 0.388
19.0784 14.125 0.384
19.0989 14.729 0.392
19.1193 14.885 0.394
19.1398 15.052 0.396
19.1603 15.833 0.406
19.1807 16.438 0.414
19.2012 15.302 0.399
19.2216 15.990 0.408
19.2421 16.583 0.416
19.2626 16.000 0.408
19.2830 15.938 0.407
19.3035 16.563 0.415
19.3240 16.281 0.412
19.3444 17.260 0.424
19.3649 17.708 0.429
19.3853 18.323 0.437
19.4058 18.688 0.441
19.4263 17.969 0.433
19.4467 18.948 0.444
19.4672 19.271 0.448
19.4877 20.771 0.465
19.5081 22.198 0.481
19.5286 24.229 0.502
19.5491 26.365 0.524
19.5695 28.542 0.545
19.5900 30.292 0.562
19.6104 33.010 0.586
19.6309 35.521 0.608
19.6514 38.615 0.634
19.6718 44.229 0.679
19.6923 51.208 0.730
19.7128 62.417 0.806
19.7332 81.719 0.923
19.7537 108.625 1.064
19.7741 159.167 1.288
19.7946 245.365 1.599
19.8151 361.240 1.940
19.8355 453.323 2.173
19.8560 370.531 1.965
19.8765 292.698 1.746
19.8969 222.292 1.522
19.9174 126.073 1.146
19.9378 74.854 0.883
19.9583 54.292 0.752
19.9788 44.615 0.682
19.9992 39.542 0.642
20.0197 34.708 0.601
20.0402 31.010 0.568
20.0606 30.031 0.559
20.0811 27.104 0.531
20.1015 24.302 0.503
20.1220 22.542 0.485
20.1425 21.448 0.473
20.1629 21.677 0.475
20.1834 22.052 0.479
20.2039 25.625 0.517
20.2243 27.896 0.539
20.2448 34.250 0.597
20.2653 41.698 0.659
20.2857 47.333 0.702
20.3062 48.906 0.714
20.3266 45.500 0.688
20.3471 39.479 0.641
20.3676 33.000 0.586
20.3880 28.250 0.542
20.4085 23.458 0.494
20.4290 21.021 0.468
20.4494 20.719 0.465
20.4699 21.083 0.469
20.4903 22.656 0.486
20.5108 26.156 0.522
20.5313 27.490 0.535
20.5517 28.250 0.542
20.5722 25.677 0.517
20.5927 21.781 0.476
20.6131 19.094 0.446
20.6336 16.010 0.408
20.6540 13.854 0.380
20.6745 12.906 0.367
20.6950 11.792 0.350
20.7154 11.375 0.344
20.7359 10.698 0.334
20.7564 11.500 0.346
20.7768 10.083 0.324
20.7973 11.135 0.341
20.8177 10.500 0.331
20.8382 9.479 0.314
20.8587 10.104 0.324
20.8791 9.656 0.317
20.8996 9.406 0.313
20.9201 9.115 0.308
20.9405 9.427 0.313
20.9610 9.292 0.311
20.9814 10.010 0.323
21.0019 9.156 0.309
21.0224 9.021 0.307
21.0428 8.917 0.305
21.0633 8.854 0.304
21.0838 8.323 0.294
21.1042 9.281 0.311
21.1247 8.948 0.305
21.1452 8.719 0.301
21.1656 8.802 0.303
21.1861 8.521 0.298
21.2065 8.313 0.294
21.2270 8.688 0.301
21.2475 8.552 0.298
21.2679 8.375 0.295
21.2884 8.604 0.299
21.3089 8.896 0.304
21.3293 8.833 0.303
21.3498 9.240 0.310
21.3702 9.031 0.307
21.3907 9.344 0.312
21.4112 8.938 0.305
21.4316 9.198 0.310
21.4521 9.260 0.311
21.4726 9.125 0.308
21.4930 9.073 0.307
21.5135 8.875 0.304
21.5339 9.354 0.312
21.5544 9.677 0.317
21.5749 8.958 0.305
21.5953 8.958 0.305
21.6158 8.792 0.303
21.6363 9.125 0.308
21.6567 8.948 0.305
21.6772 8.479 0.297
21.6976 9.010 0.306
21.7181 9.188 0.309
21.7386 9.000 0.306
21.7590 9.646 0.317
21.7795 9.531 0.315
21.8000 9.292 0.311
21.8204 9.906 0.321
21.8409 10.219 0.326
21.8613 9.417 0.313
21.8818 10.396 0.329
21.9023 10.958 0.338
21.9227 11.000 0.339
21.9432 11.438 0.345
21.9637 11.802 0.351
21.9841 11.656 0.348
22.0046 12.281 0.358
22.0251 13.958 0.381
22.0455 14.583 0.390
22.0660 16.344 0.413
22.0864 20.073 0.457
22.1069 26.563 0.526
22.1274 35.969 0.612
22.1478 53.010 0.743
22.1683 73.917 0.877
22.1888 89.625 0.966
22.2092 81.615 0.922
22.2297 68.042 0.842
22.2501 56.844 0.769
22.2706 40.396 0.649
22.2911 28.313 0.543
22.3115 21.469 0.473
22.3320 17.865 0.431
22.3525 16.115 0.410
22.3729 14.594 0.390
22.3934 14.438 0.388
22.4138 12.531 0.361
22.4343 11.958 0.353
22.4548 12.104 0.355
22.4752 11.635 0.348
22.4957 11.063 0.339
22.5162 10.479 0.330
22.5366 9.708 0.318
22.5571 9.750 0.319
22.5775 9.219 0.310
22.5980 9.271 0.311
22.6185 9.698 0.318
22.6389 9.417 0.313
22.6594 9.365 0.312
22.6799 9.438 0.314
22.7003 9.365 0.312
22.7208 9.094 0.308
22.7412 9.906 0.321
22.7617 9.260 0.311
22.7822 8.792 0.303
22.8026 9.031 0.307
22.8231 8.979 0.306
22.8436 8.396 0.296
22.8640 8.677 0.301
22.8845 8.448 0.297
22.9050 8.656 0.300
22.9254 8.521 0.298
22.9459 8.208 0.292
22.9663 8.802 0.303
22.9868 8.260 0.293
23.0073 8.250 0.293
23.0277 8.625 0.300
23.0482 8.750 0.302
23.0687 8.479 0.297
23.0891 8.073 0.290
23.1096 7.927 0.287
23.1300 7.969 0.288
23.1505 8.510 0.298
23.1710 8.292 0.294
23.1914 8.219 0.293
23.2119 8.292 0.294
23.2324 8.688 0.301
23.2528 8.344 0.295
23.2733 7.823 0.285
23.2937 8.271 0.294
23.3142 8.719 0.301
23.3347 8.167 0.292
23.3551 8.375 0.295
23.3756 7.760 0.284
23.3961 8.094 0.290
23.4165 8.354 0.295
23.4370 7.448 0.279
23.4574 8.042 0.289
23.4779 8.292 0.294
23.4984 8.813 0.303
23.5188 8.479 0.297
23.5393 8.240 0.293
23.5598 8.167 0.292
23.5802 8.479 0.297
23.6007 8.469 0.297
23.6211 8.500 0.298
23.6416 8.177 0.292
23.6621 8.167 0.292
23.6825 7.958 0.288
23.7030 7.583 0.281
23.7235 8.083 0.290
23.7439 8.000 0.289
23.7644 7.229 0.274
23.7849 7.490 0.279
23.8053 7.865 0.286
23.8258 7.281 0.275
23.8462 7.469 0.279
23.8667 7.271 0.275
23.8872 7.208 0.274
23.9076 7.427 0.278
23.9281 7.167 0.273
23.9486 7.573 0.281
23.9690 7.188 0.274
23.9895 7.448 0.279
24.0099 6.948 0.269
24.0304 7.271 0.275
24.0509 7.031 0.271
24.0713 7.260 0.275
24.0918 7.688 0.283
24.1123 7.708 0.283
24.1327 7.469 0.279
24.1532 7.844 0.286
24.1736 7.969 0.288
24.1941 7.760 0.284
24.2146 8.156 0.291
24.2350 8.521 0.298
24.2555 9.896 0.321
24.2760 10.583 0.332
24.2964 12.771 0.365
24.3169 14.938 0.394
24.3373 15.083 0.396
24.3578 14.313 0.386
24.3783 12.865 0.366
24.3987 11.729 0.350
24.4192 10.229 0.326
24.4397 8.979 0.306
24.4601 8.385 0.296
24.4806 7.521 0.280
24.5011 7.344 0.277
24.5215 7.417 0.278
24.5420 7.073 0.271
24.5624 7.333 0.276
24.5829 6.896 0.268
24.6034 7.167 0.273
24.6238 6.406 0.258
24.6443 7.073 0.271
24.6648 7.021 0.270
24.6852 6.792 0.266
24.7057 6.625 0.263
24.7261 7.063 0.271
24.7466 7.010 0.270
24.7671 6.375 0.258
24.7875 6.656 0.263
24.8080 6.583 0.262
24.8285 6.833 0.267
24.8489 6.052 0.251
24.8694 6.542 0.261
24.8898 6.385 0.258
24.9103 7.083 0.272
24.9308 6.958 0.269
24.9512 6.875 0.268
24.9717 6.604 0.262
24.9922 6.594 0.262
25.0126 6.677 0.264
25.0331 6.625 0.263
25.0535 6.542 0.261
25.0740 7.198 0.274
25.0945 6.656 0.263
25.1149 6.240 0.255
25.1354 7.052 0.271
25.1559 6.490 0.260
25.1763 6.771 0.266
25.1968 6.260 0.255
25.2172 6.167 0.253
25.2377 6.073 0.252
25.2582 6.406 0.258
25.2786 6.219 0.255
25.2991 6.115 0.252
25.3196 6.469 0.260
25.3400 6.729 0.265
25.3605 6.635 0.263
25.3810 6.583 0.262
25.4014 6.250 0.255
25.4219 6.052 0.251
25.4423 6.583 0.262
25.4628 6.646 0.263
25.4833 6.531 0.261
25.5037 6.125 0.253
25.5242 6.188 0.254
25.5447 6.271 0.256
25.5651 6.677 0.264
25.5856 6.479 0.260
25.6060 6.917 0.268
25.6265 6.219 0.255
25.6470 6.865 0.267
25.6674 6.667 0.264
25.6879 6.365 0.257
25.7084 6.125 0.253
25.7288 6.177 0.254
25.7493 6.427 0.259
25.7697 6.708 0.264
25.7902 6.396 0.258
25.8107 5.865 0.247
25.8311 6.406 0.258
25.8516 6.104 0.252
25.8721 6.604 0.262
25.8925 6.281 0.256
25.9130 6.438 0.259
25.9334 6.073 0.252
25.9539 6.438 0.259
25.9744 6.510 0.260
25.9948 6.208 0.254
26.0153 6.396 0.258
26.0358 6.396 0.258
26.0562 6.094 0.252
26.0767 6.563 0.261
26.0971 6.698 0.264
26.1176 6.563 0.261
26.1381 6.292 0.256
26.1585 6.865 0.267
26.1790 6.563 0.261
26.1995 6.479 0.260
26.2199 6.583 0.262
26.2404 6.719 0.265
26.2609 6.865 0.267
26.2813 7.198 0.274
26.3018 6.844 0.267
26.3222 6.760 0.265
26.3427 7.052 0.271
26.3632 7.063 0.271
26.3836 7.500 0.280
26.4041 7.906 0.287
26.4246 7.677 0.283
26.4450 8.063 0.290
26.4655 9.385 0.313
26.4859 10.052 0.324
26.5064 10.427 0.330
26.5269 11.083 0.340
26.5473 10.698 0.334
26.5678 10.844 0.336
26.5883 9.740 0.319
26.6087 9.427 0.313
26.6292 9.708 0.318
26.6496 8.615 0.300
26.6701 8.563 0.299
26.6906 8.708 0.301
26.7110 7.927 0.287
26.7315 8.354 0.295
26.7520 8.313 0.294
26.7724 8.177 0.292
26.7929 9.135 0.308
26.8133 9.969 0.322
26.8338 10.604 0.332
26.8543 11.177 0.341
26.8747 12.865 0.366
26.8952 12.667 0.363
26.9157 12.656 0.363
26.9361 11.698 0.349
26.9566 12.698 0.364
26.9770 11.021 0.339
26.9975 9.969 0.322
27.0180 9.083 0.308
27.0384 8.125 0.291
27.0589 8.125 0.291
27.0794 8.271 0.294
27.0998 7.104 0.272
27.1203 7.510 0.280
27.1408 6.917 0.268
27.1612 6.708 0.264
27.1817 6.604 0.262
27.2021 7.167 0.273
27.2226 6.458 0.259
27.2431 6.573 0.262
27.2635 5.813 0.246
27.2840 6.313 0.256
27.3045 6.219 0.255
27.3249 6.167 0.253
27.3454 7.021 0.270
27.3658 6.260 0.255
27.3863 6.240 0.255
27.4068 6.146 0.253
27.4272 5.938 0.249
27.4477 5.781 0.245
27.4682 6.250 0.255
27.4886 5.896 0.248
27.5091 5.750 0.245
27.5295 6.042 0.251
27.5500 5.938 0.249
27.5705 6.010 0.250
27.5909 6.323 0.257
27.6114 6.219 0.255
27.6319 6.010 0.250
27.6523 6.146 0.253
27.6728 6.438 0.259
27.6932 6.167 0.253
27.7137 6.740 0.265
27.7342 6.229 0.255
27.7546 6.771 0.266
27.7751 6.667 0.264
27.7956 6.750 0.265
27.8160 6.490 0.260
27.8365 6.833 0.267
27.8569 7.135 0.273
27.8774 8.271 0.294
27.8979 8.583 0.299
27.9183 8.438 0.296
27.9388 9.167 0.309
27.9593 9.938 0.322
27.9797 10.271 0.327
28.0002 11.313 0.343
28.0207 10.542 0.331
28.0411 10.625 0.333
28.0616 10.250 0.327
28.0820 10.094 0.324
28.1025 8.406 0.296
28.1230 9.094 0.308
28.1434 7.917 0.287
28.1639 7.854 0.286
28.1844 7.219 0.274
28.2048 6.792 0.266
28.2253 6.656 0.263
28.2457 6.604 0.262
28.2662 6.594 0.262
28.2867 6.594 0.262
28.3071 6.385 0.258
28.3276 6.667 0.264
28.3481 6.688 0.264
28.3685 6.510 0.260
28.3890 6.948 0.269
28.4094 7.521 0.280
28.4299 6.750 0.265
28.4504 7.115 0.272
28.4708 7.406 0.278
28.4913 6.656 0.263
28.5118 6.896 0.268
28.5322 7.292 0.276
28.5527 7.115 0.272
28.5731 6.646 0.263
28.5936 6.958 0.269
28.6141 6.885 0.268
28.6345 6.927 0.269
28.6550 7.198 0.274
28.6755 6.875 0.268
28.6959 7.729 0.284
28.7164 7.615 0.282
28.7368 8.073 0.290
28.7573 8.219 0.293
28.7778 7.583 0.281
28.7982 8.333 0.295
28.8187 7.292 0.276
28.8392 7.521 0.280
28.8596 6.469 0.260
28.8801 6.271 0.256
28.9006 5.948 0.249
28.9210 6.125 0.253
28.9415 6.146 0.253
28.9619 6.031 0.251
28.9824 5.896 0.248
29.0029 5.823 0.246
29.0233 6.104 0.252
29.0438 5.469 0.239
29.0643 5.927 0.248
29.0847 5.594 0.241
29.1052 6.073 0.252
29.1256 6.125 0.253
29.1461 5.948 0.249
29.1666 5.729 0.244
29.1870 6.271 0.256
29.2075 5.635 0.242
29.2280 6.573 0.262
29.2484 6.563 0.261
29.2689 6.333 0.257
29.2893 6.073 0.252
29.3098 5.917 0.248
29.3303 6.938 0.269
29.3507 6.854 0.267
29.3712 6.156 0.253
29.3917 6.563 0.261
29.4121 6.146 0.253
29.4326 5.865 0.247
29.4530 6.010 0.250
29.4735 5.917 0.248
29.4940 5.198 0.233
29.5144 5.531 0.240
29.5349 5.635 0.242
29.5554 5.771 0.245
29.5758 5.229 0.233
29.5963 5.552 0.240
29.6168 5.396 0.237
29.6372 5.406 0.237
29.6577 5.646 0.243
29.6781 5.323 0.235
29.6986 5.656 0.243
29.7191 5.479 0.239
29.7395 5.333 0.236
29.7600 5.792 0.246
29.7805 5.938 0.249
29.8009 5.406 0.237
29.8214 5.500 0.239
29.8418 5.375 0.237
29.8623 5.656 0.243
29.8828 6.115 0.252
29.9032 6.167 0.253
29.9237 6.240 0.255
29.9442 6.646 0.263
29.9646 6.021 0.250
29.9851 6.063 0.251
30.0055 6.094 0.252
30.0260 5.833 0.247
30.0465 5.740 0.245
30.0669 5.396 0.237
30.0874 5.563 0.241
30.1079 5.688 0.243
30.1283 5.365 0.236
30.1488 5.385 0.237
30.1692 5.708 0.244
30.1897 5.583 0.241
30.2102 5.646 0.243
30.2306 5.427 0.238
30.2511 5.396 0.237
30.2716 5.521 0.240
30.2920 5.448 0.238
30.3125 5.406 0.237
30.3329 5.625 0.242
30.3534 5.771 0.245
30.3739 5.990 0.250
30.3943 5.729 0.244
30.4148 5.635 0.242
30.4353 5.583 0.241
30.4557 5.500 0.239
30.4762 5.344 0.236
30.4967 5.865 0.247
30.5171 5.719 0.244
30.5376 5.469 0.239
30.5580 5.573 0.241
30.5785 5.552 0.240
30.5990 5.438 0.238
30.6194 5.583 0.241
30.6399 5.313 0.235
30.6604 5.438 0.238
30.6808 5.677 0.243
30.7013 5.927 0.248
30.7217 5.760 0.245
30.7422 6.292 0.256
30.7627 6.771 0.266
30.7831 6.542 0.261
30.8036 6.844 0.267
30.8241 6.771 0.266
30.8445 7.865 0.286
30.8650 7.823 0.285
30.8854 8.469 0.297
30.9059 8.938 0.305
30.9264 11.240 0.342
30.9468 15.177 0.398
30.9673 22.052 0.479
30.9878 33.146 0.588
31.0082 51.250 0.731
31.0287 62.438 0.806
31.0491 51.177 0.730
31.0696 38.750 0.635
31.0901 37.917 0.628
31.1105 36.052 0.613
31.1310 25.802 0.518
31.1515 16.469 0.414
31.1719 10.938 0.338
31.1924 9.000 0.306
31.2128 8.271 0.294
31.2333 7.271 0.275
31.2538 7.083 0.272
31.2742 6.583 0.262
31.2947 6.052 0.251
31.3152 6.510 0.260
31.3356 5.792 0.246
31.3561 5.802 0.246
31.3766 5.135 0.231
31.3970 5.552 0.240
31.4175 5.635 0.242
31.4379 5.604 0.242
31.4584 5.604 0.242
31.4789 5.531 0.240
31.4993 5.781 0.245
31.5198 5.604 0.242
31.5403 5.240 0.234
31.5607 5.885 0.248
31.5812 5.948 0.249
31.6016 5.719 0.244
31.6221 5.813 0.246
31.6426 5.594 0.241
31.6630 5.375 0.237
31.6835 5.729 0.244
31.7040 5.729 0.244
31.7244 5.917 0.248
31.7449 6.063 0.251
31.7653 6.396 0.258
31.7858 6.073 0.252
31.8063 6.438 0.259
31.8267 6.469 0.260
31.8472 6.948 0.269
31.8677 6.646 0.263
31.8881 6.865 0.267
31.9086 7.417 0.278
31.9290 7.750 0.284
31.9495 7.771 0.285
31.9700 7.271 0.275
31.9904 7.010 0.270
32.0109 7.115 0.272
32.0314 7.458 0.279
32.0518 7.844 0.286
32.0723 8.573 0.299
32.0927 10.104 0.324
32.1132 11.083 0.340
32.1337 10.010 0.323
32.1541 10.198 0.326
32.1746 8.927 0.305
32.1951 8.344 0.295
32.2155 7.833 0.286
32.2360 7.313 0.276
32.2565 6.802 0.266
32.2769 6.583 0.262
32.2974 6.635 0.263
32.3178 6.385 0.258
32.3383 6.677 0.264
32.3588 6.229 0.255
32.3792 6.427 0.259
32.3997 6.604 0.262
32.4202 6.875 0.268
32.4406 7.073 0.271
32.4611 7.927 0.287
32.4815 8.625 0.300
32.5020 9.125 0.308
32.5225 10.656 0.333
32.5429 12.031 0.354
32.5634 14.667 0.391
32.5839 18.292 0.437
32.6043 24.531 0.506
32.6248 29.885 0.558
32.6452 27.385 0.534
32.6657 21.896 0.478
32.6862 19.063 0.446
32.7066 18.490 0.439
32.7271 16.708 0.417
32.7476 12.167 0.356
32.7680 9.073 0.307
32.7885 7.771 0.285
32.8089 7.073 0.271
32.8294 6.771 0.266
32.8499 6.313 0.256
32.8703 6.313 0.256
32.8908 5.667 0.243
32.9113 5.750 0.245
32.9317 6.052 0.251
32.9522 5.927 0.248
32.9726 5.771 0.245
32.9931 5.438 0.238
33.0136 5.677 0.243
33.0340 5.240 0.234
33.0545 5.490 0.239
33.0750 5.417 0.238
33.0954 5.563 0.241
33.1159 6.010 0.250
33.1364 5.792 0.246
33.1568 5.646 0.243
33.1773 5.615 0.242
33.1977 5.615 0.242
33.2182 5.219 0.233
33.2387 5.823 0.246
33.2591 5.573 0.241
33.2796 5.177 0.232
33.3001 5.656 0.243
33.3205 5.292 0.235
33.3410 5.167 0.232
33.3614 5.302 0.235
33.3819 5.552 0.240
33.4024 5.490 0.239
33.4228 5.448 0.238
33.4433 5.708 0.244
33.4638 5.156 0.232
33.4842 5.948 0.249
33.5047 5.438 0.238
33.5251 5.198 0.233
33.5456 5.396 0.237
33.5661 5.521 0.240
33.5865 5.333 0.236
33.6070 5.333 0.236
33.6275 5.260 0.234
33.6479 5.052 0.229
33.6684 5.458 0.238
33.6888 5.625 0.242
33.7093 5.854 0.247
33.7298 5.094 0.230
33.7502 5.104 0.231
33.7707 5.563 0.241
33.7912 5.344 0.236
33.8116 5.604 0.242
33.8321 5.365 0.236
33.8526 5.552 0.240
33.8730 5.354 0.236
33.8935 5.740 0.245
33.9139 5.188 0.232
33.9344 5.156 0.232
33.9549 5.458 0.238
33.9753 5.406 0.237
33.9958 5.417 0.238
34.0163 5.021 0.229
34.0367 4.708 0.221
34.0572 4.917 0.226
34.0776 5.010 0.228
34.0981 5.354 0.236
34.1186 5.281 0.235
34.1390 5.042 0.229
34.1595 5.073 0.230
34.1800 5.813 0.246
34.2004 5.115 0.231
34.2209 5.198 0.233
34.2413 5.177 0.232
34.2618 5.385 0.237
34.2823 5.010 0.228
34.3027 4.844 0.225
34.3232 4.844 0.225
34.3437 4.750 0.222
34.3641 5.365 0.236
34.3846 5.260 0.234
34.4050 5.260 0.234
34.4255 4.948 0.227
34.4460 5.271 0.234
34.4664 5.458 0.238
34.4869 5.010 0.228
34.5074 5.042 0.229
34.5278 4.948 0.227
34.5483 4.771 0.223
34.5687 5.646 0.243
34.5892 5.281 0.235
34.6097 5.344 0.236
34.6301 5.000 0.228
34.6506 4.688 0.221
34.6711 4.625 0.219
34.6915 4.948 0.227
34.7120 4.917 0.226
34.7325 5.073 0.230
34.7529 5.167 0.232
34.7734 4.781 0.223
34.7938 4.719 0.222
34.8143 4.854 0.225
34.8348 5.260 0.234
34.8552 5.073 0.230
34.8757 4.760 0.223
34.8962 5.063 0.230
34.9166 4.854 0.225
34.9371 4.719 0.222
34.9575 5.063 0.230
34.9780 5.479 0.239
34.9985 4.969 0.228
35.0189 5.385 0.237
35.0394 5.167 0.232
35.0599 5.188 0.232
35.0803 5.573 0.241
35.1008 5.323 0.235
35.1212 5.313 0.235
35.1417 5.156 0.232
35.1622 4.760 0.223
35.1826 4.948 0.227
35.2031 4.917 0.226
35.2236 5.219 0.233
35.2440 5.292 0.235
35.2645 5.177 0.232
35.2849 4.948 0.227
35.3054 4.771 0.223
35.3259 4.823 0.224
35.3463 5.448 0.238
35.3668 5.313 0.235
35.3873 5.406 0.237
35.4077 5.292 0.235
35.4282 4.760 0.223
35.4486 5.073 0.230
35.4691 5.417 0.238
35.4896 5.125 0.231
35.5100 5.052 0.229
35.5305 4.958 0.227
35.5510 5.396 0.237
35.5714 5.438 0.238
35.5919 5.052 0.229
35.6124 5.396 0.237
35.6328 5.438 0.238
35.6533 5.167 0.232
35.6737 5.250 0.234
35.6942 5.229 0.233
35.7147 5.573 0.241
35.7351 5.500 0.239
35.7556 5.375 0.237
35.7761 5.125 0.231
35.7965 5.750 0.245
35.8170 5.469 0.239
35.8374 5.563 0.241
35.8579 5.427 0.238
35.8784 6.250 0.255
35.8988 5.823 0.246
35.9193 5.969 0.249
35.9398 6.042 0.251
35.9602 5.823 0.246
35.9807 5.854 0.247
36.0011 5.729 0.244
36.0216 6.073 0.252
36.0421 6.500 0.260
36.0625 7.219 0.274
36.0830 7.604 0.281
36.1035 8.271 0.294
36.1239 9.396 0.313
36.1444 9.323 0.312
36.1648 9.146 0.309
36.1853 9.625 0.317
36.2058 9.917 0.321
36.2262 9.031 0.307
36.2467 9.302 0.311
36.2672 9.292 0.311
36.2876 10.094 0.324
36.3081 10.219 0.326
36.3285 11.125 0.340
36.3490 11.521 0.346
36.3695 12.833 0.366
36.3899 14.490 0.389
36.4104 14.531 0.389
36.4309 14.771 0.392
36.4513 15.573 0.403
36.4718 16.677 0.417
36.4923 17.771 0.430
36.5127 19.667 0.453
36.5332 21.938 0.478
36.5536 26.042 0.521
36.5741 34.073 0.596
36.5946 42.823 0.668
36.6150 44.865 0.684
36.6355 37.250 0.623
36.6560 32.177 0.579
36.6764 29.313 0.553
36.6969 29.813 0.557
36.7173 27.458 0.535
36.7378 21.802 0.477
36.7583 17.229 0.424
36.7787 14.406 0.387
36.7992 14.146 0.384
36.8197 12.396 0.359
36.8401 12.417 0.360
36.8606 12.271 0.358
36.8810 12.771 0.365
36.9015 13.208 0.371
36.9220 13.385 0.373
36.9424 14.302 0.386
36.9629 15.854 0.406
36.9834 19.385 0.449
37.0038 24.365 0.504
37.0243 32.115 0.578
37.0447 42.771 0.667
37.0652 55.500 0.760
37.0857 61.729 0.802
37.1061 53.990 0.750
37.1266 40.531 0.650
37.1471 37.104 0.622
37.1675 37.583 0.626
37.1880 35.875 0.611
37.2084 27.000 0.530
37.2289 18.844 0.443
37.2494 14.417 0.388
37.2698 12.229 0.357
37.2903 11.240 0.342
37.3108 9.865 0.321
37.3312 8.917 0.305
37.3517 8.813 0.303
37.3722 7.969 0.288
37.3926 8.344 0.295
37.4131 8.229 0.293
37.4335 8.354 0.295
37.4540 8.208 0.292
37.4745 8.510 0.298
37.4949 8.594 0.299
37.5154 8.771 0.302
37.5359 9.990 0.323
37.5563 10.667 0.333
37.5768 11.250 0.342
37.5972 12.427 0.360
37.6177 14.094 0.383
37.6382 15.448 0.401
37.6586 17.854 0.431
37.6791 19.135 0.446
37.6996 18.010 0.433
37.7200 17.302 0.425
37.7405 15.750 0.405
37.7609 16.219 0.411
37.7814 15.313 0.399
37.8019 13.510 0.375
37.8223 12.438 0.360
37.8428 11.510 0.346
37.8633 11.656 0.348
37.8837 11.083 0.340
37.9042 11.135 0.341
37.9246 12.333 0.358
37.9451 12.938 0.367
37.9656 16.031 0.409
37.9860 19.375 0.449
38.0065 24.375 0.504
38.0270 28.406 0.544
38.0474 26.208 0.522
38.0679 22.635 0.486
38.0884 19.208 0.447
38.1088 19.979 0.456
38.1293 19.844 0.455
38.1497 16.521 0.415
38.1702 13.427 0.374
38.1907 11.229 0.342
38.2111 10.969 0.338
38.2316 10.469 0.330
38.2521 9.531 0.315
38.2725 9.823 0.320
38.2930 9.635 0.317
38.3134 9.115 0.308
38.3339 9.552 0.315
38.3544 9.677 0.317
38.3748 9.875 0.321
38.3953 10.573 0.332
38.4158 12.771 0.365
38.4362 14.177 0.384
38.4567 18.208 0.436
38.4771 17.990 0.433
38.4976 14.292 0.386
38.5181 13.177 0.370
38.5385 12.969 0.368
38.5590 12.885 0.366
38.5795 12.500 0.361
38.5999 10.635 0.333
38.6204 9.083 0.308
38.6408 7.479 0.279
38.6613 7.802 0.285
38.6818 6.813 0.266
38.7022 7.260 0.275
38.7227 7.240 0.275
38.7432 7.156 0.273
38.7636 6.573 0.262
38.7841 6.865 0.267
38.8045 6.708 0.264
38.8250 6.146 0.253
38.8455 6.469 0.260
38.8659 6.750 0.265
38.8864 6.271 0.256
38.9069 6.896 0.268
38.9273 6.448 0.259
38.9478 6.292 0.256
38.9683 5.938 0.249
38.9887 6.385 0.258
39.0092 6.635 0.263
39.0296 6.073 0.252
39.0501 6.792 0.266
39.0706 6.740 0.265
39.0910 6.583 0.262
39.1115 6.792 0.266
39.1320 6.865 0.267
39.1524 7.115 0.272
39.1729 7.427 0.278
39.1933 7.604 0.281
39.2138 7.385 0.277
39.2343 8.427 0.296
39.2547 8.052 0.290
39.2752 9.448 0.314
39.2957 10.177 0.326
39.3161 9.854 0.320
39.3366 9.281 0.311
39.3570 9.188 0.309
39.3775 9.656 0.317
39.3980 9.708 0.318
39.4184 9.021 0.307
39.4389 8.219 0.293
39.4594 7.896 0.287
39.4798 7.188 0.274
39.5003 7.563 0.281
39.5207 6.740 0.265
39.5412 7.260 0.275
39.5617 6.552 0.261
39.5821 6.646 0.263
39.6026 6.229 0.255
39.6231 6.688 0.264
39.6435 6.750 0.265
39.6640 6.927 0.269
39.6844 6.292 0.256
39.7049 7.510 0.280
39.7254 8.292 0.294
39.7458 9.021 0.307
39.7663 10.458 0.330
39.7868 12.583 0.362
39.8072 13.885 0.380
39.8277 13.281 0.372
39.8482 10.833 0.336
39.8686 10.146 0.325
39.8891 10.844 0.336
39.9095 11.427 0.345
39.9300 9.844 0.320
39.9505 9.042 0.307
39.9709 8.573 0.299
39.9914 8.865 0.304
40.0119 8.750 0.302
40.0323 8.750 0.302
40.0528 8.688 0.301
40.0732 10.375 0.329
40.0937 10.740 0.334
40.1142 11.083 0.340
40.1346 11.219 0.342
40.1551 11.656 0.348
40.1756 11.604 0.348
40.1960 13.010 0.368
40.2165 13.885 0.380
40.2369 15.979 0.408
40.2574 19.396 0.449
40.2779 22.469 0.484
40.2983 19.177 0.447
40.3188 14.656 0.391
40.3393 12.896 0.367
40.3597 13.104 0.369
40.3802 14.052 0.383
40.4006 12.104 0.355
40.4211 10.031 0.323
40.4416 8.479 0.297
40.4620 7.646 0.282
40.4825 6.719 0.265
40.5030 6.615 0.262
40.5234 6.938 0.269
40.5439 6.469 0.260
40.5643 6.292 0.256
40.5848 6.021 0.250
40.6053 5.979 0.250
40.6257 5.958 0.249
40.6462 6.177 0.254
40.6667 5.833 0.247
40.6871 5.896 0.248
40.7076 5.771 0.245
40.7281 6.260 0.255
40.7485 6.104 0.252
40.7690 6.135 0.253
40.7894 6.094 0.252
40.8099 6.240 0.255
40.8304 6.563 0.261
40.8508 6.271 0.256
40.8713 6.292 0.256
40.8918 6.500 0.260
40.9122 6.875 0.268
40.9327 7.635 0.282
40.9531 7.781 0.285
40.9736 8.125 0.291
40.9941 8.573 0.299
41.0145 8.906 0.305
41.0350 10.823 0.336
41.0555 12.208 0.357
41.0759 15.427 0.401
41.0964 20.104 0.458
41.1168 24.552 0.506
41.1373 25.240 0.513
41.1578 23.375 0.493
41.1782 18.250 0.436
41.1987 16.427 0.414
41.2192 17.760 0.430
41.2396 18.177 0.435
41.2601 15.719 0.405
41.2805 12.344 0.359
41.3010 10.396 0.329
41.3215 9.417 0.313
41.3419 8.271 0.294
41.3624 8.302 0.294
41.3829 7.542 0.280
41.4033 7.521 0.280
41.4238 6.885 0.268
41.4442 7.198 0.274
41.4647 6.646 0.263
41.4852 7.313 0.276
41.5056 6.948 0.269
41.5261 7.177 0.273
41.5466 7.156 0.273
41.5670 7.917 0.287
41.5875 7.927 0.287
41.6080 8.688 0.301
41.6284 8.771 0.302
41.6489 9.438 0.314
41.6693 9.385 0.313
41.6898 9.760 0.319
41.7103 9.292 0.311
41.7307 9.542 0.315
41.7512 9.125 0.308
41.7717 9.260 0.311
41.7921 9.135 0.308
41.8126 8.281 0.294
41.8330 8.135 0.291
41.8535 8.448 0.297
41.8740 7.729 0.284
41.8944 6.740 0.265
41.9149 7.125 0.272
41.9354 6.781 0.266
41.9558 6.344 0.257
41.9763 6.115 0.252
41.9967 6.750 0.265
42.0172 6.208 0.254
42.0377 5.729 0.244
42.0581 5.896 0.248
42.0786 5.625 0.242
42.0991 5.760 0.245
42.1195 5.760 0.245
42.1400 5.854 0.247
42.1604 5.354 0.236
42.1809 5.667 0.243
42.2014 5.854 0.247
42.2218 5.344 0.236
42.2423 5.427 0.238
42.2628 5.823 0.246
42.2832 5.938 0.249
42.3037 5.781 0.245
42.3242 5.646 0.243
42.3446 5.604 0.242
42.3651 6.021 0.250
42.3855 6.104 0.252
42.4060 6.323 0.257
42.4265 6.021 0.250
42.4469 6.490 0.260
42.4674 6.281 0.256
42.4879 5.594 0.241
42.5083 6.281 0.256
42.5288 5.844 0.247
42.5492 5.792 0.246
42.5697 6.146 0.253
42.5902 5.896 0.248
42.6106 6.146 0.253
42.6311 6.542 0.261
42.6516 6.063 0.251
42.6720 6.031 0.251
42.6925 6.281 0.256
42.7129 6.021 0.250
42.7334 5.917 0.248
42.7539 5.896 0.248
42.7743 6.667 0.264
42.7948 6.125 0.253
42.8153 6.292 0.256
42.8357 6.125 0.253
42.8562 6.552 0.261
42.8766 5.896 0.248
42.8971 6.427 0.259
42.9176 6.000 0.250
42.9380 5.938 0.249
42.9585 6.094 0.252
42.9790 5.865 0.247
42.9994 6.260 0.255
43.0199 5.781 0.245
43.0403 5.958 0.249
43.0608 6.271 0.256
43.0813 6.323 0.257
43.1017 6.604 0.262
43.1222 6.542 0.261
43.1427 6.948 0.269
43.1631 7.729 0.284
43.1836 8.781 0.302
43.2041 9.813 0.320
43.2245 10.010 0.323
43.2450 10.104 0.324
43.2654 8.948 0.305
43.2859 8.542 0.298
43.3064 9.167 0.309
43.3268 9.292 0.311
43.3473 9.969 0.322
43.3678 9.125 0.308
43.3882 9.063 0.307
43.4087 9.333 0.312
43.4291 8.510 0.298
43.4496 9.458 0.314
43.4701 10.656 0.333
43.4905 11.135 0.341
43.5110 12.323 0.358
43.5315 13.438 0.374
43.5519 15.813 0.406
43.5724 20.479 0.462
43.5928 25.042 0.511
43.6133 32.948 0.586
43.6338 38.573 0.634
43.6542 35.969 0.612
43.6747 28.281 0.543
43.6952 23.271 0.492
43.7156 22.969 0.489
43.7361 23.240 0.492
43.7565 23.438 0.494
43.7770 20.063 0.457
43.7975 15.063 0.396
43.8179 12.448 0.360
43.8384 10.417 0.329
43.8589 10.344 0.328
43.8793 9.260 0.311
43.8998 8.750 0.302
43.9202 8.000 0.289
43.9407 7.813 0.285
43.9612 8.292 0.294
43.9816 8.385 0.296
44.0021 9.104 0.308
44.0226 8.250 0.293
44.0430 8.719 0.301
44.0635 9.802 0.320
44.0840 10.646 0.333
44.1044 10.646 0.333
44.1249 12.250 0.357
44.1453 12.146 0.356
44.1658 13.167 0.370
44.1863 12.708 0.364
44.2067 12.490 0.361
44.2272 11.417 0.345
44.2477 11.688 0.349
44.2681 11.104 0.340
44.2886 10.490 0.331
44.3090 9.740 0.319
44.3295 9.260 0.311
44.3500 8.583 0.299
44.3704 8.156 0.291
44.3909 8.000 0.289
44.4114 7.479 0.279
44.4318 7.615 0.282
44.4523 7.771 0.285
44.4727 7.385 0.277
44.4932 7.417 0.278
44.5137 8.198 0.292
44.5341 7.354 0.277
44.5546 7.271 0.275
44.5751 7.469 0.279
44.5955 7.229 0.274
44.6160 6.573 0.262
44.6364 6.417 0.259
44.6569 6.333 0.257
44.6774 6.292 0.256
44.6978 6.146 0.253
44.7183 6.219 0.255
44.7388 6.354 0.257
44.7592 5.719 0.244
44.7797 6.063 0.251
44.8001 5.823 0.246
44.8206 5.333 0.236
44.8411 5.500 0.239
44.8615 5.510 0.240
44.8820 5.625 0.242
44.9025 5.625 0.242
44.9229 5.740 0.245
44.9434 5.646 0.243
44.9639 5.854 0.247
44.9843 6.188 0.254
45.0048 5.958 0.249
45.0252 6.208 0.254
45.0457 6.323 0.257
45.0662 5.865 0.247
45.0866 6.583 0.262
45.1071 7.010 0.270
45.1276 6.917 0.268
45.1480 7.521 0.280
45.1685 7.750 0.284
45.1889 9.375 0.313
45.2094 11.083 0.340
45.2299 13.417 0.374
45.2503 15.771 0.405
45.2708 14.042 0.382
45.2913 12.281 0.358
45.3117 11.448 0.345
45.3322 11.781 0.350
45.3526 12.688 0.364
45.3731 13.333 0.373
45.3936 12.229 0.357
45.4140 11.938 0.353
45.4345 11.719 0.349
45.4550 10.948 0.338
45.4754 11.208 0.342
45.4959 10.396 0.329
45.5163 9.073 0.307
45.5368 9.500 0.315
45.5573 8.885 0.304
45.5777 8.677 0.301
45.5982 8.208 0.292
45.6187 7.917 0.287
45.6391 6.719 0.265
45.6596 6.521 0.261
45.6800 6.479 0.260
45.7005 5.969 0.249
45.7210 5.896 0.248
45.7414 5.250 0.234
45.7619 5.500 0.239
45.7824 5.563 0.241
45.8028 5.188 0.232
45.8233 5.396 0.237
45.8438 5.260 0.234
45.8642 5.354 0.236
45.8847 5.240 0.234
45.9051 4.531 0.217
45.9256 5.313 0.235
45.9461 5.490 0.239
45.9665 4.958 0.227
45.9870 4.969 0.228
46.0075 5.229 0.233
46.0279 5.104 0.231
46.0484 5.167 0.232
46.0688 5.115 0.231
46.0893 4.906 0.226
46.1098 5.198 0.233
46.1302 4.917 0.226
46.1507 5.000 0.228
46.1712 5.323 0.235
46.1916 5.344 0.236
46.2121 5.229 0.233
46.2325 5.083 0.230
46.2530 5.198 0.233
46.2735 4.896 0.226
46.2939 5.104 0.231
46.3144 5.021 0.229
46.3349 4.823 0.224
46.3553 4.906 0.226
46.3758 4.771 0.223
46.3962 5.104 0.231
46.4167 4.792 0.223
46.4372 4.250 0.210
46.4576 4.354 0.213
46.4781 4.604 0.219
46.4986 4.625 0.219
46.5190 4.292 0.211
46.5395 4.542 0.218
46.5600 4.510 0.217
46.5804 4.448 0.215
46.6009 4.229 0.210
46.6213 4.208 0.209
46.6418 4.552 0.218
46.6623 4.656 0.220
46.6827 4.042 0.205
46.7032 4.479 0.216
46.7237 4.260 0.211
46.7441 4.281 0.211
46.7646 4.438 0.215
46.7850 4.573 0.218
46.8055 4.104 0.207
46.8260 4.656 0.220
46.8464 4.563 0.218
46.8669 4.302 0.212
46.8874 4.563 0.218
46.9078 4.688 0.221
46.9283 4.583 0.219
46.9487 4.104 0.207
46.9692 4.177 0.209
46.9897 4.604 0.219
47.0101 4.958 0.227
47.0306 4.792 0.223
47.0511 4.813 0.224
47.0715 4.969 0.228
47.0920 5.333 0.236
47.1124 4.969 0.228
47.1329 5.052 0.229
47.1534 5.010 0.228
47.1738 5.656 0.243
47.1943 6.031 0.251
47.2148 6.021 0.250
47.2352 6.542 0.261
47.2557 6.260 0.255
47.2761 6.906 0.268
47.2966 6.896 0.268
47.3171 7.260 0.275
47.3375 7.781 0.285
47.3580 8.833 0.303
47.3785 8.156 0.291
47.3989 8.979 0.306
47.4194 8.563 0.299
47.4399 8.938 0.305
47.4603 9.813 0.320
47.4808 9.156 0.309
47.5012 10.271 0.327
47.5217 10.521 0.331
47.5422 11.865 0.352
47.5626 14.146 0.384
47.5831 17.208 0.423
47.6036 20.115 0.458
47.6240 19.406 0.450
47.6445 16.510 0.415
47.6649 13.250 0.372
47.6854 12.042 0.354
47.7059 12.458 0.360
47.7263 13.813 0.379
47.7468 12.281 0.358
47.7673 10.813 0.336
47.7877 9.542 0.315
47.8082 7.646 0.282
47.8286 6.938 0.269
47.8491 6.906 0.268
47.8696 6.365 0.257
47.8900 6.000 0.250
47.9105 5.979 0.250
47.9310 5.521 0.240
47.9514 5.760 0.245
47.9719 5.448 0.238
47.9923 5.104 0.231
48.0128 5.021 0.229
48.0333 5.625 0.242
48.0537 5.698 0.244
48.0742 5.052 0.229
48.0947 5.177 0.232
48.1151 5.500 0.239
48.1356 4.615 0.219
48.1560 4.969 0.228
48.1765 5.042 0.229
48.1970 5.063 0.230
48.2174 4.990 0.228
48.2379 5.031 0.229
48.2584 5.198 0.233
48.2788 5.719 0.244
48.2993 5.323 0.235
48.3198 5.688 0.243
48.3402 6.396 0.258
48.3607 6.698 0.264
48.3811 5.802 0.246
48.4016 5.510 0.240
48.4221 5.406 0.237
48.4425 5.667 0.243
48.4630 5.854 0.247
48.4835 5.958 0.249
48.5039 5.365 0.236
48.5244 5.010 0.228
48.5448 5.396 0.237
48.5653 5.438 0.238
48.5858 4.646 0.220
48.6062 4.875 0.225
48.6267 5.542 0.240
48.6472 5.260 0.234
48.6676 5.750 0.245
48.6881 6.073 0.252
48.7085 6.927 0.269
48.7290 7.000 0.270
48.7495 5.969 0.249
48.7699 6.188 0.254
48.7904 5.365 0.236
48.8109 5.302 0.235
48.8313 5.052 0.229
48.8518 5.604 0.242
48.8722 5.292 0.235
48.8927 5.146 0.232
48.9132 4.969 0.228
48.9336 4.417 0.214
48.9541 4.250 0.210
48.9746 4.260 0.211
48.9950 4.385 0.214
49.0155 4.500 0.217
49.0359 4.083 0.206
49.0564 4.594 0.219
49.0769 4.198 0.209
49.0973 4.208 0.209
49.1178 4.073 0.206
49.1383 4.240 0.210
49.1587 4.604 0.219
49.1792 4.781 0.223
49.1997 4.073 0.206
49.2201 4.354 0.213
49.2406 4.156 0.208
49.2610 4.323 0.212
49.2815 4.125 0.207
49.3020 4.365 0.213
49.3224 4.240 0.210
49.3429 4.667 0.220
49.3634 4.385 0.214
49.3838 4.531 0.217
49.4043 4.396 0.214
49.4247 4.385 0.214
49.4452 5.240 0.234
49.4657 5.073 0.230
49.4861 4.771 0.223
49.5066 4.635 0.220
49.5271 5.260 0.234
49.5475 4.854 0.225
49.5680 5.604 0.242
49.5884 5.469 0.239
49.6089 5.875 0.247
49.6294 5.844 0.247
49.6498 6.219 0.255
49.6703 6.323 0.257
49.6908 6.969 0.269
49.7112 7.063 0.271
49.7317 8.469 0.297
49.7521 9.802 0.320
49.7726 11.406 0.345
49.7931 14.792 0.393
49.8135 18.448 0.438
49.8340 23.323 0.493
49.8545 25.177 0.512
49.8749 23.583 0.496
49.8954 18.271 0.436
49.9158 15.646 0.404
49.9363 14.510 0.389
49.9568 16.594 0.416
49.9772 17.010 0.421
49.9977 15.938 0.407
50.0182 14.292 0.386
50.0386 11.479 0.346
50.0591 9.229 0.310
50.0796 8.917 0.305
50.1000 8.313 0.294
50.1205 8.125 0.291
50.1409 8.156 0.291
50.1614 8.833 0.303
50.1819 9.792 0.319
50.2023 10.552 0.332
50.2228 10.406 0.329
50.2433 9.469 0.314
50.2637 8.438 0.296
50.2842 7.958 0.288
50.3046 8.510 0.298
50.3251 8.802 0.303
50.3456 9.042 0.307
50.3660 9.167 0.309
50.3865 8.615 0.300
50.4070 8.594 0.299
50.4274 8.427 0.296
50.4479 8.542 0.298
50.4683 8.708 0.301
50.4888 9.813 0.320
50.5093 10.594 0.332
50.5297 10.708 0.334
50.5502 10.625 0.333
50.5707 10.229 0.326
50.5911 9.802 0.320
50.6116 9.083 0.308
50.6320 9.104 0.308
50.6525 9.083 0.308
50.6730 8.740 0.302
50.6934 8.833 0.303
50.7139 8.104 0.291
50.7344 7.771 0.285
50.7548 7.354 0.277
50.7753 6.865 0.267
50.7958 6.667 0.264
50.8162 7.229 0.274
50.8367 6.698 0.264
50.8571 6.240 0.255
50.8776 7.000 0.270
50.8981 7.229 0.274
50.9185 7.104 0.272
50.9390 8.240 0.293
50.9595 9.396 0.313
50.9799 10.417 0.329
51.0004 9.135 0.308
51.0208 7.615 0.282
51.0413 6.844 0.267
51.0618 6.667 0.264
51.0822 6.646 0.263
51.1027 7.167 0.273
51.1232 7.594 0.281
51.1436 7.135 0.273
51.1641 6.177 0.254
51.1845 5.448 0.238
51.2050 5.615 0.242
51.2255 5.406 0.237
51.2459 5.646 0.243
51.2664 5.958 0.249
51.2869 6.000 0.250
51.3073 6.427 0.259
51.3278 5.552 0.240
51.3482 5.583 0.241
51.3687 5.646 0.243
51.3892 5.250 0.234
51.4096 5.885 0.248
51.4301 5.417 0.238
51.4506 5.406 0.237
51.4710 5.667 0.243
51.4915 5.292 0.235
51.5119 4.979 0.228
51.5324 4.896 0.226
51.5529 5.208 0.233
51.5733 5.448 0.238
51.5938 5.656 0.243
51.6143 6.229 0.255
51.6347 6.781 0.266
51.6552 7.885 0.287
51.6757 8.177 0.292
51.6961 7.802 0.285
51.7166 7.313 0.276
51.7370 6.271 0.256
51.7575 5.958 0.249
51.7780 6.427 0.259
51.7984 6.583 0.262
51.8189 6.969 0.269
51.8394 5.833 0.247
51.8598 5.667 0.243
51.8803 5.354 0.236
51.9007 5.083 0.230
51.9212 4.833 0.224
51.9417 5.146 0.232
51.9621 4.760 0.223
51.9826 5.281 0.235
52.0031 5.875 0.247
52.0235 5.615 0.242
52.0440 6.229 0.255
52.0644 6.656 0.263
52.0849 6.760 0.265
52.1054 6.750 0.265
52.1258 8.031 0.289
52.1463 8.833 0.303
52.1668 8.948 0.305
52.1872 9.052 0.307
52.2077 8.385 0.296
52.2281 8.594 0.299
52.2486 8.563 0.299
52.2691 8.365 0.295
52.2895 7.438 0.278
52.3100 7.844 0.286
52.3305 7.542 0.280
52.3509 7.604 0.281
52.3714 7.719 0.284
52.3918 7.708 0.283
52.4123 7.083 0.272
52.4328 6.552 0.261
52.4532 5.885 0.248
52.4737 5.833 0.247
52.4942 5.927 0.248
52.5146 5.896 0.248
52.5351 6.052 0.251
52.5556 5.427 0.238
52.5760 5.375 0.237
52.5965 5.292 0.235
52.6169 4.844 0.225
52.6374 5.042 0.229
52.6579 5.302 0.235
52.6783 4.750 0.222
52.6988 4.896 0.226
52.7193 5.302 0.235
52.7397 4.375 0.213
52.7602 4.167 0.208
52.7806 4.115 0.207
52.8011 3.906 0.202
52.8216 4.333 0.212
52.8420 3.990 0.204
52.8625 4.031 0.205
52.8830 4.365 0.213
52.9034 3.604 0.194
52.9239 3.917 0.202
52.9443 3.958 0.203
52.9648 3.906 0.202
52.9853 3.854 0.200
53.0057 3.927 0.202
53.0262 3.865 0.201
53.0467 4.104 0.207
53.0671 3.917 0.202
53.0876 3.510 0.191
53.1080 3.833 0.200
53.1285 3.635 0.195
53.1490 3.344 0.187
53.1694 3.552 0.192
53.1899 3.688 0.196
53.2104 3.698 0.196
53.2308 3.844 0.200
53.2513 3.490 0.191
53.2717 3.427 0.189
53.2922 3.583 0.193
53.3127 3.448 0.190
53.3331 3.510 0.191
53.3536 3.510 0.191
53.3741 3.677 0.196
53.3945 3.979 0.204
53.4150 3.667 0.195
53.4355 3.542 0.192
53.4559 3.604 0.194
53.4764 3.635 0.195
53.4968 3.854 0.200
53.5173 3.615 0.194
53.5378 3.625 0.194
53.5582 3.979 0.204
53.5787 3.542 0.192
53.5992 4.021 0.205
53.6196 4.063 0.206
53.6401 3.906 0.202
53.6605 3.906 0.202
53.6810 3.792 0.199
53.7015 3.938 0.203
53.7219 3.781 0.198
53.7424 4.208 0.209
53.7629 4.271 0.211
53.7833 3.948 0.203
53.8038 3.604 0.194
53.8242 4.021 0.205
53.8447 4.344 0.213
53.8652 3.802 0.199
53.8856 4.229 0.210
53.9061 3.875 0.201
53.9266 4.365 0.213
53.9470 4.354 0.213
53.9675 4.167 0.208
53.9879 4.510 0.217
54.0084 3.823 0.200
54.0289 4.510 0.217
54.0493 4.604 0.219
54.0698 4.802 0.224
54.0903 4.635 0.220
54.1107 5.313 0.235
54.1312 5.646 0.243
54.1516 5.604 0.242
54.1721 5.896 0.248
54.1926 5.698 0.244
54.2130 5.531 0.240
54.2335 5.615 0.242
54.2540 5.688 0.243
54.2744 6.406 0.258
54.2949 6.292 0.256
54.3154 6.365 0.257
54.3358 7.323 0.276
54.3563 7.344 0.277
54.3767 7.260 0.275
54.3972 7.490 0.279
54.4177 8.104 0.291
54.4381 7.656 0.282
54.4586 7.938 0.288
54.4791 7.844 0.286
54.4995 7.927 0.287
54.5200 7.417 0.278
54.5404 7.271 0.275
54.5609 7.323 0.276
54.5814 7.333 0.276
54.6018 6.573 0.262
54.6223 6.250 0.255
54.6428 7.063 0.271
54.6632 6.385 0.258
54.6837 6.323 0.257
54.7041 5.750 0.245
54.7246 5.094 0.230
54.7451 5.010 0.228
54.7655 5.281 0.235
54.7860 4.969 0.228
54.8065 4.625 0.219
54.8269 5.177 0.232
54.8474 4.729 0.222
54.8678 5.031 0.229
54.8883 4.625 0.219
54.9088 4.365 0.213
54.9292 4.792 0.223
54.9497 4.573 0.218
54.9702 5.271 0.234
54.9906 4.927 0.227
55.0111 4.802 0.224
55.0316 4.729 0.222
55.0520 5.531 0.240
55.0725 6.385 0.258
55.0929 7.833 0.286
55.1134 8.500 0.298
55.1339 11.583 0.347
55.1543 14.844 0.393
55.1748 18.625 0.440
55.1953 18.448 0.438
55.2157 15.302 0.399
55.2362 11.771 0.350
55.2566 10.438 0.330
55.2771 10.354 0.328
55.2976 11.490 0.346
55.3180 12.021 0.354
55.3385 12.750 0.364
55.3590 11.302 0.343
55.3794 8.906 0.305
55.3999 7.979 0.288
55.4203 6.833 0.267
55.4408 6.292 0.256
55.4613 5.688 0.243
55.4817 5.677 0.243
55.5022 5.208 0.233
55.5227 5.229 0.233
55.5431 4.740 0.222
55.5636 4.490 0.216
55.5840 4.531 0.217
55.6045 4.875 0.225
55.6250 4.208 0.209
55.6454 3.885 0.201
55.6659 3.969 0.203
55.6864 3.948 0.203
55.7068 4.198 0.209
55.7273 4.396 0.214
55.7477 4.344 0.213
55.7682 4.625 0.219
55.7887 4.990 0.228
55.8091 5.219 0.233
55.8296 5.708 0.244
55.8501 6.260 0.255
55.8705 6.135 0.253
55.8910 6.448 0.259
55.9115 5.646 0.243
55.9319 5.458 0.238
55.9524 5.625 0.242
55.9728 5.448 0.238
55.9933 5.677 0.243
56.0138 5.760 0.245
56.0342 5.469 0.239
56.0547 5.698 0.244
56.0752 5.750 0.245
56.0956 7.000 0.270
56.1161 7.802 0.285
56.1365 8.771 0.302
56.1570 10.156 0.325
56.1775 12.313 0.358
56.1979 15.115 0.397
56.2184 14.083 0.383
56.2389 12.042 0.354
56.2593 8.708 0.301
56.2798 8.177 0.292
56.3002 7.740 0.284
56.3207 7.875 0.286
56.3412 9.073 0.307
56.3616 9.063 0.307
56.3821 8.823 0.303
56.4026 6.958 0.269
56.4230 5.594 0.241
56.4435 4.531 0.217
56.4639 4.219 0.210
56.4844 4.052 0.205
56.5049 3.802 0.199
56.5253 4.010 0.204
56.5458 3.646 0.195
56.5663 3.260 0.184
56.5867 3.521 0.192
56.6072 3.542 0.192
56.6276 3.458 0.190
56.6481 3.583 0.193
56.6686 3.333 0.186
56.6890 3.167 0.182
56.7095 3.125 0.180
56.7300 3.365 0.187
56.7504 3.125 0.180
56.7709 3.198 0.183
56.7914 2.917 0.174
56.8118 3.406 0.188
56.8323 3.094 0.180
56.8527 3.208 0.183
56.8732 3.365 0.187
56.8937 3.042 0.178
56.9141 2.729 0.169
56.9346 3.406 0.188
56.9551 3.417 0.189
56.9755 3.313 0.186
56.9960 3.719 0.197
57.0164 3.396 0.188
57.0369 3.167 0.182
57.0574 3.219 0.183
57.0778 2.969 0.176
57.0983 3.594 0.193
57.1188 3.292 0.185
57.1392 3.479 0.190
57.1597 3.073 0.179
57.1801 3.115 0.180
57.2006 3.167 0.182
57.2211 3.156 0.181
57.2415 3.104 0.180
57.2620 3.365 0.187
57.2825 3.292 0.185
57.3029 3.677 0.196
57.3234 3.615 0.194
57.3438 3.250 0.184
57.3643 3.698 0.196
57.3848 3.594 0.193
57.4052 3.458 0.190
57.4257 3.573 0.193
57.4462 3.219 0.183
57.4666 3.354 0.187
57.4871 3.469 0.190
57.5075 3.615 0.194
57.5280 3.396 0.188
57.5485 3.448 0.190
57.5689 3.635 0.195
57.5894 3.865 0.201
57.6099 4.146 0.208
57.6303 4.031 0.205
57.6508 3.781 0.198
57.6713 4.031 0.205
57.6917 4.729 0.222
57.7122 4.625 0.219
57.7326 4.865 0.225
57.7531 5.365 0.236
57.7736 5.927 0.248
57.7940 6.708 0.264
57.8145 7.365 0.277
57.8350 8.844 0.304
57.8554 9.271 0.311
57.8759 12.125 0.355
57.8963 13.385 0.373
57.9168 15.135 0.397
57.9373 14.875 0.394
57.9577 12.292 0.358
57.9782 10.510 0.331
57.9987 9.292 0.311
58.0191 9.354 0.312
58.0396 10.010 0.323
58.0600 10.708 0.334
58.0805 10.677 0.333
58.1010 9.646 0.317
58.1214 7.667 0.283
58.1419 7.042 0.271
58.1624 6.906 0.268
58.1828 6.323 0.257
58.2033 5.500 0.239
58.2237 5.302 0.235
58.2442 5.083 0.230
58.2647 4.729 0.222
58.2851 4.510 0.217
58.3056 4.781 0.223
58.3261 4.500 0.217
58.3465 4.365 0.213
58.3670 4.458 0.216
58.3874 4.552 0.218
58.4079 4.552 0.218
58.4284 3.958 0.203
58.4488 4.042 0.205
58.4693 4.010 0.204
58.4898 3.979 0.204
58.5102 4.010 0.204
58.5307 4.385 0.214
58.5512 4.563 0.218
58.5716 4.260 0.211
58.5921 4.583 0.219
58.6125 4.521 0.217
58.6330 4.458 0.216
58.6535 4.188 0.209
58.6739 3.854 0.200
58.6944 4.448 0.215
58.7149 4.688 0.221
58.7353 4.198 0.209
58.7558 3.990 0.204
58.7762 4.104 0.207
58.7967 4.052 0.205
58.8172 4.000 0.204
58.8376 4.375 0.213
58.8581 4.010 0.204
58.8786 4.229 0.210
58.8990 3.927 0.202
58.9195 3.938 0.203
58.9399 4.073 0.206
58.9604 4.281 0.211
58.9809 4.052 0.205
59.0013 3.885 0.201
59.0218 3.875 0.201
59.0423 4.260 0.211
59.0627 4.573 0.218
59.0832 4.521 0.217
59.1036 5.063 0.230
59.1241 5.604 0.242
59.1446 5.573 0.241
59.1650 6.490 0.260
59.1855 7.865 0.286
59.2060 8.583 0.299
59.2264 8.354 0.295
59.2469 7.573 0.281
59.2674 6.229 0.255
59.2878 5.625 0.242
59.3083 5.677 0.243
59.3287 5.052 0.229
59.3492 6.052 0.251
59.3697 6.500 0.260
59.3901 6.292 0.256
59.4106 5.458 0.238
59.4311 4.521 0.217
59.4515 4.292 0.211
59.4720 4.281 0.211
59.4924 4.104 0.207
59.5129 3.854 0.200
59.5334 4.000 0.204
59.5538 3.615 0.194
59.5743 4.021 0.205
59.5948 3.875 0.201
59.6152 3.656 0.195
59.6357 3.490 0.191
59.6561 4.094 0.207
59.6766 3.688 0.196
59.6971 3.542 0.192
59.7175 4.000 0.204
59.7380 4.094 0.207
59.7585 4.115 0.207
59.7789 4.167 0.208
59.7994 5.021 0.229
59.8198 5.667 0.243
59.8403 6.531 0.261
59.8608 7.469 0.279
59.8812 8.521 0.298
59.9017 8.240 0.293
59.9222 7.906 0.287
59.9426 6.479 0.260
59.9631 5.719 0.244
59.9835 5.792 0.246
60.0040 5.573 0.241
60.0245 6.292 0.256
60.0449 6.552 0.261
60.0654 6.115 0.252
60.0859 5.729 0.244
60.1063 4.906 0.226
60.1268 4.271 0.211
60.1473 4.375 0.213
60.1677 3.875 0.201
60.1882 3.750 0.198
60.2086 4.010 0.204
60.2291 3.854 0.200
60.2496 3.406 0.188
60.2700 3.885 0.201
60.2905 3.583 0.193
60.3110 3.917 0.202
60.3314 3.385 0.188
60.3519 3.385 0.188
60.3723 3.656 0.195
60.3928 3.781 0.198
60.4133 3.073 0.179
60.4337 3.281 0.185
60.4542 3.271 0.185
60.4747 3.240 0.184
60.4951 3.115 0.180
60.5156 3.385 0.188
60.5360 2.990 0.176
60.5565 3.490 0.191
60.5770 3.292 0.185
60.5974 3.677 0.196
60.6179 3.333 0.186
60.6384 3.438 0.189
60.6588 3.385 0.188
60.6793 3.552 0.192
60.6997 3.542 0.192
60.7202 3.448 0.190
60.7407 3.323 0.186
60.7611 3.073 0.179
60.7816 3.552 0.192
60.8021 3.438 0.189
60.8225 3.427 0.189
60.8430 3.771 0.198
60.8634 3.448 0.190
60.8839 3.865 0.201
60.9044 3.604 0.194
60.9248 3.802 0.199
60.9453 3.531 0.192
60.9658 3.250 0.184
60.9862 3.333 0.186
61.0067 3.458 0.190
61.0272 3.698 0.196
61.0476 3.240 0.184
61.0681 3.656 0.195
61.0885 3.365 0.187
61.1090 3.490 0.191
61.1295 3.552 0.192
61.1499 3.250 0.184
61.1704 3.208 0.183
61.1909 3.104 0.180
61.2113 3.115 0.180
61.2318 2.958 0.176
61.2522 3.354 0.187
61.2727 3.271 0.185
61.2932 3.146 0.181
61.3136 3.260 0.184
61.3341 3.427 0.189
61.3546 3.031 0.178
61.3750 3.521 0.192
61.3955 3.438 0.189
61.4159 3.365 0.187
61.4364 3.188 0.182
61.4569 3.771 0.198
61.4773 3.521 0.192
61.4978 3.802 0.199
61.5183 3.646 0.195
61.5387 3.698 0.196
61.5592 4.000 0.204
61.5796 3.781 0.198
61.6001 3.781 0.198
61.6206 3.469 0.190
61.6410 3.448 0.190
61.6615 3.396 0.188
61.6820 3.167 0.182
61.7024 3.406 0.188
61.7229 3.344 0.187
61.7433 3.396 0.188
61.7638 3.271 0.185
61.7843 3.104 0.180
61.8047 3.313 0.186
61.8252 3.427 0.189
61.8457 3.385 0.188
61.8661 3.281 0.185
61.8866 3.417 0.189
61.9071 3.156 0.181
61.9275 3.094 0.180
61.9480 3.500 0.191
61.9684 3.281 0.185
61.9889 3.531 0.192
62.0094 3.573 0.193
62.0298 3.656 0.195
62.0503 4.073 0.206
62.0708 4.448 0.215
62.0912 4.708 0.221
62.1117 5.271 0.234
62.1321 5.635 0.242
62.1526 6.333 0.257
62.1731 5.625 0.242
62.1935 5.500 0.239
62.2140 4.667 0.220
62.2345 4.094 0.207
62.2549 4.260 0.211
62.2754 4.031 0.205
62.2958 4.740 0.222
62.3163 4.490 0.216
62.3368 4.740 0.222
62.3572 4.260 0.211
62.3777 4.323 0.212
62.3982 3.625 0.194
62.4186 3.760 0.198
62.4391 3.333 0.186
62.4595 3.323 0.186
62.4800 3.885 0.201
62.5005 3.510 0.191
62.5209 3.729 0.197
62.5414 3.688 0.196
62.5619 3.406 0.188
62.5823 3.219 0.183
62.6028 3.063 0.179
62.6232 3.292 0.185
62.6437 2.917 0.174
62.6642 3.500 0.191
62.6846 3.115 0.180
62.7051 3.010 0.177
62.7256 3.104 0.180
62.7460 3.344 0.187
62.7665 3.021 0.177
62.7870 3.135 0.181
62.8074 2.948 0.175
62.8279 2.792 0.171
62.8483 3.281 0.185
62.8688 3.083 0.179
62.8893 3.135 0.181
62.9097 2.667 0.167
62.9302 2.885 0.173
62.9507 3.146 0.181
62.9711 2.740 0.169
62.9916 2.885 0.173
63.0120 2.990 0.176
63.0325 3.260 0.184
63.0530 3.063 0.179
63.0734 2.854 0.172
63.0939 2.740 0.169
63.1144 2.292 0.155
63.1348 2.844 0.172
63.1553 2.698 0.168
63.1757 2.833 0.172
63.1962 3.260 0.184
63.2167 2.688 0.167
63.2371 2.823 0.171
63.2576 2.865 0.173
63.2781 2.948 0.175
63.2985 3.042 0.178
63.3190 2.969 0.176
63.3394 3.208 0.183
63.3599 2.927 0.175
63.3804 3.229 0.183
63.4008 3.167 0.182
63.4213 2.875 0.173
63.4418 2.990 0.176
63.4622 2.823 0.171
63.4827 3.208 0.183
63.5032 2.958 0.176
63.5236 3.240 0.184
63.5441 3.208 0.183
63.5645 3.719 0.197
63.5850 3.427 0.189
63.6055 3.979 0.204
63.6259 3.823 0.200
63.6464 4.063 0.206
63.6669 4.104 0.207
63.6873 4.813 0.224
63.7078 5.260 0.234
63.7282 6.063 0.251
63.7487 6.792 0.266
63.7692 6.656 0.263
63.7896 7.938 0.288
63.8101 7.354 0.277
63.8306 6.813 0.266
63.8510 6.292 0.256
63.8715 5.969 0.249
63.8919 5.646 0.243
63.9124 5.594 0.241
63.9329 6.292 0.256
63.9533 5.854 0.247
63.9738 6.177 0.254
63.9943 5.854 0.247
64.0147 5.927 0.248
64.0352 5.375 0.237
64.0556 5.052 0.229
64.0761 4.354 0.213
64.0966 4.396 0.214
64.1170 3.938 0.203
64.1375 3.833 0.200
64.1580 3.583 0.193
64.1784 3.521 0.192
64.1989 3.594 0.193
64.2193 3.688 0.196
64.2398 3.573 0.193
64.2603 3.271 0.185
64.2807 3.406 0.188
64.3012 3.250 0.184
64.3217 3.229 0.183
64.3421 3.427 0.189
64.3626 3.219 0.183
64.3831 3.135 0.181
64.4035 3.271 0.185
64.4240 3.604 0.194
64.4444 3.688 0.196
64.4649 3.656 0.195
64.4854 4.021 0.205
64.5058 4.010 0.204
64.5263 4.323 0.212
64.5468 5.281 0.235
64.5672 5.427 0.238
64.5877 6.021 0.250
64.6081 7.490 0.279
64.6286 8.333 0.295
64.6491 10.094 0.324
64.6695 9.792 0.319
64.6900 8.229 0.293
64.7105 7.000 0.270
64.7309 6.302 0.256
64.7514 6.115 0.252
64.7718 6.042 0.251
64.7923 6.427 0.259
64.8128 6.333 0.257
64.8332 6.760 0.265
64.8537 6.719 0.265
64.8742 5.458 0.238
64.8946 5.198 0.233
64.9151 4.479 0.216
64.9355 4.000 0.204
64.9560 3.792 0.199
64.9765 3.385 0.188
64.9969 3.208 0.183
65.0174 3.281 0.185
65.0379 3.042 0.178
65.0583 3.063 0.179
65.0788 3.083 0.179
65.0992 3.313 0.186
65.1197 2.823 0.171
65.1402 3.010 0.177
65.1606 3.135 0.181
65.1811 3.188 0.182
65.2016 2.958 0.176
65.2220 2.958 0.176
65.2425 2.844 0.172
65.2630 2.750 0.169
65.2834 2.917 0.174
65.3039 2.865 0.173
65.3243 2.646 0.166
65.3448 3.031 0.178
65.3653 2.948 0.175
65.3857 3.063 0.179
65.4062 2.990 0.176
65.4267 3.135 0.181
65.4471 3.219 0.183
65.4676 3.219 0.183
65.4880 3.771 0.198
65.5085 3.854 0.200
65.5290 3.927 0.202
65.5494 3.813 0.199
65.5699 4.563 0.218
65.5904 5.344 0.236
65.6108 4.417 0.214
65.6313 4.479 0.216
65.6517 3.729 0.197
65.6722 3.385 0.188
65.6927 3.875 0.201
65.7131 3.688 0.196
65.7336 3.563 0.193
65.7541 3.875 0.201
65.7745 3.719 0.197
65.7950 4.031 0.205
65.8154 3.875 0.201
65.8359 3.573 0.193
65.8564 3.656 0.195
65.8768 3.240 0.184
65.8973 3.208 0.183
65.9178 3.719 0.197
65.9382 3.156 0.181
65.9587 3.667 0.195
65.9791 3.875 0.201
65.9996 4.104 0.207
66.0201 4.438 0.215
66.0405 4.563 0.218
66.0610 4.323 0.212
66.0815 4.927 0.227
66.1019 5.167 0.232
66.1224 5.198 0.233
66.1429 5.052 0.229
66.1633 4.688 0.221
66.1838 4.813 0.224
66.2042 4.781 0.223
66.2247 5.021 0.229
66.2452 4.365 0.213
66.2656 4.521 0.217
66.2861 4.469 0.216
66.3066 4.375 0.213
66.3270 4.573 0.218
66.3475 4.031 0.205
66.3679 4.188 0.209
66.3884 4.167 0.208
66.4089 3.938 0.203
66.4293 3.958 0.203
66.4498 4.219 0.210
66.4703 4.250 0.210
66.4907 4.135 0.208
66.5112 4.063 0.206
66.5316 4.479 0.216
66.5521 4.167 0.208
66.5726 4.646 0.220
66.5930 4.427 0.215
66.6135 4.281 0.211
66.6340 4.667 0.220
66.6544 4.865 0.225
66.6749 4.583 0.219
66.6953 4.406 0.214
66.7158 4.677 0.221
66.7363 4.729 0.222
66.7567 4.760 0.223
66.7772 4.417 0.214
66.7977 4.458 0.216
66.8181 4.531 0.217
66.8386 4.375 0.213
66.8590 4.573 0.218
66.8795 4.094 0.207
66.9000 4.438 0.215
66.9204 4.063 0.206
66.9409 4.323 0.212
66.9614 4.552 0.218
66.9818 4.365 0.213
67.0023 4.490 0.216
67.0228 4.823 0.224
67.0432 5.708 0.244
67.0637 5.865 0.247
67.0841 7.604 0.281
67.1046 8.771 0.302
67.1251 10.333 0.328
67.1455 11.135 0.341
67.1660 13.042 0.369
67.1865 11.000 0.339
67.2069 9.625 0.317
67.2274 8.125 0.291
67.2478 7.146 0.273
67.2683 6.615 0.262
67.2888 6.854 0.267
67.3092 7.813 0.285
67.3297 8.021 0.289
67.3502 7.958 0.288
67.3706 7.979 0.288
67.3911 6.250 0.255
67.4115 6.125 0.253
67.4320 4.792 0.223
67.4525 4.750 0.222
67.4729 4.156 0.208
67.4934 3.958 0.203
67.5139 4.281 0.211
67.5343 4.240 0.210
67.5548 3.635 0.195
67.5752 3.583 0.193
67.5957 3.542 0.192
67.6162 3.573 0.193
67.6366 3.615 0.194
67.6571 3.719 0.197
67.6776 4.010 0.204
67.6980 3.531 0.192
67.7185 4.240 0.210
67.7389 4.229 0.210
67.7594 4.479 0.216
67.7799 3.854 0.200
67.8003 4.271 0.211
67.8208 4.156 0.208
67.8413 3.531 0.192
67.8617 4.021 0.205
67.8822 3.865 0.201
67.9027 3.365 0.187
67.9231 3.906 0.202
67.9436 3.802 0.199
67.9640 3.677 0.196
67.9845 4.104 0.207
68.0050 3.656 0.195
68.0254 4.094 0.207
68.0459 4.073 0.206
68.0664 4.104 0.207
68.0868 4.000 0.204
68.1073 3.646 0.195
68.1277 3.427 0.189
68.1482 3.406 0.188
68.1687 3.344 0.187
68.1891 3.708 0.197
68.2096 3.521 0.192
68.2301 3.635 0.195
68.2505 4.188 0.209
68.2710 4.354 0.213
68.2914 4.021 0.205
68.3119 4.854 0.225
68.3324 5.323 0.235
68.3528 6.240 0.255
68.3733 5.708 0.244
68.3938 4.573 0.218
68.4142 4.396 0.214
68.4347 4.385 0.214
68.4551 4.177 0.209
68.4756 4.260 0.211
68.4961 3.583 0.193
68.5165 4.115 0.207
68.5370 4.406 0.214
68.5575 4.573 0.218
68.5779 4.271 0.211
68.5984 4.000 0.204
68.6189 3.542 0.192
68.6393 3.583 0.193
68.6598 3.604 0.194
68.6802 3.729 0.197
68.7007 3.688 0.196
68.7212 3.760 0.198
68.7416 3.635 0.195
68.7621 3.802 0.199
68.7826 3.917 0.202
68.8030 4.198 0.209
68.8235 4.031 0.205
68.8439 4.302 0.212
68.8644 4.406 0.214
68.8849 4.500 0.217
68.9053 4.813 0.224
68.9258 5.052 0.229
68.9463 5.865 0.247
68.9667 6.552 0.261
68.9872 7.271 0.275
69.0076 6.615 0.262
69.0281 7.042 0.271
69.0486 6.323 0.257
69.0690 5.583 0.241
69.0895 5.479 0.239
69.1100 4.917 0.226
69.1304 4.938 0.227
69.1509 5.177 0.232
69.1713 4.917 0.226
69.1918 5.438 0.238
69.2123 5.677 0.243
69.2327 5.229 0.233
69.2532 5.677 0.243
69.2737 5.073 0.230
69.2941 4.958 0.227
69.3146 4.375 0.213
69.3350 3.833 0.200
69.3555 3.604 0.194
69.3760 3.469 0.190
69.3964 3.375 0.188
69.4169 3.635 0.195
69.4374 3.875 0.201
69.4578 4.188 0.209
69.4783 4.063 0.206
69.4988 3.469 0.190
69.5192 3.677 0.196
69.5397 3.021 0.177
69.5601 3.115 0.180
69.5806 2.885 0.173
69.6011 3.125 0.180
69.6215 3.073 0.179
69.6420 2.906 0.174
69.6625 3.031 0.178
69.6829 2.917 0.174
69.7034 3.000 0.177
69.7238 2.771 0.170
69.7443 2.760 0.170
69.7648 2.917 0.174
69.7852 2.906 0.174
69.8057 3.198 0.183
69.8262 3.177 0.182
69.8466 2.813 0.171
69.8671 3.104 0.180
69.8875 2.646 0.166
69.9080 3.271 0.185
69.9285 3.010 0.177
69.9489 3.156 0.181
69.9694 2.979 0.176
69.9899 2.719 0.168
70.0103 2.760 0.170
70.0308 2.948 0.175
70.0512 2.719 0.168
70.0717 2.771 0.170
70.0922 2.865 0.173
70.1126 2.844 0.172
70.1331 2.406 0.158
70.1536 2.479 0.161
70.1740 2.542 0.163
70.1945 2.510 0.162
70.2149 2.615 0.165
70.2354 2.469 0.160
70.2559 2.854 0.172
70.2763 2.656 0.166
70.2968 2.667 0.167
70.3173 2.885 0.173
70.3377 2.583 0.164
70.3582 2.854 0.172
70.3787 2.948 0.175
70.3991 2.510 0.162
70.4196 2.594 0.164
70.4400 2.708 0.168
70.4605 2.531 0.162
70.4810 2.635 0.166
70.5014 3.125 0.180
70.5219 2.833 0.172
70.5424 2.885 0.173
70.5628 2.760 0.170
70.5833 2.906 0.174
70.6037 2.927 0.175
70.6242 3.021 0.177
70.6447 2.677 0.167
70.6651 3.313 0.186
70.6856 3.094 0.180
70.7061 3.573 0.193
70.7265 3.406 0.188
70.7470 2.990 0.176
70.7674 3.167 0.182
70.7879 3.104 0.180
70.8084 2.896 0.174
70.8288 2.917 0.174
70.8493 3.156 0.181
70.8698 3.281 0.185
70.8902 2.938 0.175
70.9107 3.177 0.182
70.9311 3.146 0.181
70.9516 3.208 0.183
70.9721 3.125 0.180
70.9925 2.760 0.170
71.0130 3.573 0.193
71.0335 3.438 0.189
71.0539 3.427 0.189
71.0744 3.740 0.197
71.0948 3.760 0.198
71.1153 3.854 0.200
71.1358 3.604 0.194
71.1562 3.167 0.182
71.1767 3.615 0.194
71.1972 3.385 0.188
71.2176 3.135 0.181
71.2381 3.167 0.182
71.2586 3.115 0.180
71.2790 3.094 0.180
71.2995 3.292 0.185
71.3199 3.115 0.180
71.3404 3.302 0.185
71.3609 3.125 0.180
71.3813 2.740 0.169
71.4018 2.688 0.167
71.4223 3.021 0.177
71.4427 3.021 0.177
71.4632 3.302 0.185
71.4836 2.896 0.174
71.5041 2.854 0.172
71.5246 2.917 0.174
71.5450 3.073 0.179
71.5655 3.042 0.178
71.5860 3.208 0.183
71.6064 3.146 0.181
71.6269 3.313 0.186
71.6473 3.031 0.178
71.6678 2.906 0.174
71.6883 3.000 0.177
71.7087 2.844 0.172
71.7292 2.708 0.168
71.7497 2.927 0.175
71.7701 2.813 0.171
71.7906 3.156 0.181
71.8110 3.198 0.183
71.8315 3.188 0.182
71.8520 2.823 0.171
71.8724 2.656 0.166
71.8929 2.948 0.175
71.9134 2.854 0.172
71.9338 2.510 0.162
71.9543 2.625 0.165
71.9747 2.438 0.159
71.9952 2.313 0.155
72.0157 2.531 0.162
72.0361 2.969 0.176
72.0566 2.792 0.171
72.0771 2.208 0.152
72.0975 2.646 0.166
72.1180 2.521 0.162
72.1385 2.708 0.168
72.1589 2.219 0.152
72.1794 2.292 0.155
72.1998 2.385 0.158
72.2203 2.615 0.165
72.2408 2.802 0.171
72.2612 2.063 0.147
72.2817 2.500 0.161
72.3022 2.323 0.156
72.3226 2.396 0.158
72.3431 2.438 0.159
72.3635 2.510 0.162
72.3840 2.260 0.153
72.4045 2.521 0.162
72.4249 2.490 0.161
72.4454 2.302 0.155
72.4659 2.438 0.159
72.4863 2.281 0.154
72.5068 2.427 0.159
72.5272 2.490 0.161
72.5477 2.531 0.162
72.5682 2.417 0.159
72.5886 2.521 0.162
72.6091 2.698 0.168
72.6296 2.448 0.160
72.6500 2.760 0.170
72.6705 2.531 0.162
72.6909 2.760 0.170
72.7114 2.448 0.160
72.7319 2.531 0.162
72.7523 2.896 0.174
72.7728 2.542 0.163
72.7933 3.135 0.181
72.8137 3.229 0.183
72.8342 3.469 0.190
72.8547 3.469 0.190
72.8751 3.698 0.196
72.8956 3.156 0.181
72.9160 2.865 0.173
72.9365 2.990 0.176
72.9570 3.083 0.179
72.9774 2.823 0.171
72.9979 2.531 0.162
73.0184 2.646 0.166
73.0388 2.708 0.168
73.0593 3.156 0.181
73.0797 2.969 0.176
73.1002 2.771 0.170
73.1207 2.615 0.165
73.1411 2.875 0.173
73.1616 2.604 0.165
73.1821 2.365 0.157
73.2025 2.271 0.154
73.2230 2.677 0.167
73.2434 2.792 0.171
73.2639 2.375 0.157
73.2844 2.396 0.158
73.3048 2.302 0.155
73.3253 2.115 0.148
73.3458 2.375 0.157
73.3662 2.469 0.160
73.3867 2.354 0.157
73.4071 2.240 0.153
73.4276 1.865 0.139
73.4481 2.385 0.158
73.4685 2.417 0.159
73.4890 2.219 0.152
73.5095 2.156 0.150
73.5299 1.979 0.144
73.5504 2.250 0.153
73.5708 2.281 0.154
73.5913 2.021 0.145
73.6118 2.115 0.148
73.6322 2.438 0.159
73.6527 2.302 0.155
73.6732 2.198 0.151
73.6936 2.365 0.157
73.7141 2.135 0.149
73.7346 2.375 0.157
73.7550 2.385 0.158
73.7755 2.375 0.157
73.7959 2.313 0.155
73.8164 2.146 0.150
73.8369 2.177 0.151
73.8573 1.802 0.137
73.8778 2.292 0.155
73.8983 2.094 0.148
73.9187 2.260 0.153
73.9392 2.500 0.161
73.9596 2.635 0.166
73.9801 2.604 0.165
74.0006 2.552 0.163
74.0210 2.521 0.162
74.0415 2.750 0.169
74.0620 2.500 0.161
74.0824 2.729 0.169
74.1029 2.563 0.163
74.1233 2.396 0.158
74.1438 2.500 0.161
74.1643 2.344 0.156
74.1847 2.667 0.167
74.2052 2.594 0.164
74.2257 2.490 0.161
74.2461 2.479 0.161
74.2666 2.781 0.170
74.2870 2.313 0.155
74.3075 2.458 0.160
74.3280 2.688 0.167
74.3484 2.521 0.162
74.3689 2.281 0.154
74.3894 2.302 0.155
74.4098 2.323 0.156
74.4303 2.125 0.149
74.4507 2.208 0.152
74.4712 2.385 0.158
74.4917 2.375 0.157
74.5121 2.573 0.164
74.5326 2.021 0.145
74.5531 2.531 0.162
74.5735 2.094 0.148
74.5940 2.010 0.145
74.6145 2.375 0.157
74.6349 2.125 0.149
74.6554 2.458 0.160
74.6758 2.646 0.166
74.6963 2.156 0.150
74.7168 2.292 0.155
74.7372 2.385 0.158
74.7577 2.313 0.155
74.7782 2.219 0.152
74.7986 2.375 0.157
74.8191 2.469 0.160
74.8395 2.104 0.148
74.8600 2.344 0.156
74.8805 2.146 0.150
74.9009 2.333 0.156
74.9214 2.281 0.154
74.9419 1.844 0.139
74.9623 2.396 0.158
74.9828 2.021 0.145
75.0032 2.281 0.154
75.0237 2.000 0.144
75.0442 1.990 0.144
75.0646 2.208 0.152
75.0851 2.438 0.159
75.1056 2.427 0.159
75.1260 2.208 0.152
75.1465 2.188 0.151
75.1669 2.354 0.157
75.1874 2.188 0.151
75.2079 2.469 0.160
75.2283 2.427 0.159
75.2488 2.375 0.157
75.2693 2.281 0.154
75.2897 1.969 0.143
75.3102 2.344 0.156
75.3306 1.948 0.142
75.3511 2.469 0.160
75.3716 2.198 0.151
75.3920 2.479 0.161
75.4125 2.115 0.148
75.4330 2.563 0.163
75.4534 2.083 0.147
75.4739 2.385 0.158
75.4944 2.333 0.156
75.5148 2.219 0.152
75.5353 2.625 0.165
75.5557 2.292 0.155
75.5762 2.771 0.170
75.5967 2.688 0.167
75.6171 3.042 0.178
75.6376 2.646 0.166
75.6581 2.948 0.175
75.6785 3.063 0.179
75.6990 3.625 0.194
75.7194 4.104 0.207
75.7399 4.208 0.209
75.7604 4.958 0.227
75.7808 4.802 0.224
75.8013 5.531 0.240
75.8218 5.677 0.243
75.8422 5.760 0.245
75.8627 4.927 0.227
75.8831 4.469 0.216
75.9036 4.292 0.211
75.9241 4.010 0.204
75.9445 3.802 0.199
75.9650 4.052 0.205
75.9855 4.219 0.210
76.0059 4.542 0.218
76.0264 4.208 0.209
76.0468 4.552 0.218
76.0673 3.938 0.203
76.0878 3.667 0.195
76.1082 3.625 0.194
76.1287 3.500 0.191
76.1492 2.927 0.175
76.1696 3.104 0.180
76.1901 3.094 0.180
76.2105 2.844 0.172
76.2310 2.885 0.173
76.2515 2.656 0.166
76.2719 2.802 0.171
76.2924 2.542 0.163
76.3129 2.531 0.162
76.3333 3.052 0.178
76.3538 2.635 0.166
76.3743 3.000 0.177
76.3947 2.583 0.164
76.4152 2.635 0.166
76.4356 2.813 0.171
76.4561 2.698 0.168
76.4766 2.323 0.156
76.4970 2.729 0.169
76.5175 2.490 0.161
76.5380 2.708 0.168
76.5584 2.563 0.163
76.5789 2.552 0.163
76.5993 2.240 0.153
76.6198 2.323 0.156
76.6403 2.563 0.163
76.6607 1.948 0.142
76.6812 2.490 0.161
76.7017 2.313 0.155
76.7221 2.427 0.159
76.7426 2.458 0.160
76.7630 2.708 0.168
76.7835 2.500 0.161
76.8040 2.292 0.155
76.8244 2.375 0.157
76.8449 2.479 0.161
76.8654 2.198 0.151
76.8858 2.375 0.157
76.9063 2.531 0.162
76.9267 2.229 0.152
76.9472 1.990 0.144
76.9677 2.542 0.163
76.9881 2.458 0.160
77.0086 2.219 0.152
77.0291 2.323 0.156
77.0495 2.458 0.160
77.0700 2.365 0.157
77.0905 2.219 0.152
77.1109 2.229 0.152
77.1314 2.458 0.160
77.1518 2.281 0.154
77.1723 2.365 0.157
77.1928 2.250 0.153
77.2132 2.490 0.161
77.2337 2.375 0.157
77.2542 2.344 0.156
77.2746 2.552 0.163
77.2951 2.458 0.160
77.3155 2.594 0.164
77.3360 2.563 0.163
77.3565 2.677 0.167
77.3769 2.833 0.172
77.3974 2.823 0.171
77.4179 2.781 0.170
77.4383 2.865 0.173
77.4588 3.458 0.190
77.4792 3.302 0.185
77.4997 3.292 0.185
77.5202 3.563 0.193
77.5406 3.896 0.201
77.5611 3.677 0.196
77.5816 3.573 0.193
77.6020 3.469 0.190
77.6225 3.573 0.193
77.6429 3.396 0.188
77.6634 3.000 0.177
77.6839 3.104 0.180
77.7043 3.063 0.179
77.7248 3.406 0.188
77.7453 3.344 0.187
77.7657 3.521 0.192
77.7862 3.500 0.191
77.8066 3.490 0.191
77.8271 3.250 0.184
77.8476 3.188 0.182
77.8680 3.000 0.177
77.8885 3.042 0.178
77.9090 2.854 0.172
77.9294 2.948 0.175
77.9499 2.844 0.172
77.9704 2.823 0.171
77.9908 2.865 0.173
78.0113 2.521 0.162
78.0317 2.719 0.168
78.0522 2.552 0.163
78.0727 3.000 0.177
78.0931 2.615 0.165
78.1136 2.698 0.168
78.1341 2.594 0.164
78.1545 2.448 0.160
78.1750 2.365 0.157
78.1954 2.000 0.144
78.2159 2.167 0.150
78.2364 2.333 0.156
78.2568 2.406 0.158
78.2773 2.375 0.157
78.2978 2.594 0.164
78.3182 2.948 0.175
78.3387 2.510 0.162
78.3591 2.542 0.163
78.3796 2.917 0.174
78.4001 3.188 0.182
78.4205 3.229 0.183
78.4410 3.250 0.184
78.4615 2.885 0.173
78.4819 2.698 0.168
78.5024 2.625 0.165
78.5228 3.000 0.177
78.5433 3.104 0.180
78.5638 3.125 0.180
78.5842 3.125 0.180
78.6047 3.021 0.177
78.6252 3.302 0.185
78.6456 3.250 0.184
78.6661 3.271 0.185
78.6865 2.927 0.175
78.7070 2.990 0.176
78.7275 2.823 0.171
78.7479 2.906 0.174
78.7684 2.865 0.173
78.7889 2.958 0.176
78.8093 2.802 0.171
78.8298 3.292 0.185
78.8503 2.927 0.175
78.8707 3.052 0.178
78.8912 3.677 0.196
78.9116 3.208 0.183
78.9321 3.458 0.190
78.9526 3.073 0.179
78.9730 3.854 0.200
78.9935 3.354 0.187
79.0140 3.313 0.186
79.0344 2.844 0.172
79.0549 3.219 0.183
79.0753 2.958 0.176
79.0958 3.052 0.178
79.1163 2.865 0.173
79.1367 2.927 0.175
79.1572 3.042 0.178
79.1777 2.958 0.176
79.1981 2.969 0.176
79.2186 2.979 0.176
79.2390 2.813 0.171
79.2595 2.865 0.173
79.2800 2.573 0.164
79.3004 2.719 0.168
79.3209 2.510 0.162
79.3414 2.552 0.163
79.3618 2.458 0.160
79.3823 2.823 0.171
79.4027 2.500 0.161
79.4232 2.542 0.163
79.4437 2.885 0.173
79.4641 3.177 0.182
79.4846 2.906 0.174
79.5051 2.865 0.173
79.5255 3.344 0.187
79.5460 3.281 0.185
79.5664 3.354 0.187
79.5869 3.313 0.186
79.6074 2.958 0.176
79.6278 2.531 0.162
79.6483 2.688 0.167
79.6688 2.990 0.176
79.6892 2.542 0.163
79.7097 2.927 0.175
79.7302 2.802 0.171
79.7506 2.583 0.164
79.7711 3.083 0.179
79.7915 2.667 0.167
79.8120 2.635 0.166
79.8325 2.958 0.176
79.8529 2.719 0.168
79.8734 2.990 0.176
79.8939 2.490 0.161
79.9143 2.427 0.159
79.9348 2.625 0.165
79.9552 2.625 0.165
79.9757 2.542 0.163
79.9962 2.354 0.157
