'Id: "" Comment: "" Operator: "Lab Manager" Anode: "Cu" Scantype: "Locked Coupled" TimePerStep: "96" X: "0" Y: "0" Z: "0" 
5.0000 22.281 0.482
5.0205 21.458 0.473
5.0409 20.979 0.467
5.0614 21.688 0.475
5.0819 20.917 0.467
5.1023 20.823 0.466
5.1228 21.313 0.471
5.1432 21.771 0.476
5.1637 21.115 0.469
5.1842 21.250 0.470
5.2046 20.771 0.465
5.2251 21.094 0.469
5.2456 20.052 0.457
5.2660 20.792 0.465
5.2865 20.958 0.467
5.3069 20.938 0.467
5.3274 22.031 0.479
5.3479 20.719 0.465
5.3683 20.427 0.461
5.3888 20.302 0.460
5.4093 20.688 0.464
5.4297 21.073 0.469
5.4502 20.125 0.458
5.4706 20.177 0.458
5.4911 20.698 0.464
5.5116 21.063 0.468
5.5320 20.635 0.464
5.5525 20.396 0.461
5.5730 19.885 0.455
5.5934 20.031 0.457
5.6139 20.198 0.459
5.6343 19.677 0.453
5.6548 19.938 0.456
5.6753 20.417 0.461
5.6957 19.563 0.451
5.7162 19.531 0.451
5.7367 19.552 0.451
5.7571 19.344 0.449
5.7776 20.208 0.459
5.7980 19.281 0.448
5.8185 20.094 0.458
5.8390 19.135 0.446
5.8594 19.125 0.446
5.8799 19.208 0.447
5.9004 19.010 0.445
5.9208 19.604 0.452
5.9413 19.479 0.450
5.9618 19.167 0.447
5.9822 19.167 0.447
6.0027 19.302 0.448
6.0231 19.667 0.453
6.0436 19.313 0.449
6.0641 18.927 0.444
6.0845 18.823 0.443
6.1050 20.031 0.457
6.1255 18.760 0.442
6.1459 19.323 0.449
6.1664 18.333 0.437
6.1868 19.458 0.450
6.2073 19.302 0.448
6.2278 19.823 0.454
6.2482 19.094 0.446
6.2687 19.521 0.451
6.2892 18.219 0.436
6.3096 18.490 0.439
6.3301 19.313 0.449
6.3505 19.531 0.451
6.3710 19.990 0.456
6.3915 19.063 0.446
6.4119 17.896 0.432
6.4324 18.677 0.441
6.4529 19.104 0.446
6.4733 19.094 0.446
6.4938 19.188 0.447
6.5142 19.167 0.447
6.5347 19.177 0.447
6.5552 19.813 0.454
6.5756 19.010 0.445
6.5961 19.208 0.447
6.6166 19.417 0.450
6.6370 18.760 0.442
6.6575 19.156 0.447
6.6779 18.542 0.439
6.6984 19.125 0.446
6.7189 18.635 0.441
6.7393 18.750 0.442
6.7598 18.771 0.442
6.7803 18.906 0.444
6.8007 19.125 0.446
6.8212 18.729 0.442
6.8417 18.813 0.443
6.8621 19.375 0.449
6.8826 18.167 0.435
6.9030 18.833 0.443
6.9235 18.854 0.443
6.9440 18.885 0.444
6.9644 19.906 0.455
6.9849 19.385 0.449
7.0054 19.698 0.453
7.0258 18.729 0.442
7.0463 20.156 0.458
7.0667 19.656 0.452
7.0872 19.594 0.452
7.1077 18.865 0.443
7.1281 19.365 0.449
7.1486 18.781 0.442
7.1691 18.156 0.435
7.1895 19.427 0.450
7.2100 19.344 0.449
7.2304 19.073 0.446
7.2509 18.823 0.443
7.2714 18.469 0.439
7.2918 18.635 0.441
7.3123 19.323 0.449
7.3328 18.354 0.437
7.3532 18.813 0.443
7.3737 19.219 0.447
7.3941 18.969 0.445
7.4146 18.938 0.444
7.4351 19.135 0.446
7.4555 18.865 0.443
7.4760 19.427 0.450
7.4965 19.406 0.450
7.5169 19.396 0.449
7.5374 19.177 0.447
7.5579 19.292 0.448
7.5783 18.698 0.441
7.5988 19.115 0.446
7.6192 18.698 0.441
7.6397 19.510 0.451
7.6602 19.188 0.447
7.6806 19.458 0.450
7.7011 19.917 0.455
7.7216 18.719 0.442
7.7420 19.323 0.449
7.7625 19.406 0.450
7.7829 18.885 0.444
7.8034 19.000 0.445
7.8239 19.385 0.449
7.8443 19.729 0.453
7.8648 18.833 0.443
7.8853 18.667 0.441
7.9057 19.240 0.448
7.9262 18.719 0.442
7.9466 20.281 0.460
7.9671 19.010 0.445
7.9876 19.906 0.455
8.0080 19.771 0.454
8.0285 19.542 0.451
8.0490 18.885 0.444
8.0694 18.542 0.439
8.0899 19.625 0.452
8.1103 19.688 0.453
8.1308 19.448 0.450
8.1513 19.302 0.448
8.1717 19.729 0.453
8.1922 19.510 0.451
8.2127 19.115 0.446
8.2331 19.188 0.447
8.2536 19.563 0.451
8.2740 19.542 0.451
8.2945 19.385 0.449
8.3150 19.250 0.448
8.3354 18.885 0.444
8.3559 19.844 0.455
8.3764 19.521 0.451
8.3968 19.938 0.456
8.4173 19.698 0.453
8.4378 19.917 0.455
8.4582 19.167 0.447
8.4787 19.260 0.448
8.4991 19.323 0.449
8.5196 19.573 0.452
8.5401 19.719 0.453
8.5605 19.021 0.445
8.5810 18.896 0.444
8.6015 19.990 0.456
8.6219 19.333 0.449
8.6424 19.635 0.452
8.6628 19.667 0.453
8.6833 19.625 0.452
8.7038 19.292 0.448
8.7242 20.490 0.462
8.7447 19.823 0.454
8.7652 20.573 0.463
8.7856 20.792 0.465
8.8061 21.396 0.472
8.8265 21.500 0.473
8.8470 21.073 0.469
8.8675 22.531 0.484
8.8879 22.677 0.486
8.9084 23.490 0.495
8.9289 24.833 0.509
8.9493 22.771 0.487
8.9698 22.927 0.489
8.9902 23.948 0.499
9.0107 24.813 0.508
9.0312 25.719 0.518
9.0516 26.500 0.525
9.0721 27.635 0.537
9.0926 29.479 0.554
9.1130 31.750 0.575
9.1335 34.333 0.598
9.1539 37.802 0.628
9.1744 42.948 0.669
9.1949 48.896 0.714
9.2153 60.594 0.794
9.2358 70.531 0.857
9.2563 84.313 0.937
9.2767 98.135 1.011
9.2972 103.969 1.041
9.3177 98.646 1.014
9.3381 94.479 0.992
9.3586 90.115 0.969
9.3790 85.094 0.941
9.3995 84.365 0.937
9.4200 81.083 0.919
9.4404 80.646 0.917
9.4609 82.156 0.925
9.4814 83.646 0.933
9.5018 87.542 0.955
9.5223 92.625 0.982
9.5427 98.146 1.011
9.5632 104.531 1.043
9.5837 111.531 1.078
9.6041 118.563 1.111
9.6246 127.000 1.150
9.6451 139.094 1.204
9.6655 146.885 1.237
9.6860 160.031 1.291
9.7064 182.979 1.381
9.7269 207.260 1.469
9.7474 253.010 1.623
9.7678 313.385 1.807
9.7883 410.979 2.069
9.8088 562.719 2.421
9.8292 798.875 2.885
9.8497 1168.781 3.489
9.8701 1593.146 4.074
9.8906 1425.542 3.853
9.9111 836.688 2.952
9.9315 367.010 1.955
9.9520 189.115 1.404
9.9725 126.792 1.149
9.9929 102.010 1.031
10.0134 87.323 0.954
10.0338 80.458 0.915
10.0543 70.875 0.859
10.0748 66.208 0.830
10.0952 59.115 0.785
10.1157 53.885 0.749
10.1362 46.552 0.696
10.1566 41.031 0.654
10.1771 37.396 0.624
10.1976 34.677 0.601
10.2180 31.615 0.574
10.2385 31.740 0.575
10.2589 31.990 0.577
10.2794 29.948 0.559
10.2999 28.729 0.547
10.3203 28.313 0.543
10.3408 27.854 0.539
10.3613 27.938 0.539
10.3817 26.573 0.526
10.4022 25.010 0.510
10.4226 25.875 0.519
10.4431 25.208 0.512
10.4636 24.052 0.501
10.4840 23.667 0.497
10.5045 24.396 0.504
10.5250 23.271 0.492
10.5454 23.229 0.492
10.5659 23.365 0.493
10.5863 23.198 0.492
10.6068 23.167 0.491
10.6273 22.250 0.481
10.6477 22.250 0.481
10.6682 21.958 0.478
10.6887 22.354 0.483
10.7091 22.406 0.483
10.7296 21.719 0.476
10.7500 22.167 0.481
10.7705 21.469 0.473
10.7910 21.354 0.472
10.8114 20.792 0.465
10.8319 20.542 0.463
10.8524 20.677 0.464
10.8728 19.667 0.453
10.8933 20.000 0.456
10.9137 20.135 0.458
10.9342 20.563 0.463
10.9547 21.333 0.471
10.9751 19.979 0.456
10.9956 19.094 0.446
11.0161 19.063 0.446
11.0365 18.792 0.442
11.0570 19.021 0.445
11.0775 18.542 0.439
11.0979 18.354 0.437
11.1184 18.875 0.443
11.1388 18.615 0.440
11.1593 17.979 0.433
11.1798 17.021 0.421
11.2002 17.688 0.429
11.2207 18.698 0.441
11.2412 17.552 0.428
11.2616 16.656 0.417
11.2821 17.438 0.426
11.3025 17.594 0.428
11.3230 17.021 0.421
11.3435 17.344 0.425
11.3639 16.990 0.421
11.3844 17.177 0.423
11.4049 15.792 0.406
11.4253 16.365 0.413
11.4458 15.906 0.407
11.4662 16.260 0.412
11.4867 16.958 0.420
11.5072 16.615 0.416
11.5276 16.281 0.412
11.5481 16.625 0.416
11.5686 16.115 0.410
11.5890 15.781 0.405
11.6095 16.302 0.412
11.6299 16.406 0.413
11.6504 15.844 0.406
11.6709 15.635 0.404
11.6913 16.354 0.413
11.7118 15.833 0.406
11.7323 15.906 0.407
11.7527 15.656 0.404
11.7732 15.542 0.402
11.7937 15.260 0.399
11.8141 14.688 0.391
11.8346 14.979 0.395
11.8550 15.208 0.398
11.8755 14.583 0.390
11.8960 15.000 0.395
11.9164 15.052 0.396
11.9369 15.177 0.398
11.9574 14.594 0.390
11.9778 14.281 0.386
11.9983 14.177 0.384
12.0187 14.104 0.383
12.0392 13.917 0.381
12.0597 13.927 0.381
12.0801 13.917 0.381
12.1006 12.875 0.366
12.1211 13.208 0.371
12.1415 13.604 0.376
12.1620 13.740 0.378
12.1824 13.490 0.375
12.2029 14.302 0.386
12.2234 13.000 0.368
12.2438 14.125 0.384
12.2643 13.250 0.372
12.2848 13.167 0.370
12.3052 13.156 0.370
12.3257 13.438 0.374
12.3461 12.229 0.357
12.3666 13.490 0.375
12.3871 13.417 0.374
12.4075 12.729 0.364
12.4280 13.531 0.375
12.4485 13.250 0.372
12.4689 12.531 0.361
12.4894 12.479 0.361
12.5098 12.229 0.357
12.5303 12.542 0.361
12.5508 11.875 0.352
12.5712 12.469 0.360
12.5917 12.479 0.361
12.6122 12.469 0.360
12.6326 12.396 0.359
12.6531 12.760 0.365
12.6736 12.583 0.362
12.6940 12.635 0.363
12.7145 12.323 0.358
12.7349 12.219 0.357
12.7554 11.990 0.353
12.7759 11.969 0.353
12.7963 11.969 0.353
12.8168 11.625 0.348
12.8373 12.354 0.359
12.8577 11.948 0.353
12.8782 12.198 0.356
12.8986 12.104 0.355
12.9191 11.135 0.341
12.9396 11.396 0.345
12.9600 11.146 0.341
12.9805 11.594 0.348
13.0010 11.083 0.340
13.0214 11.354 0.344
13.0419 11.104 0.340
13.0623 11.896 0.352
13.0828 11.104 0.340
13.1033 10.885 0.337
13.1237 11.198 0.342
13.1442 10.813 0.336
13.1647 10.958 0.338
13.1851 11.156 0.341
13.2056 11.948 0.353
13.2260 11.375 0.344
13.2465 10.344 0.328
13.2670 11.250 0.342
13.2874 10.792 0.335
13.3079 11.281 0.343
13.3284 11.010 0.339
13.3488 11.042 0.339
13.3693 11.000 0.339
13.3897 11.125 0.340
13.4102 10.740 0.334
13.4307 11.594 0.348
13.4511 10.615 0.333
13.4716 10.792 0.335
13.4921 10.990 0.338
13.5125 10.000 0.323
13.5330 10.833 0.336
13.5535 11.417 0.345
13.5739 10.052 0.324
13.5944 10.167 0.325
13.6148 10.240 0.327
13.6353 10.229 0.326
13.6558 10.302 0.328
13.6762 9.844 0.320
13.6967 10.271 0.327
13.7172 10.573 0.332
13.7376 9.990 0.323
13.7581 10.490 0.331
13.7785 9.729 0.318
13.7990 10.188 0.326
13.8195 10.208 0.326
13.8399 9.563 0.316
13.8604 9.427 0.313
13.8809 9.615 0.316
13.9013 10.469 0.330
13.9218 10.146 0.325
13.9422 10.052 0.324
13.9627 9.906 0.321
13.9832 10.250 0.327
14.0036 9.875 0.321
14.0241 10.146 0.325
14.0446 9.500 0.315
14.0650 10.115 0.325
14.0855 9.823 0.320
14.1059 10.156 0.325
14.1264 10.271 0.327
14.1469 10.021 0.323
14.1673 9.615 0.316
14.1878 9.917 0.321
14.2083 9.823 0.320
14.2287 9.969 0.322
14.2492 9.656 0.317
14.2696 9.281 0.311
14.2901 10.010 0.323
14.3106 9.469 0.314
14.3310 9.406 0.313
14.3515 9.354 0.312
14.3720 9.240 0.310
14.3924 9.406 0.313
14.4129 10.385 0.329
14.4334 9.354 0.312
14.4538 9.385 0.313
14.4743 9.396 0.313
14.4947 9.052 0.307
14.5152 9.813 0.320
14.5357 9.615 0.316
14.5561 9.542 0.315
14.5766 9.365 0.312
14.5971 9.208 0.310
14.6175 9.625 0.317
14.6380 9.438 0.314
14.6584 9.427 0.313
14.6789 9.406 0.313
14.6994 9.313 0.311
14.7198 10.219 0.326
14.7403 10.073 0.324
14.7608 9.740 0.319
14.7812 9.240 0.310
14.8017 8.917 0.305
14.8221 9.469 0.314
14.8426 9.052 0.307
14.8631 9.615 0.316
14.8835 9.490 0.314
14.9040 9.104 0.308
14.9245 9.375 0.313
14.9449 8.896 0.304
14.9654 9.198 0.310
14.9858 9.198 0.310
15.0063 9.271 0.311
15.0268 8.813 0.303
15.0472 9.083 0.308
15.0677 8.510 0.298
15.0882 8.573 0.299
15.1086 9.323 0.312
15.1291 9.042 0.307
15.1495 9.000 0.306
15.1700 9.208 0.310
15.1905 9.198 0.310
15.2109 8.969 0.306
15.2314 9.406 0.313
15.2519 9.208 0.310
15.2723 9.167 0.309
15.2928 8.646 0.300
15.3133 8.885 0.304
15.3337 8.958 0.305
15.3542 8.656 0.300
15.3746 8.708 0.301
15.3951 9.146 0.309
15.4156 8.917 0.305
15.4360 8.667 0.300
15.4565 8.302 0.294
15.4770 8.792 0.303
15.4974 8.656 0.300
15.5179 8.344 0.295
15.5383 8.490 0.297
15.5588 9.146 0.309
15.5793 8.302 0.294
15.5997 7.990 0.288
15.6202 8.448 0.297
15.6407 8.875 0.304
15.6611 8.385 0.296
15.6816 9.083 0.308
15.7020 8.969 0.306
15.7225 9.271 0.311
15.7430 8.917 0.305
15.7634 8.406 0.296
15.7839 8.781 0.302
15.8044 9.000 0.306
15.8248 8.635 0.300
15.8453 8.240 0.293
15.8657 9.031 0.307
15.8862 9.000 0.306
15.9067 8.771 0.302
15.9271 8.667 0.300
15.9476 8.667 0.300
15.9681 8.938 0.305
15.9885 9.000 0.306
16.0090 9.104 0.308
16.0295 8.719 0.301
16.0499 8.906 0.305
16.0704 9.042 0.307
16.0908 8.719 0.301
16.1113 8.792 0.303
16.1318 8.740 0.302
16.1522 8.823 0.303
16.1727 8.615 0.300
16.1932 8.896 0.304
16.2136 8.469 0.297
16.2341 8.656 0.300
16.2545 8.656 0.300
16.2750 8.729 0.302
16.2955 8.604 0.299
16.3159 8.604 0.299
16.3364 8.313 0.294
16.3569 8.490 0.297
16.3773 9.010 0.306
16.3978 8.271 0.294
16.4182 9.021 0.307
16.4387 8.792 0.303
16.4592 8.594 0.299
16.4796 7.833 0.286
16.5001 8.771 0.302
16.5206 8.010 0.289
16.5410 8.521 0.298
16.5615 8.250 0.293
16.5819 8.344 0.295
16.6024 8.365 0.295
16.6229 8.271 0.294
16.6433 8.448 0.297
16.6638 8.833 0.303
16.6843 7.958 0.288
16.7047 8.135 0.291
16.7252 8.688 0.301
16.7456 8.448 0.297
16.7661 8.615 0.300
16.7866 8.448 0.297
16.8070 8.781 0.302
16.8275 8.344 0.295
16.8480 8.917 0.305
16.8684 8.604 0.299
16.8889 8.146 0.291
16.9094 8.323 0.294
16.9298 7.958 0.288
16.9503 8.292 0.294
16.9707 8.594 0.299
16.9912 8.229 0.293
17.0117 8.479 0.297
17.0321 8.031 0.289
17.0526 8.594 0.299
17.0731 8.656 0.300
17.0935 8.750 0.302
17.1140 8.646 0.300
17.1344 8.938 0.305
17.1549 8.896 0.304
17.1754 9.198 0.310
17.1958 8.521 0.298
17.2163 8.385 0.296
17.2368 8.990 0.306
17.2572 8.885 0.304
17.2777 8.979 0.306
17.2981 9.021 0.307
17.3186 9.750 0.319
17.3391 9.177 0.309
17.3595 9.635 0.317
17.3800 10.146 0.325
17.4005 10.031 0.323
17.4209 10.021 0.323
17.4414 10.010 0.323
17.4618 9.688 0.318
17.4823 9.667 0.317
17.5028 10.031 0.323
17.5232 10.125 0.325
17.5437 9.656 0.317
17.5642 9.490 0.314
17.5846 9.938 0.322
17.6051 9.938 0.322
17.6255 10.208 0.326
17.6460 10.615 0.333
17.6665 10.573 0.332
17.6869 10.156 0.325
17.7074 11.073 0.340
17.7279 10.344 0.328
17.7483 11.292 0.343
17.7688 11.188 0.341
17.7893 11.177 0.341
17.8097 11.823 0.351
17.8302 12.031 0.354
17.8506 12.469 0.360
17.8711 12.906 0.367
17.8916 12.573 0.362
17.9120 13.417 0.374
17.9325 12.906 0.367
17.9530 14.479 0.388
17.9734 14.781 0.392
17.9939 15.083 0.396
18.0143 16.094 0.409
18.0348 18.490 0.439
18.0553 18.708 0.441
18.0757 20.729 0.465
18.0962 20.729 0.465
18.1167 20.844 0.466
18.1371 20.125 0.458
18.1576 20.313 0.460
18.1780 22.083 0.480
18.1985 23.146 0.491
18.2190 24.500 0.505
18.2394 26.063 0.521
18.2599 27.469 0.535
18.2804 28.771 0.547
18.3008 29.656 0.556
18.3213 29.729 0.556
18.3417 30.365 0.562
18.3622 31.281 0.571
18.3827 30.885 0.567
18.4031 30.458 0.563
18.4236 30.719 0.566
18.4441 30.521 0.564
18.4645 30.406 0.563
18.4850 29.854 0.558
18.5054 31.958 0.577
18.5259 32.729 0.584
18.5464 35.969 0.612
18.5668 38.865 0.636
18.5873 42.240 0.663
18.6078 44.042 0.677
18.6282 43.708 0.675
18.6487 43.271 0.671
18.6692 40.313 0.648
18.6896 38.740 0.635
18.7101 36.792 0.619
18.7305 34.760 0.602
18.7510 34.427 0.599
18.7715 34.542 0.600
18.7919 32.344 0.580
18.8124 31.927 0.577
18.8329 29.135 0.551
18.8533 27.677 0.537
18.8738 26.823 0.529
18.8942 24.979 0.510
18.9147 24.000 0.500
18.9352 23.813 0.498
18.9556 22.813 0.487
18.9761 22.219 0.481
18.9966 21.135 0.469
19.0170 22.250 0.481
19.0375 20.865 0.466
19.0579 20.656 0.464
19.0784 20.938 0.467
19.0989 20.813 0.466
19.1193 20.344 0.460
19.1398 21.552 0.474
19.1603 21.125 0.469
19.1807 21.615 0.475
19.2012 21.573 0.474
19.2216 21.323 0.471
19.2421 21.792 0.476
19.2626 21.302 0.471
19.2830 21.875 0.477
19.3035 21.177 0.470
19.3240 21.688 0.475
19.3444 22.979 0.489
19.3649 23.208 0.492
19.3853 23.521 0.495
19.4058 24.583 0.506
19.4263 24.615 0.506
19.4467 25.083 0.511
19.4672 26.229 0.523
19.4877 27.115 0.531
19.5081 29.094 0.551
19.5286 30.198 0.561
19.5491 32.854 0.585
19.5695 36.188 0.614
19.5900 38.844 0.636
19.6104 40.594 0.650
19.6309 42.865 0.668
19.6514 48.688 0.712
19.6718 55.146 0.758
19.6923 62.510 0.807
19.7128 75.927 0.889
19.7332 95.729 0.999
19.7537 128.573 1.157
19.7741 186.271 1.393
19.7946 290.917 1.741
19.8151 424.948 2.104
19.8355 396.625 2.033
19.8560 287.625 1.731
19.8765 238.698 1.577
19.8969 136.323 1.192
19.9174 72.844 0.871
19.9378 50.167 0.723
19.9583 40.563 0.650
19.9788 34.510 0.600
19.9992 31.156 0.570
20.0197 28.927 0.549
20.0402 26.479 0.525
20.0606 25.271 0.513
20.0811 23.052 0.490
20.1015 21.063 0.468
20.1220 20.417 0.461
20.1425 20.052 0.457
20.1629 19.896 0.455
20.1834 20.938 0.467
20.2039 21.802 0.477
20.2243 20.885 0.466
20.2448 21.521 0.473
20.2653 23.948 0.499
20.2857 22.667 0.486
20.3062 22.865 0.488
20.3266 23.177 0.491
20.3471 23.542 0.495
20.3676 22.698 0.486
20.3880 21.719 0.476
20.4085 22.135 0.480
20.4290 21.042 0.468
20.4494 21.292 0.471
20.4699 21.344 0.472
20.4903 20.219 0.459
20.5108 21.156 0.469
20.5313 19.531 0.451
20.5517 18.521 0.439
20.5722 18.219 0.436
20.5927 17.219 0.424
20.6131 16.156 0.410
20.6336 16.052 0.409
20.6540 13.979 0.382
20.6745 14.604 0.390
20.6950 13.646 0.377
20.7154 12.396 0.359
20.7359 12.323 0.358
20.7564 13.135 0.370
20.7768 12.771 0.365
20.7973 13.146 0.370
20.8177 12.604 0.362
20.8382 11.896 0.352
20.8587 11.542 0.347
20.8791 11.073 0.340
20.8996 11.583 0.347
20.9201 11.896 0.352
20.9405 10.979 0.338
20.9610 11.365 0.344
20.9814 11.521 0.346
21.0019 11.490 0.346
21.0224 11.063 0.339
21.0428 10.594 0.332
21.0633 11.125 0.340
21.0838 11.385 0.344
21.1042 11.448 0.345
21.1247 11.125 0.340
21.1452 11.406 0.345
21.1656 11.063 0.339
21.1861 10.802 0.335
21.2065 10.458 0.330
21.2270 10.969 0.338
21.2475 10.021 0.323
21.2679 10.344 0.328
21.2884 10.063 0.324
21.3089 10.885 0.337
21.3293 10.021 0.323
21.3498 10.510 0.331
21.3702 10.292 0.327
21.3907 10.188 0.326
21.4112 9.896 0.321
21.4316 10.427 0.330
21.4521 10.198 0.326
21.4726 10.104 0.324
21.4930 10.625 0.333
21.5135 10.010 0.323
21.5339 9.958 0.322
21.5544 10.063 0.324
21.5749 10.552 0.332
21.5953 10.323 0.328
21.6158 10.198 0.326
21.6363 10.531 0.331
21.6567 10.417 0.329
21.6772 11.208 0.342
21.6976 11.250 0.342
21.7181 11.135 0.341
21.7386 11.229 0.342
21.7590 11.208 0.342
21.7795 11.417 0.345
21.8000 11.167 0.341
21.8204 10.781 0.335
21.8409 10.677 0.333
21.8613 10.302 0.328
21.8818 11.052 0.339
21.9023 10.375 0.329
21.9227 10.740 0.334
21.9432 11.542 0.347
21.9637 11.969 0.353
21.9841 12.354 0.359
22.0046 12.573 0.362
22.0251 12.104 0.355
22.0455 13.281 0.372
22.0660 15.125 0.397
22.0864 17.229 0.424
22.1069 22.115 0.480
22.1274 28.740 0.547
22.1478 37.073 0.621
22.1683 48.292 0.709
22.1888 49.927 0.721
22.2092 41.865 0.660
22.2297 38.698 0.635
22.2501 33.000 0.586
22.2706 24.135 0.501
22.2911 20.760 0.465
22.3115 17.698 0.429
22.3320 16.854 0.419
22.3525 15.458 0.401
22.3729 14.760 0.392
22.3934 14.552 0.389
22.4138 13.646 0.377
22.4343 13.615 0.377
22.4548 12.760 0.365
22.4752 12.427 0.360
22.4957 12.052 0.354
22.5162 11.531 0.347
22.5366 10.813 0.336
22.5571 10.563 0.332
22.5775 11.229 0.342
22.5980 10.729 0.334
22.6185 11.333 0.344
22.6389 10.719 0.334
22.6594 10.521 0.331
22.6799 10.156 0.325
22.7003 10.750 0.335
22.7208 10.125 0.325
22.7412 10.375 0.329
22.7617 10.458 0.330
22.7822 10.490 0.331
22.8026 9.792 0.319
22.8231 10.167 0.325
22.8436 9.750 0.319
22.8640 10.448 0.330
22.8845 9.740 0.319
22.9050 9.906 0.321
22.9254 9.802 0.320
22.9459 9.417 0.313
22.9663 9.708 0.318
22.9868 9.219 0.310
23.0073 8.990 0.306
23.0277 9.875 0.321
23.0482 9.052 0.307
23.0687 9.375 0.313
23.0891 9.375 0.313
23.1096 8.969 0.306
23.1300 9.333 0.312
23.1505 8.417 0.296
23.1710 9.750 0.319
23.1914 8.948 0.305
23.2119 9.417 0.313
23.2324 9.510 0.315
23.2528 8.969 0.306
23.2733 9.333 0.312
23.2937 9.490 0.314
23.3142 8.698 0.301
23.3347 9.313 0.311
23.3551 9.427 0.313
23.3756 9.021 0.307
23.3961 9.385 0.313
23.4165 9.375 0.313
23.4370 9.854 0.320
23.4574 9.625 0.317
23.4779 10.323 0.328
23.4984 9.479 0.314
23.5188 10.094 0.324
23.5393 10.531 0.331
23.5598 11.031 0.339
23.5802 11.531 0.347
23.6007 12.010 0.354
23.6211 12.313 0.358
23.6416 12.510 0.361
23.6621 12.844 0.366
23.6825 11.406 0.345
23.7030 11.635 0.348
23.7235 10.240 0.327
23.7439 9.427 0.313
23.7644 9.188 0.309
23.7849 9.031 0.307
23.8053 8.115 0.291
23.8258 9.167 0.309
23.8462 7.896 0.287
23.8667 7.854 0.286
23.8872 8.052 0.290
23.9076 8.031 0.289
23.9281 7.885 0.287
23.9486 7.281 0.275
23.9690 7.813 0.285
23.9895 7.250 0.275
24.0099 7.938 0.288
24.0304 7.615 0.282
24.0509 8.146 0.291
24.0713 7.813 0.285
24.0918 7.938 0.288
24.1123 7.750 0.284
24.1327 7.813 0.285
24.1532 7.990 0.288
24.1736 8.417 0.296
24.1941 8.177 0.292
24.2146 8.208 0.292
24.2350 8.219 0.293
24.2555 8.521 0.298
24.2760 9.698 0.318
24.2964 10.917 0.337
24.3169 11.375 0.344
24.3373 11.458 0.345
24.3578 10.188 0.326
24.3783 9.604 0.316
24.3987 9.229 0.310
24.4192 8.740 0.302
24.4397 7.708 0.283
24.4601 7.833 0.286
24.4806 7.365 0.277
24.5011 6.875 0.268
24.5215 7.281 0.275
24.5420 7.104 0.272
24.5624 6.823 0.267
24.5829 7.073 0.271
24.6034 6.688 0.264
24.6238 7.104 0.272
24.6443 7.208 0.274
24.6648 7.438 0.278
24.6852 7.073 0.271
24.7057 7.208 0.274
24.7261 6.688 0.264
24.7466 6.771 0.266
24.7671 6.813 0.266
24.7875 7.219 0.274
24.8080 6.885 0.268
24.8285 7.302 0.276
24.8489 6.844 0.267
24.8694 6.750 0.265
24.8898 6.719 0.265
24.9103 6.552 0.261
24.9308 6.323 0.257
24.9512 6.719 0.265
24.9717 7.260 0.275
24.9922 6.188 0.254
25.0126 7.417 0.278
25.0331 6.885 0.268
25.0535 6.573 0.262
25.0740 6.729 0.265
25.0945 6.792 0.266
25.1149 6.344 0.257
25.1354 6.354 0.257
25.1559 6.885 0.268
25.1763 6.708 0.264
25.1968 6.406 0.258
25.2172 6.802 0.266
25.2377 6.396 0.258
25.2582 6.583 0.262
25.2786 7.052 0.271
25.2991 6.698 0.264
25.3196 6.344 0.257
25.3400 6.656 0.263
25.3605 6.635 0.263
25.3810 6.708 0.264
25.4014 6.875 0.268
25.4219 6.760 0.265
25.4423 6.771 0.266
25.4628 6.438 0.259
25.4833 6.323 0.257
25.5037 6.490 0.260
25.5242 6.240 0.255
25.5447 6.615 0.262
25.5651 6.510 0.260
25.5856 6.583 0.262
25.6060 6.656 0.263
25.6265 6.594 0.262
25.6470 6.615 0.262
25.6674 6.094 0.252
25.6879 6.760 0.265
25.7084 6.563 0.261
25.7288 6.844 0.267
25.7493 7.052 0.271
25.7697 6.042 0.251
25.7902 6.427 0.259
25.8107 6.229 0.255
25.8311 6.615 0.262
25.8516 6.542 0.261
25.8721 6.677 0.264
25.8925 6.573 0.262
25.9130 6.260 0.255
25.9334 6.802 0.266
25.9539 6.292 0.256
25.9744 6.656 0.263
25.9948 6.500 0.260
26.0153 6.573 0.262
26.0358 5.927 0.248
26.0562 6.646 0.263
26.0767 6.240 0.255
26.0971 6.573 0.262
26.1176 6.083 0.252
26.1381 6.500 0.260
26.1585 6.448 0.259
26.1790 6.542 0.261
26.1995 6.646 0.263
26.2199 6.667 0.264
26.2404 6.750 0.265
26.2609 7.031 0.271
26.2813 6.260 0.255
26.3018 6.115 0.252
26.3222 6.781 0.266
26.3427 7.115 0.272
26.3632 7.365 0.277
26.3836 6.844 0.267
26.4041 6.031 0.251
26.4246 6.490 0.260
26.4450 6.771 0.266
26.4655 7.063 0.271
26.4859 6.719 0.265
26.5064 6.708 0.264
26.5269 6.594 0.262
26.5473 6.979 0.270
26.5678 7.063 0.271
26.5883 6.542 0.261
26.6087 6.823 0.267
26.6292 7.115 0.272
26.6496 7.094 0.272
26.6701 6.583 0.262
26.6906 6.865 0.267
26.7110 7.104 0.272
26.7315 7.146 0.273
26.7520 7.219 0.274
26.7724 7.313 0.276
26.7929 7.354 0.277
26.8133 7.063 0.271
26.8338 7.542 0.280
26.8543 7.542 0.280
26.8747 7.052 0.271
26.8952 6.958 0.269
26.9157 7.219 0.274
26.9361 7.031 0.271
26.9566 7.177 0.273
26.9770 6.677 0.264
26.9975 6.969 0.269
27.0180 6.833 0.267
27.0384 6.729 0.265
27.0589 7.073 0.271
27.0794 6.813 0.266
27.0998 6.875 0.268
27.1203 6.792 0.266
27.1408 6.792 0.266
27.1612 6.740 0.265
27.1817 6.906 0.268
27.2021 6.313 0.256
27.2226 6.375 0.258
27.2431 6.375 0.258
27.2635 6.740 0.265
27.2840 6.490 0.260
27.3045 6.729 0.265
27.3249 6.458 0.259
27.3454 6.250 0.255
27.3658 6.417 0.259
27.3863 6.583 0.262
27.4068 6.344 0.257
27.4272 6.021 0.250
27.4477 6.563 0.261
27.4682 6.448 0.259
27.4886 6.323 0.257
27.5091 6.385 0.258
27.5295 6.188 0.254
27.5500 6.521 0.261
27.5705 6.594 0.262
27.5909 6.573 0.262
27.6114 6.885 0.268
27.6319 6.927 0.269
27.6523 6.823 0.267
27.6728 6.854 0.267
27.6932 6.729 0.265
27.7137 6.240 0.255
27.7342 6.958 0.269
27.7546 7.094 0.272
27.7751 7.385 0.277
27.7956 7.583 0.281
27.8160 7.156 0.273
27.8365 7.333 0.276
27.8569 6.729 0.265
27.8774 7.354 0.277
27.8979 7.458 0.279
27.9183 7.302 0.276
27.9388 7.281 0.275
27.9593 7.313 0.276
27.9797 7.500 0.280
28.0002 6.656 0.263
28.0207 7.042 0.271
28.0411 6.885 0.268
28.0616 6.865 0.267
28.0820 7.000 0.270
28.1025 6.708 0.264
28.1230 7.188 0.274
28.1434 6.719 0.265
28.1639 6.688 0.264
28.1844 6.052 0.251
28.2048 6.229 0.255
28.2253 6.063 0.251
28.2457 6.396 0.258
28.2662 6.250 0.255
28.2867 6.521 0.261
28.3071 6.104 0.252
28.3276 6.167 0.253
28.3481 5.896 0.248
28.3685 6.750 0.265
28.3890 5.958 0.249
28.4094 5.958 0.249
28.4299 5.885 0.248
28.4504 6.302 0.256
28.4708 6.031 0.251
28.4913 6.198 0.254
28.5118 6.281 0.256
28.5322 6.625 0.263
28.5527 5.885 0.248
28.5731 6.479 0.260
28.5936 6.385 0.258
28.6141 6.500 0.260
28.6345 6.323 0.257
28.6550 5.823 0.246
28.6755 6.500 0.260
28.6959 6.958 0.269
28.7164 6.354 0.257
28.7368 6.750 0.265
28.7573 6.521 0.261
28.7778 5.656 0.243
28.7982 6.219 0.255
28.8187 6.458 0.259
28.8392 5.938 0.249
28.8596 6.198 0.254
28.8801 5.917 0.248
28.9006 6.135 0.253
28.9210 5.760 0.245
28.9415 5.969 0.249
28.9619 5.698 0.244
28.9824 5.583 0.241
29.0029 5.688 0.243
29.0233 5.927 0.248
29.0438 6.042 0.251
29.0643 5.750 0.245
29.0847 5.708 0.244
29.1052 5.573 0.241
29.1256 5.708 0.244
29.1461 5.729 0.244
29.1666 5.906 0.248
29.1870 5.802 0.246
29.2075 5.760 0.245
29.2280 5.688 0.243
29.2484 5.313 0.235
29.2689 5.719 0.244
29.2893 6.250 0.255
29.3098 6.313 0.256
29.3303 5.938 0.249
29.3507 6.000 0.250
29.3712 5.573 0.241
29.3917 6.000 0.250
29.4121 5.698 0.244
29.4326 5.990 0.250
29.4530 5.354 0.236
29.4735 5.198 0.233
29.4940 6.083 0.252
29.5144 5.510 0.240
29.5349 6.271 0.256
29.5554 5.510 0.240
29.5758 5.813 0.246
29.5963 5.385 0.237
29.6168 5.271 0.234
29.6372 5.563 0.241
29.6577 5.500 0.239
29.6781 5.323 0.235
29.6986 5.594 0.241
29.7191 5.771 0.245
29.7395 5.594 0.241
29.7600 5.990 0.250
29.7805 5.354 0.236
29.8009 5.615 0.242
29.8214 5.094 0.230
29.8418 5.208 0.233
29.8623 5.531 0.240
29.8828 5.740 0.245
29.9032 6.281 0.256
29.9237 5.771 0.245
29.9442 5.313 0.235
29.9646 5.823 0.246
29.9851 5.510 0.240
30.0055 5.906 0.248
30.0260 5.573 0.241
30.0465 5.313 0.235
30.0669 5.510 0.240
30.0874 5.417 0.238
30.1079 5.792 0.246
30.1283 5.510 0.240
30.1488 5.333 0.236
30.1692 5.448 0.238
30.1897 5.854 0.247
30.2102 5.958 0.249
30.2306 5.594 0.241
30.2511 5.271 0.234
30.2716 5.781 0.245
30.2920 5.208 0.233
30.3125 5.771 0.245
30.3329 5.552 0.240
30.3534 5.698 0.244
30.3739 5.479 0.239
30.3943 5.292 0.235
30.4148 5.281 0.235
30.4353 5.146 0.232
30.4557 6.052 0.251
30.4762 5.479 0.239
30.4967 5.167 0.232
30.5171 5.750 0.245
30.5376 5.240 0.234
30.5580 5.510 0.240
30.5785 5.365 0.236
30.5990 5.948 0.249
30.6194 5.979 0.250
30.6399 5.333 0.236
30.6604 5.615 0.242
30.6808 5.771 0.245
30.7013 5.698 0.244
30.7217 5.833 0.247
30.7422 6.031 0.251
30.7627 6.208 0.254
30.7831 6.979 0.270
30.8036 6.802 0.266
30.8241 7.198 0.274
30.8445 7.427 0.278
30.8650 8.031 0.289
30.8854 8.333 0.295
30.9059 9.146 0.309
30.9264 11.063 0.339
30.9468 15.438 0.401
30.9673 23.781 0.498
30.9878 35.656 0.609
31.0082 49.417 0.717
31.0287 52.542 0.740
31.0491 48.990 0.714
31.0696 45.333 0.687
31.0901 40.063 0.646
31.1105 32.240 0.580
31.1310 25.885 0.519
31.1515 19.458 0.450
31.1719 13.115 0.370
31.1924 10.104 0.324
31.2128 8.177 0.292
31.2333 7.813 0.285
31.2538 6.917 0.268
31.2742 7.125 0.272
31.2947 6.667 0.264
31.3152 6.125 0.253
31.3356 5.771 0.245
31.3561 6.115 0.252
31.3766 6.125 0.253
31.3970 5.760 0.245
31.4175 6.167 0.253
31.4379 5.917 0.248
31.4584 5.906 0.248
31.4789 5.729 0.244
31.4993 5.823 0.246
31.5198 5.740 0.245
31.5403 5.615 0.242
31.5607 5.448 0.238
31.5812 5.250 0.234
31.6016 5.531 0.240
31.6221 5.333 0.236
31.6426 5.500 0.239
31.6630 5.656 0.243
31.6835 5.500 0.239
31.7040 5.604 0.242
31.7244 5.333 0.236
31.7449 6.219 0.255
31.7653 5.479 0.239
31.7858 5.021 0.229
31.8063 5.854 0.247
31.8267 5.552 0.240
31.8472 5.823 0.246
31.8677 5.448 0.238
31.8881 5.792 0.246
31.9086 5.781 0.245
31.9290 5.792 0.246
31.9495 5.781 0.245
31.9700 5.885 0.248
31.9904 6.021 0.250
32.0109 6.458 0.259
32.0314 6.396 0.258
32.0518 7.375 0.277
32.0723 7.594 0.281
32.0927 8.521 0.298
32.1132 8.865 0.304
32.1337 8.469 0.297
32.1541 8.094 0.290
32.1746 7.688 0.283
32.1951 7.958 0.288
32.2155 7.563 0.281
32.2360 7.260 0.275
32.2565 6.781 0.266
32.2769 6.510 0.260
32.2974 6.625 0.263
32.3178 6.469 0.260
32.3383 6.833 0.267
32.3588 7.063 0.271
32.3792 6.906 0.268
32.3997 7.656 0.282
32.4202 8.708 0.301
32.4406 9.990 0.323
32.4611 11.250 0.342
32.4815 11.750 0.350
32.5020 12.865 0.366
32.5225 13.260 0.372
32.5429 15.125 0.397
32.5634 16.990 0.421
32.5839 19.198 0.447
32.6043 23.031 0.490
32.6248 22.927 0.489
32.6452 18.052 0.434
32.6657 14.917 0.394
32.6862 15.458 0.401
32.7066 15.167 0.397
32.7271 10.708 0.334
32.7476 8.750 0.302
32.7680 7.573 0.281
32.7885 7.094 0.272
32.8089 6.510 0.260
32.8294 6.292 0.256
32.8499 6.094 0.252
32.8703 5.750 0.245
32.8908 6.052 0.251
32.9113 6.094 0.252
32.9317 5.615 0.242
32.9522 5.802 0.246
32.9726 5.563 0.241
32.9931 5.510 0.240
33.0136 5.260 0.234
33.0340 5.625 0.242
33.0545 5.375 0.237
33.0750 6.208 0.254
33.0954 5.281 0.235
33.1159 5.531 0.240
33.1364 5.375 0.237
33.1568 5.667 0.243
33.1773 5.385 0.237
33.1977 5.052 0.229
33.2182 5.354 0.236
33.2387 5.219 0.233
33.2591 5.583 0.241
33.2796 5.292 0.235
33.3001 5.198 0.233
33.3205 5.240 0.234
33.3410 4.979 0.228
33.3614 5.000 0.228
33.3819 4.979 0.228
33.4024 5.531 0.240
33.4228 5.396 0.237
33.4433 5.469 0.239
33.4638 5.177 0.232
33.4842 5.292 0.235
33.5047 5.208 0.233
33.5251 5.021 0.229
33.5456 4.719 0.222
33.5661 5.167 0.232
33.5865 5.260 0.234
33.6070 4.938 0.227
33.6275 5.490 0.239
33.6479 5.365 0.236
33.6684 5.146 0.232
33.6888 4.917 0.226
33.7093 4.938 0.227
33.7298 5.656 0.243
33.7502 5.229 0.233
33.7707 4.823 0.224
33.7912 5.271 0.234
33.8116 5.177 0.232
33.8321 5.031 0.229
33.8526 4.969 0.228
33.8730 4.938 0.227
33.8935 5.115 0.231
33.9139 5.365 0.236
33.9344 5.052 0.229
33.9549 4.802 0.224
33.9753 4.813 0.224
33.9958 5.063 0.230
34.0163 5.083 0.230
34.0367 4.969 0.228
34.0572 5.125 0.231
34.0776 5.260 0.234
34.0981 4.958 0.227
34.1186 4.875 0.225
34.1390 4.885 0.226
34.1595 4.698 0.221
34.1800 5.135 0.231
34.2004 4.969 0.228
34.2209 4.552 0.218
34.2413 4.917 0.226
34.2618 4.604 0.219
34.2823 4.979 0.228
34.3027 5.010 0.228
34.3232 4.833 0.224
34.3437 4.625 0.219
34.3641 4.938 0.227
34.3846 5.000 0.228
34.4050 5.052 0.229
34.4255 5.135 0.231
34.4460 5.104 0.231
34.4664 4.615 0.219
34.4869 4.958 0.227
34.5074 5.031 0.229
34.5278 5.000 0.228
34.5483 4.740 0.222
34.5687 5.229 0.233
34.5892 4.813 0.224
34.6097 4.885 0.226
34.6301 4.979 0.228
34.6506 4.667 0.220
34.6711 4.854 0.225
34.6915 4.802 0.224
34.7120 5.219 0.233
34.7325 5.052 0.229
34.7529 4.875 0.225
34.7734 5.292 0.235
34.7938 4.802 0.224
34.8143 5.302 0.235
34.8348 4.719 0.222
34.8552 5.448 0.238
34.8757 4.635 0.220
34.8962 5.167 0.232
34.9166 5.083 0.230
34.9371 4.948 0.227
34.9575 5.042 0.229
34.9780 5.167 0.232
34.9985 5.135 0.231
35.0189 5.344 0.236
35.0394 4.938 0.227
35.0599 4.969 0.228
35.0803 4.813 0.224
35.1008 5.250 0.234
35.1212 5.146 0.232
35.1417 5.021 0.229
35.1622 5.490 0.239
35.1826 5.500 0.239
35.2031 5.031 0.229
35.2236 4.938 0.227
35.2440 5.281 0.235
35.2645 5.438 0.238
35.2849 5.385 0.237
35.3054 5.375 0.237
35.3259 5.323 0.235
35.3463 5.479 0.239
35.3668 5.354 0.236
35.3873 5.292 0.235
35.4077 5.677 0.243
35.4282 5.260 0.234
35.4486 5.521 0.240
35.4691 5.490 0.239
35.4896 4.948 0.227
35.5100 5.469 0.239
35.5305 5.740 0.245
35.5510 5.688 0.243
35.5714 5.708 0.244
35.5919 5.458 0.238
35.6124 5.646 0.243
35.6328 5.542 0.240
35.6533 6.010 0.250
35.6737 6.104 0.252
35.6942 5.958 0.249
35.7147 6.135 0.253
35.7351 5.688 0.243
35.7556 5.844 0.247
35.7761 5.958 0.249
35.7965 6.375 0.258
35.8170 6.417 0.259
35.8374 6.000 0.250
35.8579 6.646 0.263
35.8784 6.792 0.266
35.8988 6.594 0.262
35.9193 7.135 0.273
35.9398 7.198 0.274
35.9602 7.823 0.285
35.9807 7.500 0.280
36.0011 8.219 0.293
36.0216 9.240 0.310
36.0421 9.385 0.313
36.0625 10.260 0.327
36.0830 11.281 0.343
36.1035 12.688 0.364
36.1239 14.177 0.384
36.1444 15.302 0.399
36.1648 16.688 0.417
36.1853 16.240 0.411
36.2058 14.906 0.394
36.2262 14.802 0.393
36.2467 14.708 0.391
36.2672 14.917 0.394
36.2876 13.865 0.380
36.3081 13.583 0.376
36.3285 13.583 0.376
36.3490 14.427 0.388
36.3695 14.844 0.393
36.3899 14.635 0.390
36.4104 16.677 0.417
36.4309 17.792 0.430
36.4513 19.542 0.451
36.4718 19.375 0.449
36.4923 20.760 0.465
36.5127 20.219 0.459
36.5332 22.240 0.481
36.5536 24.958 0.510
36.5741 28.781 0.548
36.5946 31.063 0.569
36.6150 28.188 0.542
36.6355 24.313 0.503
36.6560 22.177 0.481
36.6764 21.844 0.477
36.6969 22.604 0.485
36.7173 19.104 0.446
36.7378 17.000 0.421
36.7583 15.844 0.406
36.7787 15.323 0.400
36.7992 14.229 0.385
36.8197 14.396 0.387
36.8401 14.740 0.392
36.8606 14.604 0.390
36.8810 15.406 0.401
36.9015 15.927 0.407
36.9220 16.531 0.415
36.9424 16.375 0.413
36.9629 18.167 0.435
36.9834 19.885 0.455
37.0038 24.115 0.501
37.0243 28.875 0.548
37.0447 33.177 0.588
37.0652 37.063 0.621
37.0857 33.906 0.594
37.1061 28.500 0.545
37.1266 25.885 0.519
37.1471 25.188 0.512
37.1675 23.740 0.497
37.1880 19.781 0.454
37.2084 16.958 0.420
37.2289 13.313 0.372
37.2494 12.563 0.362
37.2698 11.229 0.342
37.2903 10.344 0.328
37.3108 9.583 0.316
37.3312 9.771 0.319
37.3517 8.604 0.299
37.3722 9.198 0.310
37.3926 9.094 0.308
37.4131 10.031 0.323
37.4335 8.990 0.306
37.4540 9.063 0.307
37.4745 9.031 0.307
37.4949 9.083 0.308
37.5154 9.323 0.312
37.5359 9.490 0.314
37.5563 8.573 0.299
37.5768 9.323 0.312
37.5972 9.052 0.307
37.6177 10.198 0.326
37.6382 9.417 0.313
37.6586 9.667 0.317
37.6791 9.792 0.319
37.6996 9.635 0.317
37.7200 9.281 0.311
37.7405 9.323 0.312
37.7609 9.708 0.318
37.7814 9.615 0.316
37.8019 9.438 0.314
37.8223 9.500 0.315
37.8428 9.240 0.310
37.8633 9.260 0.311
37.8837 9.958 0.322
37.9042 10.188 0.326
37.9246 10.333 0.328
37.9451 11.573 0.347
37.9656 13.771 0.379
37.9860 16.104 0.410
38.0065 18.594 0.440
38.0270 19.406 0.450
38.0474 17.583 0.428
38.0679 15.958 0.408
38.0884 16.010 0.408
38.1088 16.938 0.420
38.1293 15.469 0.401
38.1497 14.302 0.386
38.1702 13.260 0.372
38.1907 12.708 0.364
38.2111 11.979 0.353
38.2316 12.781 0.365
38.2521 11.271 0.343
38.2725 11.292 0.343
38.2930 11.031 0.339
38.3134 11.479 0.346
38.3339 10.792 0.335
38.3544 10.958 0.338
38.3748 10.688 0.334
38.3953 11.677 0.349
38.4158 12.281 0.358
38.4362 13.604 0.376
38.4567 14.698 0.391
38.4771 14.458 0.388
38.4976 12.885 0.366
38.5181 12.010 0.354
38.5385 11.521 0.346
38.5590 12.250 0.357
38.5795 11.563 0.347
38.5999 10.552 0.332
38.6204 9.063 0.307
38.6408 9.438 0.314
38.6613 8.438 0.296
38.6818 9.042 0.307
38.7022 8.646 0.300
38.7227 8.885 0.304
38.7432 8.688 0.301
38.7636 8.604 0.299
38.7841 8.469 0.297
38.8045 8.594 0.299
38.8250 8.438 0.296
38.8455 8.354 0.295
38.8659 8.219 0.293
38.8864 8.719 0.301
38.9069 8.333 0.295
38.9273 8.427 0.296
38.9478 8.417 0.296
38.9683 8.240 0.293
38.9887 8.521 0.298
39.0092 9.427 0.313
39.0296 8.729 0.302
39.0501 9.802 0.320
39.0706 8.656 0.300
39.0910 8.875 0.304
39.1115 8.313 0.294
39.1320 8.573 0.299
39.1524 8.927 0.305
39.1729 7.927 0.287
39.1933 7.792 0.285
39.2138 7.927 0.287
39.2343 8.510 0.298
39.2547 7.948 0.288
39.2752 7.479 0.279
39.2957 8.698 0.301
39.3161 8.510 0.298
39.3366 8.125 0.291
39.3570 8.896 0.304
39.3775 9.000 0.306
39.3980 8.948 0.305
39.4184 8.885 0.304
39.4389 8.844 0.304
39.4594 8.823 0.303
39.4798 9.490 0.314
39.5003 9.042 0.307
39.5207 8.948 0.305
39.5412 9.406 0.313
39.5617 9.406 0.313
39.5821 9.094 0.308
39.6026 8.438 0.296
39.6231 9.167 0.309
39.6435 8.813 0.303
39.6640 9.333 0.312
39.6844 9.063 0.307
39.7049 9.365 0.312
39.7254 9.760 0.319
39.7458 10.219 0.326
39.7663 11.115 0.340
39.7868 12.104 0.355
39.8072 11.927 0.352
39.8277 10.917 0.337
39.8482 10.469 0.330
39.8686 10.135 0.325
39.8891 9.792 0.319
39.9095 9.604 0.316
39.9300 10.177 0.326
39.9505 8.604 0.299
39.9709 8.281 0.294
39.9914 8.542 0.298
40.0119 8.677 0.301
40.0323 8.500 0.298
40.0528 9.010 0.306
40.0732 8.667 0.300
40.0937 9.292 0.311
40.1142 9.063 0.307
40.1346 9.146 0.309
40.1551 9.417 0.313
40.1756 10.688 0.334
40.1960 11.219 0.342
40.2165 12.625 0.363
40.2369 15.646 0.404
40.2574 19.219 0.447
40.2779 20.854 0.466
40.2983 16.583 0.416
40.3188 13.177 0.370
40.3393 12.885 0.366
40.3597 14.813 0.393
40.3802 15.625 0.403
40.4006 12.021 0.354
40.4211 11.115 0.340
40.4416 10.708 0.334
40.4620 8.688 0.301
40.4825 9.833 0.320
40.5030 9.313 0.311
40.5234 9.688 0.318
40.5439 9.375 0.313
40.5643 9.469 0.314
40.5848 9.583 0.316
40.6053 8.521 0.298
40.6257 9.052 0.307
40.6462 9.094 0.308
40.6667 8.167 0.292
40.6871 8.031 0.289
40.7076 8.135 0.291
40.7281 8.146 0.291
40.7485 8.188 0.292
40.7690 7.927 0.287
40.7894 7.781 0.285
40.8099 7.802 0.285
40.8304 7.417 0.278
40.8508 7.448 0.279
40.8713 7.479 0.279
40.8918 7.708 0.283
40.9122 8.260 0.293
40.9327 8.219 0.293
40.9531 7.417 0.278
40.9736 8.063 0.290
40.9941 8.573 0.299
41.0145 8.344 0.295
41.0350 9.677 0.317
41.0555 10.573 0.332
41.0759 12.396 0.359
41.0964 14.125 0.384
41.1168 16.313 0.412
41.1373 16.490 0.414
41.1578 13.729 0.378
41.1782 12.688 0.364
41.1987 12.573 0.362
41.2192 12.938 0.367
41.2396 11.677 0.349
41.2601 10.875 0.337
41.2805 9.333 0.312
41.3010 8.000 0.289
41.3215 7.906 0.287
41.3419 7.438 0.278
41.3624 7.177 0.273
41.3829 6.708 0.264
41.4033 6.948 0.269
41.4238 6.500 0.260
41.4442 6.552 0.261
41.4647 6.719 0.265
41.4852 5.990 0.250
41.5056 6.552 0.261
41.5261 6.260 0.255
41.5466 6.656 0.263
41.5670 5.948 0.249
41.5875 6.135 0.253
41.6080 6.875 0.268
41.6284 6.531 0.261
41.6489 6.573 0.262
41.6693 6.167 0.253
41.6898 6.417 0.259
41.7103 6.500 0.260
41.7307 6.229 0.255
41.7512 6.385 0.258
41.7717 5.948 0.249
41.7921 6.531 0.261
41.8126 6.042 0.251
41.8330 6.396 0.258
41.8535 6.844 0.267
41.8740 6.010 0.250
41.8944 5.719 0.244
41.9149 6.073 0.252
41.9354 6.271 0.256
41.9558 5.844 0.247
41.9763 6.135 0.253
41.9967 6.250 0.255
42.0172 5.688 0.243
42.0377 5.979 0.250
42.0581 5.865 0.247
42.0786 6.302 0.256
42.0991 6.646 0.263
42.1195 6.427 0.259
42.1400 6.667 0.264
42.1604 6.354 0.257
42.1809 6.573 0.262
42.2014 6.573 0.262
42.2218 7.000 0.270
42.2423 6.635 0.263
42.2628 7.031 0.271
42.2832 7.740 0.284
42.3037 8.760 0.302
42.3242 9.271 0.311
42.3446 9.198 0.310
42.3651 9.958 0.322
42.3855 9.208 0.310
42.4060 10.281 0.327
42.4265 9.760 0.319
42.4469 9.406 0.313
42.4674 9.729 0.318
42.4879 9.198 0.310
42.5083 8.333 0.295
42.5288 8.813 0.303
42.5492 8.615 0.300
42.5697 8.667 0.300
42.5902 8.750 0.302
42.6106 8.167 0.292
42.6311 7.771 0.285
42.6516 8.104 0.291
42.6720 8.396 0.296
42.6925 7.635 0.282
42.7129 7.958 0.288
42.7334 8.333 0.295
42.7539 7.292 0.276
42.7743 7.604 0.281
42.7948 7.719 0.284
42.8153 7.208 0.274
42.8357 6.729 0.265
42.8562 7.344 0.277
42.8766 7.208 0.274
42.8971 7.542 0.280
42.9176 7.073 0.271
42.9380 7.396 0.278
42.9585 7.188 0.274
42.9790 6.875 0.268
42.9994 7.500 0.280
43.0199 7.000 0.270
43.0403 7.302 0.276
43.0608 7.292 0.276
43.0813 7.042 0.271
43.1017 6.833 0.267
43.1222 7.844 0.286
43.1427 8.104 0.291
43.1631 8.917 0.305
43.1836 8.500 0.298
43.2041 9.615 0.316
43.2245 9.865 0.321
43.2450 8.667 0.300
43.2654 8.396 0.296
43.2859 8.969 0.306
43.3064 8.635 0.300
43.3268 10.042 0.323
43.3473 9.365 0.312
43.3678 9.042 0.307
43.3882 9.167 0.309
43.4087 9.750 0.319
43.4291 9.823 0.320
43.4496 9.573 0.316
43.4701 10.333 0.328
43.4905 11.250 0.342
43.5110 11.604 0.348
43.5315 12.740 0.364
43.5519 14.948 0.395
43.5724 17.500 0.427
43.5928 20.344 0.460
43.6133 23.250 0.492
43.6338 23.146 0.491
43.6542 20.479 0.462
43.6747 17.125 0.422
43.6952 16.365 0.413
43.7156 15.781 0.405
43.7361 15.500 0.402
43.7565 14.365 0.387
43.7770 12.135 0.356
43.7975 10.188 0.326
43.8179 9.875 0.321
43.8384 8.667 0.300
43.8589 8.083 0.290
43.8793 7.927 0.287
43.8998 7.396 0.278
43.9202 7.094 0.272
43.9407 7.604 0.281
43.9612 7.396 0.278
43.9816 6.823 0.267
44.0021 7.073 0.271
44.0226 6.896 0.268
44.0430 7.031 0.271
44.0635 7.354 0.277
44.0840 6.948 0.269
44.1044 7.135 0.273
44.1249 7.229 0.274
44.1453 7.333 0.276
44.1658 6.875 0.268
44.1863 6.969 0.269
44.2067 7.427 0.278
44.2272 6.885 0.268
44.2477 6.948 0.269
44.2681 7.281 0.275
44.2886 7.292 0.276
44.3090 6.990 0.270
44.3295 6.948 0.269
44.3500 7.083 0.272
44.3704 7.135 0.273
44.3909 6.375 0.258
44.4114 6.896 0.268
44.4318 6.219 0.255
44.4523 6.354 0.257
44.4727 6.375 0.258
44.4932 6.615 0.262
44.5137 6.354 0.257
44.5341 6.365 0.257
44.5546 6.344 0.257
44.5751 6.156 0.253
44.5955 6.302 0.256
44.6160 6.500 0.260
44.6364 6.156 0.253
44.6569 6.323 0.257
44.6774 6.417 0.259
44.6978 6.594 0.262
44.7183 6.656 0.263
44.7388 6.354 0.257
44.7592 6.354 0.257
44.7797 6.771 0.266
44.8001 6.823 0.267
44.8206 6.896 0.268
44.8411 6.958 0.269
44.8615 6.990 0.270
44.8820 6.969 0.269
44.9025 6.875 0.268
44.9229 7.240 0.275
44.9434 7.313 0.276
44.9639 6.938 0.269
44.9843 6.604 0.262
45.0048 6.323 0.257
45.0252 6.948 0.269
45.0457 6.698 0.264
45.0662 7.042 0.271
45.0866 7.010 0.270
45.1071 7.010 0.270
45.1276 6.583 0.262
45.1480 7.510 0.280
45.1685 8.156 0.291
45.1889 8.542 0.298
45.2094 9.500 0.315
45.2299 10.344 0.328
45.2503 9.865 0.321
45.2708 9.010 0.306
45.2913 8.833 0.303
45.3117 8.875 0.304
45.3322 8.490 0.297
45.3526 8.969 0.306
45.3731 9.052 0.307
45.3936 8.021 0.289
45.4140 7.469 0.279
45.4345 6.844 0.267
45.4550 6.531 0.261
45.4754 6.365 0.257
45.4959 6.708 0.264
45.5163 6.260 0.255
45.5368 6.010 0.250
45.5573 6.021 0.250
45.5777 6.229 0.255
45.5982 6.365 0.257
45.6187 5.875 0.247
45.6391 5.729 0.244
45.6596 5.354 0.236
45.6800 5.406 0.237
45.7005 5.865 0.247
45.7210 5.521 0.240
45.7414 5.854 0.247
45.7619 5.625 0.242
45.7824 5.563 0.241
45.8028 5.198 0.233
45.8233 5.563 0.241
45.8438 5.656 0.243
45.8642 5.885 0.248
45.8847 5.469 0.239
45.9051 5.333 0.236
45.9256 5.552 0.240
45.9461 5.229 0.233
45.9665 5.010 0.228
45.9870 5.146 0.232
46.0075 5.469 0.239
46.0279 5.333 0.236
46.0484 5.021 0.229
46.0688 5.719 0.244
46.0893 5.260 0.234
46.1098 5.427 0.238
46.1302 5.229 0.233
46.1507 5.115 0.231
46.1712 5.531 0.240
46.1916 5.188 0.232
46.2121 5.094 0.230
46.2325 5.177 0.232
46.2530 4.667 0.220
46.2735 5.260 0.234
46.2939 4.948 0.227
46.3144 5.323 0.235
46.3349 4.813 0.224
46.3553 4.906 0.226
46.3758 4.479 0.216
46.3962 5.188 0.232
46.4167 5.188 0.232
46.4372 5.000 0.228
46.4576 5.031 0.229
46.4781 5.052 0.229
46.4986 4.719 0.222
46.5190 5.000 0.228
46.5395 4.271 0.211
46.5600 4.833 0.224
46.5804 5.104 0.231
46.6009 4.635 0.220
46.6213 4.885 0.226
46.6418 4.854 0.225
46.6623 4.990 0.228
46.6827 5.333 0.236
46.7032 4.781 0.223
46.7237 4.792 0.223
46.7441 4.688 0.221
46.7646 4.969 0.228
46.7850 4.833 0.224
46.8055 5.042 0.229
46.8260 5.063 0.230
46.8464 4.823 0.224
46.8669 4.885 0.226
46.8874 4.521 0.217
46.9078 4.635 0.220
46.9283 5.094 0.230
46.9487 5.010 0.228
46.9692 4.865 0.225
46.9897 4.969 0.228
47.0101 4.969 0.228
47.0306 5.167 0.232
47.0511 5.271 0.234
47.0715 4.792 0.223
47.0920 5.240 0.234
47.1124 5.083 0.230
47.1329 5.510 0.240
47.1534 5.156 0.232
47.1738 5.375 0.237
47.1943 5.250 0.234
47.2148 5.740 0.245
47.2352 5.604 0.242
47.2557 5.229 0.233
47.2761 5.542 0.240
47.2966 5.979 0.250
47.3171 5.635 0.242
47.3375 5.802 0.246
47.3580 5.469 0.239
47.3785 5.771 0.245
47.3989 6.031 0.251
47.4194 6.146 0.253
47.4399 6.073 0.252
47.4603 6.531 0.261
47.4808 6.781 0.266
47.5012 7.104 0.272
47.5217 8.635 0.300
47.5422 9.302 0.311
47.5626 11.510 0.346
47.5831 13.292 0.372
47.6036 12.990 0.368
47.6240 12.833 0.366
47.6445 11.563 0.347
47.6649 9.510 0.315
47.6854 9.781 0.319
47.7059 10.510 0.331
47.7263 10.719 0.334
47.7468 10.250 0.327
47.7673 9.156 0.309
47.7877 8.802 0.303
47.8082 7.802 0.285
47.8286 7.104 0.272
47.8491 7.229 0.274
47.8696 6.917 0.268
47.8900 7.021 0.270
47.9105 6.552 0.261
47.9310 6.240 0.255
47.9514 6.542 0.261
47.9719 6.844 0.267
47.9923 6.729 0.265
48.0128 6.729 0.265
48.0333 6.229 0.255
48.0537 6.438 0.259
48.0742 6.917 0.268
48.0947 6.781 0.266
48.1151 6.417 0.259
48.1356 6.292 0.256
48.1560 6.313 0.256
48.1765 6.031 0.251
48.1970 5.885 0.248
48.2174 6.115 0.252
48.2379 5.729 0.244
48.2584 6.135 0.253
48.2788 6.510 0.260
48.2993 6.396 0.258
48.3198 7.094 0.272
48.3402 7.000 0.270
48.3607 6.698 0.264
48.3811 7.385 0.277
48.4016 6.625 0.263
48.4221 6.823 0.267
48.4425 6.531 0.261
48.4630 6.656 0.263
48.4835 6.479 0.260
48.5039 6.271 0.256
48.5244 6.292 0.256
48.5448 6.042 0.251
48.5653 5.740 0.245
48.5858 5.865 0.247
48.6062 5.635 0.242
48.6267 5.594 0.241
48.6472 6.167 0.253
48.6676 6.135 0.253
48.6881 6.281 0.256
48.7085 6.396 0.258
48.7290 6.563 0.261
48.7495 6.219 0.255
48.7699 6.344 0.257
48.7904 5.781 0.245
48.8109 5.958 0.249
48.8313 6.052 0.251
48.8518 5.708 0.244
48.8722 5.250 0.234
48.8927 5.240 0.234
48.9132 5.156 0.232
48.9336 5.198 0.233
48.9541 4.969 0.228
48.9746 4.969 0.228
48.9950 4.844 0.225
49.0155 4.604 0.219
49.0359 4.375 0.213
49.0564 5.042 0.229
49.0769 4.708 0.221
49.0973 4.510 0.217
49.1178 4.552 0.218
49.1383 4.458 0.216
49.1587 4.750 0.222
49.1792 4.833 0.224
49.1997 4.927 0.227
49.2201 4.729 0.222
49.2406 5.010 0.228
49.2610 4.344 0.213
49.2815 4.885 0.226
49.3020 4.302 0.212
49.3224 5.271 0.234
49.3429 4.469 0.216
49.3634 4.938 0.227
49.3838 4.615 0.219
49.4043 5.156 0.232
49.4247 5.281 0.235
49.4452 4.938 0.227
49.4657 5.344 0.236
49.4861 5.031 0.229
49.5066 5.531 0.240
49.5271 5.802 0.246
49.5475 5.458 0.238
49.5680 6.500 0.260
49.5884 5.667 0.243
49.6089 6.000 0.250
49.6294 6.646 0.263
49.6498 6.667 0.264
49.6703 6.958 0.269
49.6908 7.063 0.271
49.7112 7.719 0.284
49.7317 8.448 0.297
49.7521 9.115 0.308
49.7726 10.073 0.324
49.7931 12.385 0.359
49.8135 14.917 0.394
49.8340 16.188 0.411
49.8545 16.833 0.419
49.8749 15.365 0.400
49.8954 13.448 0.374
49.9158 12.781 0.365
49.9363 12.469 0.360
49.9568 13.646 0.377
49.9772 13.073 0.369
49.9977 12.094 0.355
50.0182 11.135 0.341
50.0386 9.302 0.311
50.0591 9.677 0.317
50.0796 9.094 0.308
50.1000 8.510 0.298
50.1205 8.260 0.293
50.1409 8.573 0.299
50.1614 8.781 0.302
50.1819 9.000 0.306
50.2023 9.448 0.314
50.2228 8.792 0.303
50.2433 8.906 0.305
50.2637 8.156 0.291
50.2842 7.865 0.286
50.3046 8.063 0.290
50.3251 8.354 0.295
50.3456 7.781 0.285
50.3660 7.604 0.281
50.3865 7.146 0.273
50.4070 7.406 0.278
50.4274 7.271 0.275
50.4479 7.042 0.271
50.4683 6.542 0.261
50.4888 6.667 0.264
50.5093 7.219 0.274
50.5297 7.094 0.272
50.5502 7.625 0.282
50.5707 7.177 0.273
50.5911 6.708 0.264
50.6116 7.292 0.276
50.6320 7.969 0.288
50.6525 7.385 0.277
50.6730 7.635 0.282
50.6934 8.177 0.292
50.7139 7.979 0.288
50.7344 7.375 0.277
50.7548 7.208 0.274
50.7753 7.594 0.281
50.7958 6.771 0.266
50.8162 7.219 0.274
50.8367 6.906 0.268
50.8571 7.031 0.271
50.8776 7.333 0.276
50.8981 7.323 0.276
50.9185 7.760 0.284
50.9390 9.094 0.308
50.9595 10.615 0.333
50.9799 10.510 0.331
51.0004 8.854 0.304
51.0208 8.073 0.290
51.0413 7.542 0.280
51.0618 7.250 0.275
51.0822 7.156 0.273
51.1027 8.031 0.289
51.1232 7.844 0.286
51.1436 6.563 0.261
51.1641 6.219 0.255
51.1845 5.896 0.248
51.2050 5.896 0.248
51.2255 5.479 0.239
51.2459 5.865 0.247
51.2664 5.781 0.245
51.2869 5.896 0.248
51.3073 5.875 0.247
51.3278 6.094 0.252
51.3482 6.031 0.251
51.3687 5.448 0.238
51.3892 5.021 0.229
51.4096 5.146 0.232
51.4301 5.708 0.244
51.4506 5.135 0.231
51.4710 5.271 0.234
51.4915 5.344 0.236
51.5119 5.063 0.230
51.5324 5.354 0.236
51.5529 5.052 0.229
51.5733 5.656 0.243
51.5938 5.500 0.239
51.6143 6.333 0.257
51.6347 6.896 0.268
51.6552 6.927 0.269
51.6757 6.198 0.254
51.6961 6.208 0.254
51.7166 5.948 0.249
51.7370 5.760 0.245
51.7575 6.052 0.251
51.7780 5.510 0.240
51.7984 5.979 0.250
51.8189 5.500 0.239
51.8394 5.365 0.236
51.8598 5.135 0.231
51.8803 4.417 0.214
51.9007 4.323 0.212
51.9212 4.406 0.214
51.9417 4.750 0.222
51.9621 4.865 0.225
51.9826 4.646 0.220
52.0031 4.427 0.215
52.0235 4.771 0.223
52.0440 4.490 0.216
52.0644 4.646 0.220
52.0849 4.375 0.213
52.1054 4.552 0.218
52.1258 4.354 0.213
52.1463 4.208 0.209
52.1668 4.135 0.208
52.1872 4.469 0.216
52.2077 4.406 0.214
52.2281 5.083 0.230
52.2486 5.271 0.234
52.2691 4.615 0.219
52.2895 4.198 0.209
52.3100 4.938 0.227
52.3305 5.021 0.229
52.3509 5.104 0.231
52.3714 5.188 0.232
52.3918 4.917 0.226
52.4123 5.063 0.230
52.4328 5.010 0.228
52.4532 4.583 0.219
52.4737 4.865 0.225
52.4942 5.042 0.229
52.5146 4.990 0.228
52.5351 4.698 0.221
52.5556 4.073 0.206
52.5760 4.531 0.217
52.5965 4.458 0.216
52.6169 4.604 0.219
52.6374 4.583 0.219
52.6579 4.604 0.219
52.6783 4.490 0.216
52.6988 4.500 0.217
52.7193 4.385 0.214
52.7397 4.667 0.220
52.7602 4.323 0.212
52.7806 4.031 0.205
52.8011 4.844 0.225
52.8216 4.427 0.215
52.8420 4.302 0.212
52.8625 4.604 0.219
52.8830 4.760 0.223
52.9034 4.167 0.208
52.9239 4.552 0.218
52.9443 4.823 0.224
52.9648 4.854 0.225
52.9853 4.708 0.221
53.0057 4.490 0.216
53.0262 4.604 0.219
53.0467 4.948 0.227
53.0671 4.917 0.226
53.0876 5.052 0.229
53.1080 5.000 0.228
53.1285 4.917 0.226
53.1490 5.083 0.230
53.1694 5.510 0.240
53.1899 5.052 0.229
53.2104 4.979 0.228
53.2308 4.760 0.223
53.2513 4.948 0.227
53.2717 5.073 0.230
53.2922 4.760 0.223
53.3127 5.292 0.235
53.3331 4.490 0.216
53.3536 4.615 0.219
53.3741 4.594 0.219
53.3945 4.979 0.228
53.4150 4.573 0.218
53.4355 4.417 0.214
53.4559 4.052 0.205
53.4764 4.615 0.219
53.4968 4.333 0.212
53.5173 4.135 0.208
53.5378 4.146 0.208
53.5582 4.490 0.216
53.5787 4.000 0.204
53.5992 4.542 0.218
53.6196 4.438 0.215
53.6401 4.521 0.217
53.6605 4.281 0.211
53.6810 4.646 0.220
53.7015 4.365 0.213
53.7219 3.813 0.199
53.7424 4.229 0.210
53.7629 4.031 0.205
53.7833 3.927 0.202
53.8038 4.260 0.211
53.8242 4.323 0.212
53.8447 4.063 0.206
53.8652 4.490 0.216
53.8856 4.260 0.211
53.9061 4.104 0.207
53.9266 4.271 0.211
53.9470 4.021 0.205
53.9675 4.083 0.206
53.9879 3.979 0.204
54.0084 4.135 0.208
54.0289 4.417 0.214
54.0493 4.448 0.215
54.0698 3.979 0.204
54.0903 4.292 0.211
54.1107 4.563 0.218
54.1312 4.479 0.216
54.1516 4.885 0.226
54.1721 4.688 0.221
54.1926 4.625 0.219
54.2130 4.240 0.210
54.2335 4.354 0.213
54.2540 4.677 0.221
54.2744 4.854 0.225
54.2949 4.875 0.225
54.3154 4.563 0.218
54.3358 4.771 0.223
54.3563 4.188 0.209
54.3767 3.875 0.201
54.3972 4.146 0.208
54.4177 4.271 0.211
54.4381 4.240 0.210
54.4586 4.083 0.206
54.4791 4.271 0.211
54.4995 4.125 0.207
54.5200 4.323 0.212
54.5404 4.010 0.204
54.5609 3.969 0.203
54.5814 3.854 0.200
54.6018 3.948 0.203
54.6223 4.198 0.209
54.6428 4.042 0.205
54.6632 4.021 0.205
54.6837 4.240 0.210
54.7041 4.010 0.204
54.7246 3.938 0.203
54.7451 3.823 0.200
54.7655 4.156 0.208
54.7860 4.167 0.208
54.8065 4.260 0.211
54.8269 4.323 0.212
54.8474 4.313 0.212
54.8678 4.469 0.216
54.8883 4.750 0.222
54.9088 4.188 0.209
54.9292 4.281 0.211
54.9497 4.521 0.217
54.9702 4.490 0.216
54.9906 5.021 0.229
55.0111 5.354 0.236
55.0316 5.521 0.240
55.0520 6.135 0.253
55.0725 6.167 0.253
55.0929 7.208 0.274
55.1134 9.344 0.312
55.1339 11.198 0.342
55.1543 14.469 0.388
55.1748 15.083 0.396
55.1953 15.031 0.396
55.2157 14.729 0.392
55.2362 12.760 0.365
55.2566 12.469 0.360
55.2771 11.948 0.353
55.2976 12.229 0.357
55.3180 12.271 0.358
55.3385 11.427 0.345
55.3590 9.573 0.316
55.3794 9.021 0.307
55.3999 8.333 0.295
55.4203 7.354 0.277
55.4408 6.917 0.268
55.4613 6.396 0.258
55.4817 5.354 0.236
55.5022 4.781 0.223
55.5227 4.396 0.214
55.5431 4.260 0.211
55.5636 4.510 0.217
55.5840 4.708 0.221
55.6045 4.552 0.218
55.6250 4.406 0.214
55.6454 4.396 0.214
55.6659 4.073 0.206
55.6864 4.688 0.221
55.7068 4.188 0.209
55.7273 4.438 0.215
55.7477 4.677 0.221
55.7682 4.583 0.219
55.7887 4.417 0.214
55.8091 4.740 0.222
55.8296 4.781 0.223
55.8501 5.302 0.235
55.8705 5.490 0.239
55.8910 5.344 0.236
55.9115 4.927 0.227
55.9319 4.979 0.228
55.9524 5.427 0.238
55.9728 5.302 0.235
55.9933 5.552 0.240
56.0138 5.750 0.245
56.0342 6.042 0.251
56.0547 6.260 0.255
56.0752 6.135 0.253
56.0956 6.990 0.270
56.1161 8.000 0.289
56.1365 9.583 0.316
56.1570 10.906 0.337
56.1775 11.844 0.351
56.1979 13.563 0.376
56.2184 11.615 0.348
56.2389 10.073 0.324
56.2593 8.573 0.299
56.2798 8.000 0.289
56.3002 8.250 0.293
56.3207 8.042 0.289
56.3412 8.583 0.299
56.3616 8.385 0.296
56.3821 6.844 0.267
56.4026 5.594 0.241
56.4230 5.302 0.235
56.4435 4.750 0.222
56.4639 4.219 0.210
56.4844 4.052 0.205
56.5049 3.906 0.202
56.5253 4.042 0.205
56.5458 3.854 0.200
56.5663 4.156 0.208
56.5867 3.990 0.204
56.6072 3.521 0.192
56.6276 3.604 0.194
56.6481 3.740 0.197
56.6686 3.604 0.194
56.6890 3.552 0.192
56.7095 3.938 0.203
56.7300 3.531 0.192
56.7504 3.458 0.190
56.7709 3.563 0.193
56.7914 2.885 0.173
56.8118 3.417 0.189
56.8323 3.198 0.183
56.8527 3.688 0.196
56.8732 3.729 0.197
56.8937 3.469 0.190
56.9141 3.240 0.184
56.9346 3.500 0.191
56.9551 3.583 0.193
56.9755 3.469 0.190
56.9960 3.719 0.197
57.0164 3.385 0.188
57.0369 3.469 0.190
57.0574 3.865 0.201
57.0778 3.688 0.196
57.0983 3.427 0.189
57.1188 3.427 0.189
57.1392 3.333 0.186
57.1597 3.844 0.200
57.1801 3.448 0.190
57.2006 3.698 0.196
57.2211 3.615 0.194
57.2415 3.094 0.180
57.2620 3.625 0.194
57.2825 3.573 0.193
57.3029 3.740 0.197
57.3234 4.000 0.204
57.3438 3.677 0.196
57.3643 3.615 0.194
57.3848 3.417 0.189
57.4052 3.729 0.197
57.4257 3.885 0.201
57.4462 3.833 0.200
57.4666 3.625 0.194
57.4871 3.781 0.198
57.5075 4.021 0.205
57.5280 3.938 0.203
57.5485 3.656 0.195
57.5689 3.990 0.204
57.5894 3.990 0.204
57.6099 4.323 0.212
57.6303 4.250 0.210
57.6508 4.229 0.210
57.6713 4.229 0.210
57.6917 4.188 0.209
57.7122 4.635 0.220
57.7326 5.115 0.231
57.7531 4.938 0.227
57.7736 5.458 0.238
57.7940 5.583 0.241
57.8145 5.740 0.245
57.8350 7.344 0.277
57.8554 8.031 0.289
57.8759 9.104 0.308
57.8963 10.365 0.329
57.9168 10.177 0.326
57.9373 9.167 0.309
57.9577 8.542 0.298
57.9782 7.740 0.284
57.9987 7.875 0.286
58.0191 7.531 0.280
58.0396 7.615 0.282
58.0600 8.135 0.291
58.0805 7.740 0.284
58.1010 6.552 0.261
58.1214 6.594 0.262
58.1419 5.625 0.242
58.1624 5.208 0.233
58.1828 5.083 0.230
58.2033 5.260 0.234
58.2237 4.781 0.223
58.2442 4.927 0.227
58.2647 4.771 0.223
58.2851 4.188 0.209
58.3056 5.198 0.233
58.3261 4.688 0.221
58.3465 4.854 0.225
58.3670 4.854 0.225
58.3874 5.000 0.228
58.4079 4.635 0.220
58.4284 4.594 0.219
58.4488 4.740 0.222
58.4693 4.552 0.218
58.4898 4.781 0.223
58.5102 4.531 0.217
58.5307 4.344 0.213
58.5512 4.479 0.216
58.5716 4.594 0.219
58.5921 5.052 0.229
58.6125 4.375 0.213
58.6330 4.573 0.218
58.6535 4.750 0.222
58.6739 4.344 0.213
58.6944 4.365 0.213
58.7149 4.469 0.216
58.7353 4.813 0.224
58.7558 4.875 0.225
58.7762 4.865 0.225
58.7967 4.646 0.220
58.8172 5.031 0.229
58.8376 5.260 0.234
58.8581 5.281 0.235
58.8786 5.448 0.238
58.8990 5.021 0.229
58.9195 5.135 0.231
58.9399 5.063 0.230
58.9604 4.917 0.226
58.9809 5.083 0.230
59.0013 4.958 0.227
59.0218 5.146 0.232
59.0423 5.125 0.231
59.0627 4.823 0.224
59.0832 5.000 0.228
59.1036 5.417 0.238
59.1241 5.948 0.249
59.1446 6.385 0.258
59.1650 6.417 0.259
59.1855 7.365 0.277
59.2060 7.552 0.280
59.2264 7.104 0.272
59.2469 6.240 0.255
59.2674 5.875 0.247
59.2878 5.625 0.242
59.3083 5.438 0.238
59.3287 5.646 0.243
59.3492 5.896 0.248
59.3697 5.552 0.240
59.3901 5.771 0.245
59.4106 4.677 0.221
59.4311 4.438 0.215
59.4515 4.208 0.209
59.4720 4.042 0.205
59.4924 4.406 0.214
59.5129 4.000 0.204
59.5334 3.656 0.195
59.5538 3.927 0.202
59.5743 3.990 0.204
59.5948 4.167 0.208
59.6152 3.813 0.199
59.6357 3.740 0.197
59.6561 3.677 0.196
59.6766 3.740 0.197
59.6971 3.844 0.200
59.7175 3.854 0.200
59.7380 4.292 0.211
59.7585 4.156 0.208
59.7789 4.104 0.207
59.7994 4.729 0.222
59.8198 5.333 0.236
59.8403 5.521 0.240
59.8608 6.354 0.257
59.8812 6.167 0.253
59.9017 6.229 0.255
59.9222 5.594 0.241
59.9426 5.177 0.232
59.9631 5.427 0.238
59.9835 4.927 0.227
60.0040 5.458 0.238
60.0245 5.188 0.232
60.0449 5.292 0.235
60.0654 4.938 0.227
60.0859 4.792 0.223
60.1063 4.260 0.211
60.1268 4.448 0.215
60.1473 4.198 0.209
60.1677 4.042 0.205
60.1882 3.906 0.202
60.2086 3.573 0.193
60.2291 4.292 0.211
60.2496 3.615 0.194
60.2700 3.719 0.197
60.2905 3.667 0.195
60.3110 3.969 0.203
60.3314 3.719 0.197
60.3519 3.677 0.196
60.3723 3.823 0.200
60.3928 3.646 0.195
60.4133 3.927 0.202
60.4337 3.896 0.201
60.4542 4.083 0.206
60.4747 3.958 0.203
60.4951 3.917 0.202
60.5156 3.729 0.197
60.5360 4.031 0.205
60.5565 3.844 0.200
60.5770 3.667 0.195
60.5974 4.010 0.204
60.6179 3.688 0.196
60.6384 4.031 0.205
60.6588 3.854 0.200
60.6793 4.115 0.207
60.6997 3.552 0.192
60.7202 4.021 0.205
60.7407 4.063 0.206
60.7611 3.865 0.201
60.7816 4.063 0.206
60.8021 3.875 0.201
60.8225 3.646 0.195
60.8430 3.990 0.204
60.8634 3.792 0.199
60.8839 3.427 0.189
60.9044 3.854 0.200
60.9248 3.615 0.194
60.9453 3.615 0.194
60.9658 3.573 0.193
60.9862 3.490 0.191
61.0067 3.385 0.188
61.0272 3.354 0.187
61.0476 3.479 0.190
61.0681 3.333 0.186
61.0885 3.281 0.185
61.1090 3.490 0.191
61.1295 3.208 0.183
61.1499 2.938 0.175
61.1704 3.385 0.188
61.1909 3.198 0.183
61.2113 2.948 0.175
61.2318 3.427 0.189
61.2522 2.948 0.175
61.2727 3.365 0.187
61.2932 3.115 0.180
61.3136 3.292 0.185
61.3341 3.031 0.178
61.3546 3.552 0.192
61.3750 3.229 0.183
61.3955 2.688 0.167
61.4159 2.760 0.170
61.4364 3.292 0.185
61.4569 3.292 0.185
61.4773 3.385 0.188
61.4978 3.188 0.182
61.5183 3.292 0.185
61.5387 3.563 0.193
61.5592 3.125 0.180
61.5796 3.594 0.193
61.6001 3.240 0.184
61.6206 3.302 0.185
61.6410 3.313 0.186
61.6615 3.146 0.181
61.6820 3.375 0.188
61.7024 3.135 0.181
61.7229 2.917 0.174
61.7433 2.979 0.176
61.7638 3.177 0.182
61.7843 3.063 0.179
61.8047 3.073 0.179
61.8252 2.750 0.169
61.8457 3.229 0.183
61.8661 3.063 0.179
61.8866 3.344 0.187
61.9071 3.260 0.184
61.9275 3.125 0.180
61.9480 3.188 0.182
61.9684 3.219 0.183
61.9889 3.406 0.188
62.0094 3.781 0.198
62.0298 3.667 0.195
62.0503 3.844 0.200
62.0708 3.802 0.199
62.0912 4.396 0.214
62.1117 4.740 0.222
62.1321 4.542 0.218
62.1526 4.260 0.211
62.1731 4.333 0.212
62.1935 4.021 0.205
62.2140 4.010 0.204
62.2345 4.240 0.210
62.2549 3.875 0.201
62.2754 4.115 0.207
62.2958 4.229 0.210
62.3163 4.125 0.207
62.3368 3.615 0.194
62.3572 3.208 0.183
62.3777 3.646 0.195
62.3982 3.771 0.198
62.4186 3.458 0.190
62.4391 3.365 0.187
62.4595 2.938 0.175
62.4800 2.906 0.174
62.5005 2.948 0.175
62.5209 3.010 0.177
62.5414 2.833 0.172
62.5619 3.438 0.189
62.5823 3.344 0.187
62.6028 2.927 0.175
62.6232 3.125 0.180
62.6437 3.115 0.180
62.6642 3.000 0.177
62.6846 3.208 0.183
62.7051 3.323 0.186
62.7256 2.938 0.175
62.7460 3.219 0.183
62.7665 3.188 0.182
62.7870 3.167 0.182
62.8074 3.354 0.187
62.8279 3.104 0.180
62.8483 3.146 0.181
62.8688 3.156 0.181
62.8893 3.208 0.183
62.9097 3.219 0.183
62.9302 3.500 0.191
62.9507 3.250 0.184
62.9711 3.396 0.188
62.9916 3.146 0.181
63.0120 3.010 0.177
63.0325 3.073 0.179
63.0530 3.135 0.181
63.0734 3.646 0.195
63.0939 3.104 0.180
63.1144 3.333 0.186
63.1348 3.344 0.187
63.1553 3.656 0.195
63.1757 3.583 0.193
63.1962 3.500 0.191
63.2167 3.198 0.183
63.2371 3.146 0.181
63.2576 3.167 0.182
63.2781 3.688 0.196
63.2985 3.552 0.192
63.3190 3.240 0.184
63.3394 3.240 0.184
63.3599 2.802 0.171
63.3804 3.740 0.197
63.4008 3.656 0.195
63.4213 3.625 0.194
63.4418 3.396 0.188
63.4622 3.073 0.179
63.4827 3.594 0.193
63.5032 3.885 0.201
63.5236 3.823 0.200
63.5441 3.625 0.194
63.5645 3.833 0.200
63.5850 4.094 0.207
63.6055 3.927 0.202
63.6259 3.813 0.199
63.6464 3.458 0.190
63.6669 4.167 0.208
63.6873 4.396 0.214
63.7078 4.125 0.207
63.7282 4.219 0.210
63.7487 4.458 0.216
63.7692 4.219 0.210
63.7896 4.240 0.210
63.8101 4.063 0.206
63.8306 4.510 0.217
63.8510 4.625 0.219
63.8715 4.240 0.210
63.8919 4.240 0.210
63.9124 3.990 0.204
63.9329 4.375 0.213
63.9533 3.990 0.204
63.9738 3.938 0.203
63.9943 4.333 0.212
64.0147 4.583 0.219
64.0352 4.552 0.218
64.0556 4.333 0.212
64.0761 3.813 0.199
64.0966 4.396 0.214
64.1170 4.031 0.205
64.1375 4.313 0.212
64.1580 4.115 0.207
64.1784 4.135 0.208
64.1989 4.094 0.207
64.2193 3.844 0.200
64.2398 4.521 0.217
64.2603 4.135 0.208
64.2807 3.906 0.202
64.3012 3.979 0.204
64.3217 4.167 0.208
64.3421 3.781 0.198
64.3626 3.698 0.196
64.3831 3.958 0.203
64.4035 3.927 0.202
64.4240 4.063 0.206
64.4444 4.073 0.206
64.4649 4.427 0.215
64.4854 4.458 0.216
64.5058 4.573 0.218
64.5263 4.208 0.209
64.5468 4.740 0.222
64.5672 5.198 0.233
64.5877 5.844 0.247
64.6081 6.625 0.263
64.6286 6.740 0.265
64.6491 7.417 0.278
64.6695 7.365 0.277
64.6900 6.979 0.270
64.7105 6.667 0.264
64.7309 6.208 0.254
64.7514 6.167 0.253
64.7718 6.146 0.253
64.7923 5.792 0.246
64.8128 5.771 0.245
64.8332 6.427 0.259
64.8537 5.396 0.237
64.8742 5.844 0.247
64.8946 4.688 0.221
64.9151 5.260 0.234
64.9355 4.677 0.221
64.9560 4.635 0.220
64.9765 4.354 0.213
64.9969 3.792 0.199
65.0174 3.656 0.195
65.0379 3.583 0.193
65.0583 3.396 0.188
65.0788 3.479 0.190
65.0992 3.177 0.182
65.1197 3.333 0.186
65.1402 3.281 0.185
65.1606 3.313 0.186
65.1811 3.469 0.190
65.2016 3.365 0.187
65.2220 3.469 0.190
65.2425 3.188 0.182
65.2630 3.208 0.183
65.2834 3.510 0.191
65.3039 3.219 0.183
65.3243 3.021 0.177
65.3448 3.771 0.198
65.3653 3.521 0.192
65.3857 3.427 0.189
65.4062 3.354 0.187
65.4267 3.458 0.190
65.4471 3.656 0.195
65.4676 3.490 0.191
65.4880 3.688 0.196
65.5085 3.729 0.197
65.5290 4.990 0.228
65.5494 4.510 0.217
65.5699 5.271 0.234
65.5904 5.635 0.242
65.6108 5.365 0.236
65.6313 4.958 0.227
65.6517 4.094 0.207
65.6722 4.385 0.214
65.6927 3.760 0.198
65.7131 4.031 0.205
65.7336 4.094 0.207
65.7541 4.188 0.209
65.7745 4.313 0.212
65.7950 3.875 0.201
65.8154 3.990 0.204
65.8359 3.771 0.198
65.8564 3.896 0.201
65.8768 3.052 0.178
65.8973 3.552 0.192
65.9178 3.375 0.188
65.9382 3.365 0.187
65.9587 3.125 0.180
65.9791 3.229 0.183
65.9996 3.479 0.190
66.0201 3.365 0.187
66.0405 3.083 0.179
66.0610 3.344 0.187
66.0815 3.042 0.178
66.1019 2.906 0.174
66.1224 3.458 0.190
66.1429 2.917 0.174
66.1633 2.948 0.175
66.1838 3.281 0.185
66.2042 3.177 0.182
66.2247 3.208 0.183
66.2452 2.990 0.176
66.2656 3.458 0.190
66.2861 2.927 0.175
66.3066 3.271 0.185
66.3270 3.198 0.183
66.3475 3.146 0.181
66.3679 3.177 0.182
66.3884 3.198 0.183
66.4089 3.333 0.186
66.4293 3.323 0.186
66.4498 2.969 0.176
66.4703 3.406 0.188
66.4907 3.052 0.178
66.5112 3.208 0.183
66.5316 2.927 0.175
66.5521 3.125 0.180
66.5726 3.125 0.180
66.5930 2.833 0.172
66.6135 3.135 0.181
66.6340 3.469 0.190
66.6544 3.302 0.185
66.6749 3.083 0.179
66.6953 2.896 0.174
66.7158 3.000 0.177
66.7363 3.208 0.183
66.7567 3.177 0.182
66.7772 3.156 0.181
66.7977 3.500 0.191
66.8181 3.583 0.193
66.8386 3.729 0.197
66.8590 3.771 0.198
66.8795 3.604 0.194
66.9000 3.521 0.192
66.9204 3.406 0.188
66.9409 3.635 0.195
66.9614 4.250 0.210
66.9818 4.458 0.216
67.0023 4.604 0.219
67.0228 4.667 0.220
67.0432 5.208 0.233
67.0637 6.042 0.251
67.0841 6.427 0.259
67.1046 7.271 0.275
67.1251 8.542 0.298
67.1455 8.563 0.299
67.1660 8.500 0.298
67.1865 8.177 0.292
67.2069 7.510 0.280
67.2274 6.688 0.264
67.2478 6.302 0.256
67.2683 6.375 0.258
67.2888 5.854 0.247
67.3092 6.240 0.255
67.3297 6.760 0.265
67.3502 6.865 0.267
67.3706 6.010 0.250
67.3911 5.677 0.243
67.4115 5.167 0.232
67.4320 4.833 0.224
67.4525 4.510 0.217
67.4729 4.406 0.214
67.4934 4.854 0.225
67.5139 4.354 0.213
67.5343 4.042 0.205
67.5548 3.927 0.202
67.5752 4.344 0.213
67.5957 4.156 0.208
67.6162 3.740 0.197
67.6366 3.802 0.199
67.6571 3.979 0.204
67.6776 3.760 0.198
67.6980 4.229 0.210
67.7185 4.396 0.214
67.7389 4.240 0.210
67.7594 4.167 0.208
67.7799 4.063 0.206
67.8003 3.917 0.202
67.8208 4.073 0.206
67.8413 3.740 0.197
67.8617 3.625 0.194
67.8822 3.500 0.191
67.9027 4.240 0.210
67.9231 3.677 0.196
67.9436 3.927 0.202
67.9640 3.781 0.198
67.9845 4.385 0.214
68.0050 4.073 0.206
68.0254 4.167 0.208
68.0459 4.333 0.212
68.0664 4.323 0.212
68.0868 4.083 0.206
68.1073 4.250 0.210
68.1277 3.792 0.199
68.1482 4.479 0.216
68.1687 4.396 0.214
68.1891 4.531 0.217
68.2096 4.375 0.213
68.2301 4.271 0.211
68.2505 4.229 0.210
68.2710 4.615 0.219
68.2914 4.781 0.223
68.3119 4.750 0.222
68.3324 5.208 0.233
68.3528 4.948 0.227
68.3733 4.781 0.223
68.3938 4.406 0.214
68.4142 3.771 0.198
68.4347 3.833 0.200
68.4551 4.042 0.205
68.4756 4.313 0.212
68.4961 4.146 0.208
68.5165 4.063 0.206
68.5370 3.833 0.200
68.5575 3.760 0.198
68.5779 3.625 0.194
68.5984 3.792 0.199
68.6189 3.365 0.187
68.6393 3.594 0.193
68.6598 3.281 0.185
68.6802 3.073 0.179
68.7007 3.521 0.192
68.7212 3.604 0.194
68.7416 3.646 0.195
68.7621 3.500 0.191
68.7826 3.667 0.195
68.8030 3.469 0.190
68.8235 3.427 0.189
68.8439 3.625 0.194
68.8644 3.740 0.197
68.8849 3.823 0.200
68.9053 3.563 0.193
68.9258 4.240 0.210
68.9463 4.208 0.209
68.9667 4.500 0.217
68.9872 4.625 0.219
69.0076 4.938 0.227
69.0281 4.438 0.215
69.0486 4.208 0.209
69.0690 4.094 0.207
69.0895 3.656 0.195
69.1100 4.031 0.205
69.1304 3.677 0.196
69.1509 3.833 0.200
69.1713 3.802 0.199
69.1918 4.292 0.211
69.2123 4.281 0.211
69.2327 4.427 0.215
69.2532 4.177 0.209
69.2737 3.688 0.196
69.2941 3.667 0.195
69.3146 3.250 0.184
69.3350 3.375 0.188
69.3555 3.719 0.197
69.3760 3.271 0.185
69.3964 3.281 0.185
69.4169 3.302 0.185
69.4374 3.219 0.183
69.4578 3.229 0.183
69.4783 3.458 0.190
69.4988 3.333 0.186
69.5192 3.385 0.188
69.5397 3.052 0.178
69.5601 2.802 0.171
69.5806 2.781 0.170
69.6011 3.083 0.179
69.6215 3.031 0.178
69.6420 3.000 0.177
69.6625 2.750 0.169
69.6829 2.656 0.166
69.7034 2.979 0.176
69.7238 2.656 0.166
69.7443 2.667 0.167
69.7648 3.073 0.179
69.7852 2.958 0.176
69.8057 2.896 0.174
69.8262 2.698 0.168
69.8466 2.917 0.174
69.8671 2.719 0.168
69.8875 2.948 0.175
69.9080 2.740 0.169
69.9285 3.219 0.183
69.9489 2.865 0.173
69.9694 2.938 0.175
69.9899 3.052 0.178
70.0103 3.042 0.178
70.0308 2.698 0.168
70.0512 2.698 0.168
70.0717 3.104 0.180
70.0922 2.729 0.169
70.1126 2.760 0.170
70.1331 2.823 0.171
70.1536 3.021 0.177
70.1740 2.823 0.171
70.1945 2.917 0.174
70.2149 2.813 0.171
70.2354 2.750 0.169
70.2559 2.781 0.170
70.2763 3.042 0.178
70.2968 2.802 0.171
70.3173 3.010 0.177
70.3377 2.646 0.166
70.3582 2.844 0.172
70.3787 3.063 0.179
70.3991 2.729 0.169
70.4196 2.479 0.161
70.4400 2.979 0.176
70.4605 2.573 0.164
70.4810 2.823 0.171
70.5014 2.521 0.162
70.5219 2.938 0.175
70.5424 2.563 0.163
70.5628 2.927 0.175
70.5833 2.823 0.171
70.6037 2.583 0.164
70.6242 2.667 0.167
70.6447 3.156 0.181
70.6651 2.979 0.176
70.6856 2.729 0.169
70.7061 2.906 0.174
70.7265 2.854 0.172
70.7470 2.896 0.174
70.7674 2.521 0.162
70.7879 2.802 0.171
70.8084 2.469 0.160
70.8288 2.948 0.175
70.8493 2.698 0.168
70.8698 2.906 0.174
70.8902 3.104 0.180
70.9107 2.781 0.170
70.9311 2.813 0.171
70.9516 2.708 0.168
70.9721 2.667 0.167
70.9925 3.052 0.178
71.0130 3.250 0.184
71.0335 3.292 0.185
71.0539 3.188 0.182
71.0744 3.146 0.181
71.0948 3.021 0.177
71.1153 2.771 0.170
71.1358 3.063 0.179
71.1562 2.979 0.176
71.1767 2.667 0.167
71.1972 2.729 0.169
71.2176 2.885 0.173
71.2381 2.833 0.172
71.2586 2.594 0.164
71.2790 2.625 0.165
71.2995 2.813 0.171
71.3199 2.958 0.176
71.3404 2.604 0.165
71.3609 2.875 0.173
71.3813 2.740 0.169
71.4018 2.427 0.159
71.4223 2.802 0.171
71.4427 2.771 0.170
71.4632 2.646 0.166
71.4836 2.500 0.161
71.5041 2.417 0.159
71.5246 2.198 0.151
71.5450 2.458 0.160
71.5655 2.281 0.154
71.5860 2.375 0.157
71.6064 2.375 0.157
71.6269 2.469 0.160
71.6473 2.354 0.157
71.6678 2.646 0.166
71.6883 2.479 0.161
71.7087 2.573 0.164
71.7292 2.406 0.158
71.7497 2.604 0.165
71.7701 2.479 0.161
71.7906 2.167 0.150
71.8110 2.490 0.161
71.8315 2.531 0.162
71.8520 2.479 0.161
71.8724 2.500 0.161
71.8929 2.427 0.159
71.9134 2.385 0.158
71.9338 2.427 0.159
71.9543 2.250 0.153
71.9747 2.354 0.157
71.9952 2.500 0.161
72.0157 2.573 0.164
72.0361 2.563 0.163
72.0566 2.479 0.161
72.0771 2.458 0.160
72.0975 2.708 0.168
72.1180 2.323 0.156
72.1385 2.781 0.170
72.1589 2.469 0.160
72.1794 2.292 0.155
72.1998 2.729 0.169
72.2203 2.219 0.152
72.2408 2.281 0.154
72.2612 2.406 0.158
72.2817 2.354 0.157
72.3022 2.521 0.162
72.3226 2.635 0.166
72.3431 2.688 0.167
72.3635 2.563 0.163
72.3840 2.688 0.167
72.4045 2.469 0.160
72.4249 2.344 0.156
72.4454 2.240 0.153
72.4659 2.667 0.167
72.4863 2.531 0.162
72.5068 2.333 0.156
72.5272 2.375 0.157
72.5477 2.448 0.160
72.5682 2.563 0.163
72.5886 2.521 0.162
72.6091 2.271 0.154
72.6296 2.542 0.163
72.6500 2.771 0.170
72.6705 2.646 0.166
72.6909 2.760 0.170
72.7114 2.302 0.155
72.7319 2.958 0.176
72.7523 2.615 0.165
72.7728 2.938 0.175
72.7933 2.594 0.164
72.8137 2.771 0.170
72.8342 3.125 0.180
72.8547 2.938 0.175
72.8751 2.896 0.174
72.8956 2.625 0.165
72.9160 2.969 0.176
72.9365 2.740 0.169
72.9570 2.448 0.160
72.9774 2.479 0.161
72.9979 2.854 0.172
73.0184 2.781 0.170
73.0388 2.917 0.174
73.0593 2.833 0.172
73.0797 3.052 0.178
73.1002 2.188 0.151
73.1207 2.500 0.161
73.1411 2.344 0.156
73.1616 2.271 0.154
73.1821 2.417 0.159
73.2025 2.469 0.160
73.2230 2.271 0.154
73.2434 2.542 0.163
73.2639 2.104 0.148
73.2844 2.323 0.156
73.3048 2.188 0.151
73.3253 2.250 0.153
73.3458 2.458 0.160
73.3662 2.250 0.153
73.3867 2.563 0.163
73.4071 2.333 0.156
73.4276 2.167 0.150
73.4481 2.323 0.156
73.4685 2.302 0.155
73.4890 2.188 0.151
73.5095 2.240 0.153
73.5299 2.365 0.157
73.5504 2.396 0.158
73.5708 2.281 0.154
73.5913 2.083 0.147
73.6118 2.188 0.151
73.6322 2.406 0.158
73.6527 2.333 0.156
73.6732 2.240 0.153
73.6936 2.156 0.150
73.7141 2.271 0.154
73.7346 2.198 0.151
73.7550 2.396 0.158
73.7755 2.219 0.152
73.7959 2.281 0.154
73.8164 2.375 0.157
73.8369 2.250 0.153
73.8573 2.354 0.157
73.8778 2.396 0.158
73.8983 2.344 0.156
73.9187 2.354 0.157
73.9392 2.313 0.155
73.9596 2.552 0.163
73.9801 2.531 0.162
74.0006 2.552 0.163
74.0210 2.490 0.161
74.0415 2.490 0.161
74.0620 2.135 0.149
74.0824 2.510 0.162
74.1029 2.635 0.166
74.1233 2.323 0.156
74.1438 2.448 0.160
74.1643 2.156 0.150
74.1847 2.198 0.151
74.2052 2.521 0.162
74.2257 2.458 0.160
74.2461 2.365 0.157
74.2666 2.177 0.151
74.2870 2.521 0.162
74.3075 2.292 0.155
74.3280 2.177 0.151
74.3484 2.240 0.153
74.3689 2.313 0.155
74.3894 2.229 0.152
74.4098 2.292 0.155
74.4303 2.490 0.161
74.4507 2.229 0.152
74.4712 2.396 0.158
74.4917 2.063 0.147
74.5121 2.156 0.150
74.5326 2.354 0.157
74.5531 2.354 0.157
74.5735 2.313 0.155
74.5940 2.177 0.151
74.6145 2.125 0.149
74.6349 2.344 0.156
74.6554 2.135 0.149
74.6758 1.906 0.141
74.6963 1.979 0.144
74.7168 2.406 0.158
74.7372 2.000 0.144
74.7577 2.250 0.153
74.7782 2.375 0.157
74.7986 2.302 0.155
74.8191 2.219 0.152
74.8395 2.094 0.148
74.8600 2.229 0.152
74.8805 2.333 0.156
74.9009 2.375 0.157
74.9214 2.427 0.159
74.9419 2.010 0.145
74.9623 2.250 0.153
74.9828 2.156 0.150
75.0032 2.302 0.155
75.0237 2.281 0.154
75.0442 2.500 0.161
75.0646 2.198 0.151
75.0851 2.292 0.155
75.1056 2.260 0.153
75.1260 2.167 0.150
75.1465 1.948 0.142
75.1669 2.385 0.158
75.1874 2.167 0.150
75.2079 2.219 0.152
75.2283 2.354 0.157
75.2488 2.313 0.155
75.2693 2.521 0.162
75.2897 2.375 0.157
75.3102 2.031 0.145
75.3306 2.156 0.150
75.3511 2.156 0.150
75.3716 2.417 0.159
75.3920 2.500 0.161
75.4125 2.542 0.163
75.4330 2.292 0.155
75.4534 2.292 0.155
75.4739 2.125 0.149
75.4944 2.219 0.152
75.5148 2.677 0.167
75.5353 2.469 0.160
75.5557 2.604 0.165
75.5762 2.302 0.155
75.5967 2.542 0.163
75.6171 2.844 0.172
75.6376 2.865 0.173
75.6581 3.135 0.181
75.6785 3.104 0.180
75.6990 3.385 0.188
75.7194 3.969 0.203
75.7399 3.833 0.200
75.7604 3.865 0.201
75.7808 5.010 0.228
75.8013 4.510 0.217
75.8218 4.521 0.217
75.8422 3.906 0.202
75.8627 3.885 0.201
75.8831 3.344 0.187
75.9036 3.615 0.194
75.9241 3.833 0.200
75.9445 3.385 0.188
75.9650 3.646 0.195
75.9855 3.448 0.190
76.0059 3.510 0.191
76.0264 3.958 0.203
76.0468 3.438 0.189
76.0673 3.365 0.187
76.0878 2.958 0.176
76.1082 3.219 0.183
76.1287 2.990 0.176
76.1492 2.781 0.170
76.1696 3.010 0.177
76.1901 3.021 0.177
76.2105 2.667 0.167
76.2310 2.667 0.167
76.2515 2.667 0.167
76.2719 2.542 0.163
76.2924 2.417 0.159
76.3129 2.781 0.170
76.3333 2.552 0.163
76.3538 2.719 0.168
76.3743 2.271 0.154
76.3947 2.417 0.159
76.4152 2.604 0.165
76.4356 2.240 0.153
76.4561 2.417 0.159
76.4766 2.417 0.159
76.4970 2.417 0.159
76.5175 2.458 0.160
76.5380 2.510 0.162
76.5584 2.333 0.156
76.5789 2.292 0.155
76.5993 2.479 0.161
76.6198 2.365 0.157
76.6403 2.302 0.155
76.6607 2.458 0.160
76.6812 2.635 0.166
76.7017 2.219 0.152
76.7221 2.458 0.160
76.7426 2.427 0.159
76.7630 2.448 0.160
76.7835 2.396 0.158
76.8040 2.427 0.159
76.8244 2.490 0.161
76.8449 2.542 0.163
76.8654 2.302 0.155
76.8858 2.448 0.160
76.9063 2.469 0.160
76.9267 2.458 0.160
76.9472 2.083 0.147
76.9677 2.313 0.155
76.9881 2.375 0.157
77.0086 2.115 0.148
77.0291 2.260 0.153
77.0495 2.583 0.164
77.0700 2.073 0.147
77.0905 2.292 0.155
77.1109 2.385 0.158
77.1314 2.417 0.159
77.1518 2.281 0.154
77.1723 2.448 0.160
77.1928 2.490 0.161
77.2132 2.438 0.159
77.2337 2.219 0.152
77.2542 2.396 0.158
77.2746 2.438 0.159
77.2951 2.635 0.166
77.3155 2.885 0.173
77.3360 2.531 0.162
77.3565 2.740 0.169
77.3769 2.344 0.156
77.3974 2.656 0.166
77.4179 2.771 0.170
77.4383 2.688 0.167
77.4588 2.833 0.172
77.4792 2.917 0.174
77.4997 2.958 0.176
77.5202 3.135 0.181
77.5406 2.958 0.176
77.5611 3.365 0.187
77.5816 3.052 0.178
77.6020 3.021 0.177
77.6225 2.906 0.174
77.6429 3.042 0.178
77.6634 2.865 0.173
77.6839 2.906 0.174
77.7043 2.865 0.173
77.7248 3.021 0.177
77.7453 3.427 0.189
77.7657 3.198 0.183
77.7862 2.740 0.169
77.8066 3.271 0.185
77.8271 2.896 0.174
77.8476 2.865 0.173
77.8680 2.760 0.170
77.8885 2.875 0.173
77.9090 2.917 0.174
77.9294 2.979 0.176
77.9499 2.635 0.166
77.9704 3.042 0.178
77.9908 2.438 0.159
78.0113 2.531 0.162
78.0317 2.854 0.172
78.0522 3.042 0.178
78.0727 3.240 0.184
78.0931 2.573 0.164
78.1136 2.854 0.172
78.1341 2.771 0.170
78.1545 2.323 0.156
78.1750 2.406 0.158
78.1954 2.323 0.156
78.2159 2.302 0.155
78.2364 2.552 0.163
78.2568 2.885 0.173
78.2773 2.615 0.165
78.2978 2.708 0.168
78.3182 2.875 0.173
78.3387 2.438 0.159
78.3591 2.833 0.172
78.3796 2.708 0.168
78.4001 2.917 0.174
78.4205 2.729 0.169
78.4410 2.625 0.165
78.4615 2.583 0.164
78.4819 2.750 0.169
78.5024 2.490 0.161
78.5228 2.750 0.169
78.5433 2.625 0.165
78.5638 2.563 0.163
78.5842 2.979 0.176
78.6047 2.698 0.168
78.6252 2.573 0.164
78.6456 2.750 0.169
78.6661 2.844 0.172
78.6865 3.115 0.180
78.7070 2.792 0.171
78.7275 2.583 0.164
78.7479 2.865 0.173
78.7684 2.760 0.170
78.7889 2.531 0.162
78.8093 2.646 0.166
78.8298 2.885 0.173
78.8503 2.844 0.172
78.8707 2.563 0.163
78.8912 2.563 0.163
78.9116 2.740 0.169
78.9321 2.708 0.168
78.9526 2.708 0.168
78.9730 2.708 0.168
78.9935 2.813 0.171
79.0140 2.688 0.167
79.0344 2.396 0.158
79.0549 2.250 0.153
79.0753 2.313 0.155
79.0958 2.521 0.162
79.1163 2.656 0.166
79.1367 2.583 0.164
79.1572 2.740 0.169
79.1777 2.708 0.168
79.1981 2.615 0.165
79.2186 2.469 0.160
79.2390 2.552 0.163
79.2595 2.823 0.171
79.2800 2.740 0.169
79.3004 2.833 0.172
79.3209 2.500 0.161
79.3414 2.521 0.162
79.3618 2.469 0.160
79.3823 2.438 0.159
79.4027 2.438 0.159
79.4232 2.740 0.169
79.4437 2.740 0.169
79.4641 2.719 0.168
79.4846 2.792 0.171
79.5051 2.573 0.164
79.5255 3.250 0.184
79.5460 2.823 0.171
79.5664 3.052 0.178
79.5869 2.958 0.176
79.6074 2.667 0.167
79.6278 2.646 0.166
79.6483 2.792 0.171
79.6688 2.479 0.161
79.6892 2.781 0.170
79.7097 2.583 0.164
79.7302 2.448 0.160
79.7506 2.885 0.173
79.7711 2.896 0.174
79.7915 2.885 0.173
79.8120 2.521 0.162
79.8325 2.521 0.162
79.8529 2.375 0.157
79.8734 2.667 0.167
79.8939 2.708 0.168
79.9143 2.490 0.161
79.9348 2.271 0.154
79.9552 2.792 0.171
79.9757 2.635 0.166
79.9962 2.219 0.152
