'Id: "" Comment: "" Operator: "Lab Manager" Anode: "Cu" Scantype: "Locked Coupled" TimePerStep: "96" X: "0" Y: "0" Z: "0" 
5.0000 20.385 0.461
5.0205 20.823 0.466
5.0409 19.688 0.453
5.0614 20.573 0.463
5.0819 20.302 0.460
5.1023 20.000 0.456
5.1228 20.010 0.457
5.1432 20.854 0.466
5.1637 20.188 0.459
5.1842 18.896 0.444
5.2046 19.635 0.452
5.2251 20.156 0.458
5.2456 20.000 0.456
5.2660 19.698 0.453
5.2865 20.073 0.457
5.3069 19.521 0.451
5.3274 20.219 0.459
5.3479 19.719 0.453
5.3683 19.552 0.451
5.3888 19.698 0.453
5.4093 19.135 0.446
5.4297 19.552 0.451
5.4502 19.000 0.445
5.4706 19.167 0.447
5.4911 18.781 0.442
5.5116 19.719 0.453
5.5320 18.813 0.443
5.5525 19.198 0.447
5.5730 19.292 0.448
5.5934 18.865 0.443
5.6139 19.010 0.445
5.6343 19.063 0.446
5.6548 17.771 0.430
5.6753 17.688 0.429
5.6957 17.833 0.431
5.7162 17.927 0.432
5.7367 18.510 0.439
5.7571 18.677 0.441
5.7776 18.854 0.443
5.7980 19.635 0.452
5.8185 17.844 0.431
5.8390 18.135 0.435
5.8594 18.656 0.441
5.8799 18.354 0.437
5.9004 18.813 0.443
5.9208 18.281 0.436
5.9413 18.146 0.435
5.9618 18.104 0.434
5.9822 17.729 0.430
6.0027 17.906 0.432
6.0231 17.917 0.432
6.0436 17.542 0.427
6.0641 16.448 0.414
6.0845 17.917 0.432
6.1050 17.396 0.426
6.1255 17.552 0.428
6.1459 17.479 0.427
6.1664 17.146 0.423
6.1868 16.917 0.420
6.2073 17.688 0.429
6.2278 18.375 0.438
6.2482 17.813 0.431
6.2687 17.688 0.429
6.2892 18.104 0.434
6.3096 17.229 0.424
6.3301 17.677 0.429
6.3505 17.063 0.422
6.3710 18.250 0.436
6.3915 17.052 0.421
6.4119 17.260 0.424
6.4324 17.031 0.421
6.4529 17.323 0.425
6.4733 17.344 0.425
6.4938 16.688 0.417
6.5142 17.271 0.424
6.5347 17.552 0.428
6.5552 17.406 0.426
6.5756 17.188 0.423
6.5961 17.229 0.424
6.6166 16.969 0.420
6.6370 17.240 0.424
6.6575 17.948 0.432
6.6779 17.375 0.425
6.6984 17.177 0.423
6.7189 17.385 0.426
6.7393 16.948 0.420
6.7598 16.990 0.421
6.7803 17.573 0.428
6.8007 18.104 0.434
6.8212 18.646 0.441
6.8417 17.865 0.431
6.8621 17.615 0.428
6.8826 17.417 0.426
6.9030 17.927 0.432
6.9235 17.260 0.424
6.9440 16.833 0.419
6.9644 17.469 0.427
6.9849 17.688 0.429
7.0054 17.844 0.431
7.0258 18.885 0.444
7.0463 18.406 0.438
7.0667 17.969 0.433
7.0872 17.438 0.426
7.1077 17.917 0.432
7.1281 17.469 0.427
7.1486 17.542 0.427
7.1691 17.125 0.422
7.1895 16.698 0.417
7.2100 16.677 0.417
7.2304 17.063 0.422
7.2509 17.615 0.428
7.2714 16.781 0.418
7.2918 16.823 0.419
7.3123 16.594 0.416
7.3328 17.292 0.424
7.3532 16.854 0.419
7.3737 16.802 0.418
7.3941 17.344 0.425
7.4146 18.240 0.436
7.4351 16.698 0.417
7.4555 17.479 0.427
7.4760 17.479 0.427
7.4965 17.135 0.422
7.5169 17.656 0.429
7.5374 17.719 0.430
7.5579 16.802 0.418
7.5783 17.938 0.432
7.5988 16.542 0.415
7.6192 17.479 0.427
7.6397 17.521 0.427
7.6602 16.688 0.417
7.6806 18.125 0.435
7.7011 16.979 0.421
7.7216 17.927 0.432
7.7420 18.052 0.434
7.7625 17.500 0.427
7.7829 16.417 0.414
7.8034 17.104 0.422
7.8239 17.365 0.425
7.8443 16.802 0.418
7.8648 17.729 0.430
7.8853 17.688 0.429
7.9057 17.885 0.432
7.9262 17.990 0.433
7.9466 17.344 0.425
7.9671 16.396 0.413
7.9876 18.135 0.435
8.0080 18.469 0.439
8.0285 16.917 0.420
8.0490 17.490 0.427
8.0694 16.792 0.418
8.0899 17.708 0.429
8.1103 18.219 0.436
8.1308 17.646 0.429
8.1513 17.552 0.428
8.1717 18.063 0.434
8.1922 17.646 0.429
8.2127 18.083 0.434
8.2331 17.698 0.429
8.2536 17.010 0.421
8.2740 17.052 0.421
8.2945 17.177 0.423
8.3150 16.563 0.415
8.3354 17.677 0.429
8.3559 16.698 0.417
8.3764 17.188 0.423
8.3968 16.490 0.414
8.4173 17.271 0.424
8.4378 17.052 0.421
8.4582 16.448 0.414
8.4787 17.490 0.427
8.4991 17.052 0.421
8.5196 17.250 0.424
8.5401 16.906 0.420
8.5605 17.021 0.421
8.5810 17.500 0.427
8.6015 17.042 0.421
8.6219 17.375 0.425
8.6424 17.260 0.424
8.6628 16.667 0.417
8.6833 17.802 0.431
8.7038 17.031 0.421
8.7242 17.104 0.422
8.7447 17.490 0.427
8.7652 17.885 0.432
8.7856 17.542 0.427
8.8061 18.135 0.435
8.8265 19.292 0.448
8.8470 19.688 0.453
8.8675 20.385 0.461
8.8879 21.313 0.471
8.9084 23.594 0.496
8.9289 27.031 0.531
8.9493 22.885 0.488
8.9698 20.521 0.462
8.9902 20.406 0.461
9.0107 20.552 0.463
9.0312 20.958 0.467
9.0516 21.563 0.474
9.0721 22.167 0.481
9.0926 24.083 0.501
9.1130 25.458 0.515
9.1335 26.583 0.526
9.1539 28.271 0.543
9.1744 31.198 0.570
9.1949 36.823 0.619
9.2153 42.417 0.665
9.2358 53.625 0.747
9.2563 62.740 0.808
9.2767 72.104 0.867
9.2972 73.646 0.876
9.3177 71.927 0.866
9.3381 65.333 0.825
9.3586 60.229 0.792
9.3790 58.594 0.781
9.3995 57.458 0.774
9.4200 56.531 0.767
9.4404 58.552 0.781
9.4609 59.667 0.788
9.4814 62.875 0.809
9.5018 68.927 0.847
9.5223 76.448 0.892
9.5427 87.448 0.954
9.5632 103.052 1.036
9.5837 116.552 1.102
9.6041 129.250 1.160
9.6246 145.542 1.231
9.6451 154.906 1.270
9.6655 168.896 1.326
9.6860 186.833 1.395
9.7064 213.781 1.492
9.7269 249.500 1.612
9.7474 307.563 1.790
9.7678 407.667 2.061
9.7883 575.854 2.449
9.8088 869.906 3.010
9.8292 1396.813 3.814
9.8497 2238.979 4.829
9.8701 3506.250 6.043
9.8906 4196.896 6.612
9.9111 2717.438 5.320
9.9315 1082.208 3.358
9.9520 358.792 1.933
9.9725 188.469 1.401
9.9929 145.010 1.229
10.0134 124.000 1.137
10.0338 113.656 1.088
10.0543 103.542 1.039
10.0748 97.729 1.009
10.0952 91.146 0.974
10.1157 81.625 0.922
10.1362 66.771 0.834
10.1566 53.021 0.743
10.1771 43.052 0.670
10.1976 39.563 0.642
10.2180 37.396 0.624
10.2385 36.500 0.617
10.2589 34.250 0.597
10.2794 34.073 0.596
10.2999 32.396 0.581
10.3203 30.510 0.564
10.3408 31.313 0.571
10.3613 31.823 0.576
10.3817 29.625 0.556
10.4022 29.760 0.557
10.4226 29.490 0.554
10.4431 28.823 0.548
10.4636 27.896 0.539
10.4840 27.656 0.537
10.5045 27.719 0.537
10.5250 26.802 0.528
10.5454 27.302 0.533
10.5659 26.365 0.524
10.5863 26.094 0.521
10.6068 27.104 0.531
10.6273 26.521 0.526
10.6477 26.333 0.524
10.6682 25.365 0.514
10.6887 24.719 0.507
10.7091 25.177 0.512
10.7296 24.844 0.509
10.7500 24.958 0.510
10.7705 25.177 0.512
10.7910 24.219 0.502
10.8114 23.125 0.491
10.8319 23.885 0.499
10.8524 22.490 0.484
10.8728 22.323 0.482
10.8933 21.698 0.475
10.9137 22.156 0.480
10.9342 21.406 0.472
10.9547 21.948 0.478
10.9751 21.521 0.473
10.9956 21.531 0.474
11.0161 20.500 0.462
11.0365 21.063 0.468
11.0570 20.865 0.466
11.0775 20.469 0.462
11.0979 20.365 0.461
11.1184 19.583 0.452
11.1388 19.688 0.453
11.1593 19.490 0.451
11.1798 19.448 0.450
11.2002 19.177 0.447
11.2207 19.229 0.448
11.2412 18.917 0.444
11.2616 18.635 0.441
11.2821 18.760 0.442
11.3025 19.344 0.449
11.3230 18.354 0.437
11.3435 17.979 0.433
11.3639 18.708 0.441
11.3844 18.115 0.434
11.4049 17.344 0.425
11.4253 18.010 0.433
11.4458 17.708 0.429
11.4662 17.740 0.430
11.4867 17.438 0.426
11.5072 17.906 0.432
11.5276 16.604 0.416
11.5481 17.073 0.422
11.5686 17.146 0.423
11.5890 17.281 0.424
11.6095 16.635 0.416
11.6299 16.573 0.415
11.6504 16.531 0.415
11.6709 16.969 0.420
11.6913 16.167 0.410
11.7118 16.083 0.409
11.7323 16.469 0.414
11.7527 15.396 0.400
11.7732 15.885 0.407
11.7937 16.292 0.412
11.8141 14.927 0.394
11.8346 14.417 0.388
11.8550 15.042 0.396
11.8755 14.875 0.394
11.8960 15.823 0.406
11.9164 15.417 0.401
11.9369 14.594 0.390
11.9574 14.500 0.389
11.9778 14.417 0.388
11.9983 14.729 0.392
12.0187 14.063 0.383
12.0392 14.417 0.388
12.0597 13.948 0.381
12.0801 13.698 0.378
12.1006 13.188 0.371
12.1211 13.969 0.381
12.1415 13.760 0.379
12.1620 13.698 0.378
12.1824 14.302 0.386
12.2029 13.927 0.381
12.2234 13.573 0.376
12.2438 13.854 0.380
12.2643 13.896 0.380
12.2848 13.708 0.378
12.3052 13.417 0.374
12.3257 13.604 0.376
12.3461 14.198 0.385
12.3666 12.917 0.367
12.3871 13.031 0.368
12.4075 12.927 0.367
12.4280 13.563 0.376
12.4485 13.406 0.374
12.4689 12.729 0.364
12.4894 12.938 0.367
12.5098 12.302 0.358
12.5303 11.813 0.351
12.5508 11.854 0.351
12.5712 12.344 0.359
12.5917 12.448 0.360
12.6122 12.875 0.366
12.6326 11.844 0.351
12.6531 11.490 0.346
12.6736 12.094 0.355
12.6940 12.365 0.359
12.7145 11.708 0.349
12.7349 11.198 0.342
12.7554 11.208 0.342
12.7759 11.219 0.342
12.7963 11.333 0.344
12.8168 11.250 0.342
12.8373 11.344 0.344
12.8577 11.521 0.346
12.8782 11.323 0.343
12.8986 11.240 0.342
12.9191 11.719 0.349
12.9396 11.229 0.342
12.9600 11.448 0.345
12.9805 11.188 0.341
13.0010 10.833 0.336
13.0214 10.750 0.335
13.0419 11.063 0.339
13.0623 11.323 0.343
13.0828 11.000 0.339
13.1033 10.760 0.335
13.1237 10.385 0.329
13.1442 11.198 0.342
13.1647 10.448 0.330
13.1851 10.563 0.332
13.2056 10.677 0.333
13.2260 10.115 0.325
13.2465 10.458 0.330
13.2670 10.125 0.325
13.2874 10.448 0.330
13.3079 10.385 0.329
13.3284 10.698 0.334
13.3488 10.365 0.329
13.3693 10.438 0.330
13.3897 10.865 0.336
13.4102 11.115 0.340
13.4307 10.458 0.330
13.4511 10.302 0.328
13.4716 9.781 0.319
13.4921 10.375 0.329
13.5125 10.615 0.333
13.5330 10.271 0.327
13.5535 9.479 0.314
13.5739 9.740 0.319
13.5944 9.823 0.320
13.6148 10.042 0.323
13.6353 10.021 0.323
13.6558 9.708 0.318
13.6762 9.292 0.311
13.6967 9.563 0.316
13.7172 9.833 0.320
13.7376 9.625 0.317
13.7581 9.667 0.317
13.7785 9.667 0.317
13.7990 9.708 0.318
13.8195 10.469 0.330
13.8399 9.104 0.308
13.8604 9.333 0.312
13.8809 9.229 0.310
13.9013 9.302 0.311
13.9218 10.021 0.323
13.9422 9.573 0.316
13.9627 9.729 0.318
13.9832 9.573 0.316
14.0036 9.792 0.319
14.0241 9.094 0.308
14.0446 9.281 0.311
14.0650 8.979 0.306
14.0855 9.292 0.311
14.1059 9.156 0.309
14.1264 9.781 0.319
14.1469 9.583 0.316
14.1673 8.604 0.299
14.1878 8.927 0.305
14.2083 9.021 0.307
14.2287 9.323 0.312
14.2492 9.438 0.314
14.2696 9.000 0.306
14.2901 8.323 0.294
14.3106 8.594 0.299
14.3310 8.354 0.295
14.3515 8.688 0.301
14.3720 8.833 0.303
14.3924 8.906 0.305
14.4129 8.979 0.306
14.4334 8.667 0.300
14.4538 8.844 0.304
14.4743 8.552 0.298
14.4947 8.573 0.299
14.5152 8.677 0.301
14.5357 8.844 0.304
14.5561 8.615 0.300
14.5766 7.990 0.288
14.5971 8.156 0.291
14.6175 8.990 0.306
14.6380 8.667 0.300
14.6584 8.250 0.293
14.6789 9.042 0.307
14.6994 9.427 0.313
14.7198 9.167 0.309
14.7403 9.844 0.320
14.7608 8.177 0.292
14.7812 7.865 0.286
14.8017 8.240 0.293
14.8221 8.740 0.302
14.8426 8.885 0.304
14.8631 8.833 0.303
14.8835 8.438 0.296
14.9040 7.875 0.286
14.9245 8.510 0.298
14.9449 9.302 0.311
14.9654 7.469 0.279
14.9858 8.646 0.300
15.0063 7.875 0.286
15.0268 7.865 0.286
15.0472 8.333 0.295
15.0677 8.833 0.303
15.0882 8.396 0.296
15.1086 7.938 0.288
15.1291 7.958 0.288
15.1495 7.792 0.285
15.1700 8.135 0.291
15.1905 8.229 0.293
15.2109 7.979 0.288
15.2314 8.188 0.292
15.2519 8.323 0.294
15.2723 8.344 0.295
15.2928 8.000 0.289
15.3133 7.396 0.278
15.3337 7.667 0.283
15.3542 8.625 0.300
15.3746 7.563 0.281
15.3951 7.958 0.288
15.4156 8.031 0.289
15.4360 8.208 0.292
15.4565 8.406 0.296
15.4770 8.042 0.289
15.4974 7.583 0.281
15.5179 7.938 0.288
15.5383 7.906 0.287
15.5588 7.615 0.282
15.5793 8.375 0.295
15.5997 7.635 0.282
15.6202 7.760 0.284
15.6407 7.448 0.279
15.6611 8.125 0.291
15.6816 7.333 0.276
15.7020 7.990 0.288
15.7225 7.865 0.286
15.7430 8.292 0.294
15.7634 8.208 0.292
15.7839 8.896 0.304
15.8044 7.885 0.287
15.8248 7.896 0.287
15.8453 7.958 0.288
15.8657 7.563 0.281
15.8862 8.396 0.296
15.9067 7.854 0.286
15.9271 7.698 0.283
15.9476 7.375 0.277
15.9681 8.188 0.292
15.9885 7.781 0.285
16.0090 7.604 0.281
16.0295 7.531 0.280
16.0499 7.115 0.272
16.0704 7.969 0.288
16.0908 7.594 0.281
16.1113 7.510 0.280
16.1318 7.781 0.285
16.1522 7.563 0.281
16.1727 7.823 0.285
16.1932 7.333 0.276
16.2136 7.458 0.279
16.2341 7.271 0.275
16.2545 7.365 0.277
16.2750 7.604 0.281
16.2955 7.635 0.282
16.3159 8.188 0.292
16.3364 8.333 0.295
16.3569 7.792 0.285
16.3773 7.438 0.278
16.3978 7.958 0.288
16.4182 7.188 0.274
16.4387 8.271 0.294
16.4592 7.927 0.287
16.4796 7.979 0.288
16.5001 7.854 0.286
16.5206 8.031 0.289
16.5410 7.510 0.280
16.5615 7.573 0.281
16.5819 7.563 0.281
16.6024 7.677 0.283
16.6229 7.510 0.280
16.6433 7.573 0.281
16.6638 7.667 0.283
16.6843 7.823 0.285
16.7047 7.490 0.279
16.7252 7.781 0.285
16.7456 7.646 0.282
16.7661 7.802 0.285
16.7866 7.781 0.285
16.8070 7.125 0.272
16.8275 7.396 0.278
16.8480 7.365 0.277
16.8684 7.885 0.287
16.8889 7.375 0.277
16.9094 8.031 0.289
16.9298 7.313 0.276
16.9503 7.573 0.281
16.9707 7.781 0.285
16.9912 7.135 0.273
17.0117 7.521 0.280
17.0321 7.448 0.279
17.0526 7.646 0.282
17.0731 7.083 0.272
17.0935 7.052 0.271
17.1140 8.000 0.289
17.1344 7.552 0.280
17.1549 7.146 0.273
17.1754 7.896 0.287
17.1958 7.229 0.274
17.2163 8.021 0.289
17.2368 7.688 0.283
17.2572 7.677 0.283
17.2777 7.760 0.284
17.2981 7.896 0.287
17.3186 8.021 0.289
17.3391 8.208 0.292
17.3595 9.094 0.308
17.3800 9.188 0.309
17.4005 9.406 0.313
17.4209 9.417 0.313
17.4414 9.417 0.313
17.4618 9.719 0.318
17.4823 9.500 0.315
17.5028 10.667 0.333
17.5232 10.896 0.337
17.5437 10.594 0.332
17.5642 10.354 0.328
17.5846 9.552 0.315
17.6051 9.469 0.314
17.6255 9.073 0.307
17.6460 8.521 0.298
17.6665 8.438 0.296
17.6869 8.844 0.304
17.7074 8.594 0.299
17.7279 8.313 0.294
17.7483 8.677 0.301
17.7688 9.219 0.310
17.7893 8.740 0.302
17.8097 9.677 0.317
17.8302 9.333 0.312
17.8506 10.646 0.333
17.8711 10.510 0.331
17.8916 11.573 0.347
17.9120 11.688 0.349
17.9325 10.427 0.330
17.9530 10.677 0.333
17.9734 10.948 0.338
17.9939 11.354 0.344
18.0143 12.510 0.361
18.0348 14.188 0.384
18.0553 17.760 0.430
18.0757 19.010 0.445
18.0962 17.833 0.431
18.1167 17.927 0.432
18.1371 17.406 0.426
18.1576 18.250 0.436
18.1780 20.260 0.459
18.1985 22.844 0.488
18.2190 30.885 0.567
18.2394 39.469 0.641
18.2599 54.375 0.753
18.2804 71.083 0.860
18.3008 85.604 0.944
18.3213 77.406 0.898
18.3417 65.156 0.824
18.3622 51.667 0.734
18.3827 39.396 0.641
18.4031 30.594 0.565
18.4236 27.500 0.535
18.4441 24.979 0.510
18.4645 23.958 0.500
18.4850 24.615 0.506
18.5054 22.771 0.487
18.5259 24.010 0.500
18.5464 25.229 0.513
18.5668 27.563 0.536
18.5873 29.823 0.557
18.6078 30.479 0.563
18.6282 30.792 0.566
18.6487 29.938 0.558
18.6692 28.042 0.540
18.6896 24.854 0.509
18.7101 24.979 0.510
18.7305 22.865 0.488
18.7510 23.292 0.493
18.7715 23.688 0.497
18.7919 23.729 0.497
18.8124 22.229 0.481
18.8329 21.135 0.469
18.8533 19.115 0.446
18.8738 18.958 0.444
18.8942 17.583 0.428
18.9147 17.125 0.422
18.9352 17.031 0.421
18.9556 16.292 0.412
18.9761 14.969 0.395
18.9966 15.010 0.395
19.0170 14.208 0.385
19.0375 14.333 0.386
19.0579 14.344 0.387
19.0784 15.063 0.396
19.0989 14.219 0.385
19.1193 15.500 0.402
19.1398 16.240 0.411
19.1603 17.542 0.427
19.1807 17.104 0.422
19.2012 17.979 0.433
19.2216 17.563 0.428
19.2421 17.771 0.430
19.2626 17.052 0.421
19.2830 17.938 0.432
19.3035 17.469 0.427
19.3240 18.031 0.433
19.3444 18.698 0.441
19.3649 19.813 0.454
19.3853 19.198 0.447
19.4058 19.490 0.451
19.4263 20.906 0.467
19.4467 21.198 0.470
19.4672 22.323 0.482
19.4877 23.917 0.499
19.5081 25.375 0.514
19.5286 29.198 0.551
19.5491 32.771 0.584
19.5695 36.313 0.615
19.5900 40.865 0.652
19.6104 42.479 0.665
19.6309 46.125 0.693
19.6514 49.646 0.719
19.6718 55.177 0.758
19.6923 64.667 0.821
19.7128 78.917 0.907
19.7332 106.594 1.054
19.7537 151.510 1.256
19.7741 240.573 1.583
19.7946 447.594 2.159
19.8151 870.208 3.011
19.8355 1118.313 3.413
19.8560 635.750 2.573
19.8765 599.573 2.499
19.8969 368.385 1.959
19.9174 119.510 1.116
19.9378 65.083 0.823
19.9583 50.438 0.725
19.9788 41.729 0.659
19.9992 37.729 0.627
20.0197 34.719 0.601
20.0402 32.583 0.583
20.0606 29.854 0.558
20.0811 26.771 0.528
20.1015 24.135 0.501
20.1220 21.375 0.472
20.1425 19.771 0.454
20.1629 19.938 0.456
20.1834 19.917 0.455
20.2039 22.260 0.482
20.2243 24.875 0.509
20.2448 29.198 0.551
20.2653 33.750 0.593
20.2857 37.438 0.624
20.3062 37.333 0.624
20.3266 34.729 0.601
20.3471 31.802 0.576
20.3676 25.250 0.513
20.3880 22.729 0.487
20.4085 20.573 0.463
20.4290 18.958 0.444
20.4494 19.458 0.450
20.4699 20.104 0.458
20.4903 21.125 0.469
20.5108 22.938 0.489
20.5313 23.323 0.493
20.5517 21.823 0.477
20.5722 20.938 0.467
20.5927 17.875 0.432
20.6131 16.271 0.412
20.6336 14.688 0.391
20.6540 12.719 0.364
20.6745 12.906 0.367
20.6950 12.052 0.354
20.7154 10.844 0.336
20.7359 10.323 0.328
20.7564 10.406 0.329
20.7768 10.771 0.335
20.7973 9.760 0.319
20.8177 10.365 0.329
20.8382 10.260 0.327
20.8587 10.094 0.324
20.8791 10.125 0.325
20.8996 9.750 0.319
20.9201 9.708 0.318
20.9405 9.583 0.316
20.9610 9.656 0.317
20.9814 9.625 0.317
21.0019 9.042 0.307
21.0224 9.240 0.310
21.0428 9.583 0.316
21.0633 9.844 0.320
21.0838 9.271 0.311
21.1042 9.469 0.314
21.1247 9.333 0.312
21.1452 9.667 0.317
21.1656 9.052 0.307
21.1861 9.177 0.309
21.2065 9.729 0.318
21.2270 9.281 0.311
21.2475 9.885 0.321
21.2679 9.542 0.315
21.2884 9.344 0.312
21.3089 9.146 0.309
21.3293 9.427 0.313
21.3498 9.542 0.315
21.3702 9.188 0.309
21.3907 9.500 0.315
21.4112 9.344 0.312
21.4316 9.240 0.310
21.4521 8.979 0.306
21.4726 9.010 0.306
21.4930 9.448 0.314
21.5135 9.250 0.310
21.5339 9.427 0.313
21.5544 9.208 0.310
21.5749 9.438 0.314
21.5953 9.500 0.315
21.6158 9.844 0.320
21.6363 9.385 0.313
21.6567 9.979 0.322
21.6772 9.750 0.319
21.6976 9.781 0.319
21.7181 9.167 0.309
21.7386 9.000 0.306
21.7590 9.292 0.311
21.7795 9.198 0.310
21.8000 9.708 0.318
21.8204 9.740 0.319
21.8409 9.156 0.309
21.8613 9.188 0.309
21.8818 9.927 0.322
21.9023 9.938 0.322
21.9227 9.615 0.316
21.9432 9.917 0.321
21.9637 10.563 0.332
21.9841 10.719 0.334
22.0046 11.094 0.340
22.0251 11.604 0.348
22.0455 12.135 0.356
22.0660 13.729 0.378
22.0864 16.813 0.418
22.1069 20.323 0.460
22.1274 28.208 0.542
22.1478 41.917 0.661
22.1683 61.771 0.802
22.1888 70.365 0.856
22.2092 56.135 0.765
22.2297 51.490 0.732
22.2501 41.552 0.658
22.2706 28.823 0.548
22.2911 21.083 0.469
22.3115 17.813 0.431
22.3320 14.833 0.393
22.3525 14.469 0.388
22.3729 13.792 0.379
22.3934 12.344 0.359
22.4138 11.823 0.351
22.4343 11.438 0.345
22.4548 10.979 0.338
22.4752 10.396 0.329
22.4957 10.448 0.330
22.5162 10.104 0.324
22.5366 9.469 0.314
22.5571 10.375 0.329
22.5775 8.948 0.305
22.5980 9.375 0.313
22.6185 8.729 0.302
22.6389 9.302 0.311
22.6594 8.948 0.305
22.6799 8.885 0.304
22.7003 8.625 0.300
22.7208 8.865 0.304
22.7412 8.542 0.298
22.7617 8.479 0.297
22.7822 8.552 0.298
22.8026 8.198 0.292
22.8231 8.646 0.300
22.8436 8.469 0.297
22.8640 8.510 0.298
22.8845 8.802 0.303
22.9050 8.063 0.290
22.9254 8.813 0.303
22.9459 7.563 0.281
22.9663 7.854 0.286
22.9868 8.438 0.296
23.0073 8.865 0.304
23.0277 8.708 0.301
23.0482 8.479 0.297
23.0687 8.375 0.295
23.0891 7.865 0.286
23.1096 7.865 0.286
23.1300 7.948 0.288
23.1505 7.740 0.284
23.1710 7.792 0.285
23.1914 8.010 0.289
23.2119 7.865 0.286
23.2324 7.688 0.283
23.2528 8.177 0.292
23.2733 7.490 0.279
23.2937 7.469 0.279
23.3142 7.500 0.280
23.3347 7.802 0.285
23.3551 7.719 0.284
23.3756 7.646 0.282
23.3961 7.896 0.287
23.4165 7.542 0.280
23.4370 8.094 0.290
23.4574 7.885 0.287
23.4779 7.802 0.285
23.4984 8.208 0.292
23.5188 7.896 0.287
23.5393 8.458 0.297
23.5598 8.698 0.301
23.5802 8.781 0.302
23.6007 8.188 0.292
23.6211 8.760 0.302
23.6416 9.677 0.317
23.6621 10.333 0.328
23.6825 9.375 0.313
23.7030 8.708 0.301
23.7235 8.854 0.304
23.7439 8.271 0.294
23.7644 7.552 0.280
23.7849 7.240 0.275
23.8053 7.448 0.279
23.8258 6.604 0.262
23.8462 7.208 0.274
23.8667 7.104 0.272
23.8872 7.052 0.271
23.9076 6.969 0.269
23.9281 7.021 0.270
23.9486 7.031 0.271
23.9690 6.542 0.261
23.9895 6.500 0.260
24.0099 6.854 0.267
24.0304 7.198 0.274
24.0509 6.823 0.267
24.0713 6.948 0.269
24.0918 7.031 0.271
24.1123 6.625 0.263
24.1327 6.083 0.252
24.1532 6.615 0.262
24.1736 7.021 0.270
24.1941 7.219 0.274
24.2146 7.167 0.273
24.2350 7.875 0.286
24.2555 7.948 0.288
24.2760 8.740 0.302
24.2964 10.688 0.334
24.3169 12.115 0.355
24.3373 12.635 0.363
24.3578 10.833 0.336
24.3783 10.667 0.333
24.3987 9.583 0.316
24.4192 8.615 0.300
24.4397 7.146 0.273
24.4601 7.073 0.271
24.4806 6.479 0.260
24.5011 6.531 0.261
24.5215 6.417 0.259
24.5420 6.906 0.268
24.5624 6.583 0.262
24.5829 6.594 0.262
24.6034 6.302 0.256
24.6238 5.802 0.246
24.6443 5.802 0.246
24.6648 6.750 0.265
24.6852 6.125 0.253
24.7057 6.396 0.258
24.7261 6.125 0.253
24.7466 5.760 0.245
24.7671 6.677 0.264
24.7875 6.208 0.254
24.8080 5.990 0.250
24.8285 6.552 0.261
24.8489 6.281 0.256
24.8694 6.438 0.259
24.8898 6.302 0.256
24.9103 6.208 0.254
24.9308 5.604 0.242
24.9512 6.271 0.256
24.9717 6.188 0.254
24.9922 6.365 0.257
25.0126 6.292 0.256
25.0331 5.938 0.249
25.0535 6.500 0.260
25.0740 5.844 0.247
25.0945 5.802 0.246
25.1149 6.000 0.250
25.1354 5.906 0.248
25.1559 5.823 0.246
25.1763 5.458 0.238
25.1968 5.656 0.243
25.2172 5.740 0.245
25.2377 6.052 0.251
25.2582 5.844 0.247
25.2786 5.927 0.248
25.2991 5.677 0.243
25.3196 5.969 0.249
25.3400 5.281 0.235
25.3605 5.594 0.241
25.3810 5.792 0.246
25.4014 5.802 0.246
25.4219 5.750 0.245
25.4423 5.906 0.248
25.4628 5.771 0.245
25.4833 5.729 0.244
25.5037 5.854 0.247
25.5242 6.115 0.252
25.5447 6.115 0.252
25.5651 6.000 0.250
25.5856 5.677 0.243
25.6060 5.750 0.245
25.6265 5.823 0.246
25.6470 6.094 0.252
25.6674 5.813 0.246
25.6879 5.844 0.247
25.7084 6.000 0.250
25.7288 6.375 0.258
25.7493 6.354 0.257
25.7697 5.719 0.244
25.7902 5.885 0.248
25.8107 5.635 0.242
25.8311 5.750 0.245
25.8516 5.948 0.249
25.8721 5.479 0.239
25.8925 6.396 0.258
25.9130 6.094 0.252
25.9334 5.979 0.250
25.9539 5.729 0.244
25.9744 6.010 0.250
25.9948 5.781 0.245
26.0153 6.625 0.263
26.0358 6.000 0.250
26.0562 5.938 0.249
26.0767 5.760 0.245
26.0971 5.990 0.250
26.1176 6.188 0.254
26.1381 5.635 0.242
26.1585 5.646 0.243
26.1790 5.792 0.246
26.1995 5.573 0.241
26.2199 5.583 0.241
26.2404 5.552 0.240
26.2609 5.573 0.241
26.2813 5.927 0.248
26.3018 5.823 0.246
26.3222 5.688 0.243
26.3427 5.979 0.250
26.3632 6.042 0.251
26.3836 6.542 0.261
26.4041 6.375 0.258
26.4246 7.125 0.272
26.4450 7.198 0.274
26.4655 7.125 0.272
26.4859 7.896 0.287
26.5064 8.094 0.290
26.5269 8.083 0.290
26.5473 7.354 0.277
26.5678 7.427 0.278
26.5883 7.490 0.279
26.6087 7.667 0.283
26.6292 6.740 0.265
26.6496 7.281 0.275
26.6701 7.604 0.281
26.6906 7.333 0.276
26.7110 7.500 0.280
26.7315 7.427 0.278
26.7520 7.104 0.272
26.7724 7.396 0.278
26.7929 8.083 0.290
26.8133 8.417 0.296
26.8338 8.854 0.304
26.8543 9.552 0.315
26.8747 10.583 0.332
26.8952 10.792 0.335
26.9157 10.135 0.325
26.9361 9.729 0.318
26.9566 9.375 0.313
26.9770 8.781 0.302
26.9975 8.000 0.289
27.0180 7.500 0.280
27.0384 7.385 0.277
27.0589 6.875 0.268
27.0794 6.417 0.259
27.0998 6.740 0.265
27.1203 6.417 0.259
27.1408 6.552 0.261
27.1612 5.969 0.249
27.1817 6.708 0.264
27.2021 5.917 0.248
27.2226 6.167 0.253
27.2431 5.927 0.248
27.2635 5.823 0.246
27.2840 6.188 0.254
27.3045 5.708 0.244
27.3249 6.063 0.251
27.3454 6.167 0.253
27.3658 5.906 0.248
27.3863 5.885 0.248
27.4068 6.073 0.252
27.4272 5.969 0.249
27.4477 5.802 0.246
27.4682 5.917 0.248
27.4886 5.958 0.249
27.5091 5.427 0.238
27.5295 5.875 0.247
27.5500 5.906 0.248
27.5705 5.958 0.249
27.5909 5.719 0.244
27.6114 5.542 0.240
27.6319 5.771 0.245
27.6523 6.365 0.257
27.6728 5.948 0.249
27.6932 6.302 0.256
27.7137 6.042 0.251
27.7342 6.740 0.265
27.7546 6.990 0.270
27.7751 6.917 0.268
27.7956 6.604 0.262
27.8160 6.406 0.258
27.8365 6.896 0.268
27.8569 6.906 0.268
27.8774 7.771 0.285
27.8979 7.448 0.279
27.9183 7.573 0.281
27.9388 7.115 0.272
27.9593 8.385 0.296
27.9797 8.833 0.303
28.0002 9.063 0.307
28.0207 8.938 0.305
28.0411 8.552 0.298
28.0616 8.573 0.299
28.0820 7.615 0.282
28.1025 7.635 0.282
28.1230 7.531 0.280
28.1434 6.604 0.262
28.1639 6.438 0.259
28.1844 6.260 0.255
28.2048 6.677 0.264
28.2253 5.594 0.241
28.2457 5.333 0.236
28.2662 5.698 0.244
28.2867 5.344 0.236
28.3071 5.625 0.242
28.3276 5.979 0.250
28.3481 5.740 0.245
28.3685 5.802 0.246
28.3890 5.542 0.240
28.4094 5.708 0.244
28.4299 5.615 0.242
28.4504 5.885 0.248
28.4708 5.563 0.241
28.4913 5.917 0.248
28.5118 5.490 0.239
28.5322 5.938 0.249
28.5527 5.823 0.246
28.5731 6.135 0.253
28.5936 6.458 0.259
28.6141 6.313 0.256
28.6345 7.188 0.274
28.6550 6.542 0.261
28.6755 7.063 0.271
28.6959 7.073 0.271
28.7164 7.229 0.274
28.7368 7.198 0.274
28.7573 7.135 0.273
28.7778 7.896 0.287
28.7982 7.229 0.274
28.8187 7.229 0.274
28.8392 6.896 0.268
28.8596 6.396 0.258
28.8801 7.260 0.275
28.9006 7.000 0.270
28.9210 6.104 0.252
28.9415 6.031 0.251
28.9619 5.979 0.250
28.9824 5.781 0.245
29.0029 5.740 0.245
29.0233 5.396 0.237
29.0438 5.104 0.231
29.0643 5.302 0.235
29.0847 5.208 0.233
29.1052 4.906 0.226
29.1256 5.167 0.232
29.1461 5.354 0.236
29.1666 4.969 0.228
29.1870 5.375 0.237
29.2075 5.500 0.239
29.2280 5.729 0.244
29.2484 6.094 0.252
29.2689 6.344 0.257
29.2893 6.615 0.262
29.3098 6.667 0.264
29.3303 7.656 0.282
29.3507 7.635 0.282
29.3712 6.854 0.267
29.3917 7.240 0.275
29.4121 6.344 0.257
29.4326 6.125 0.253
29.4530 5.802 0.246
29.4735 5.750 0.245
29.4940 4.781 0.223
29.5144 5.219 0.233
29.5349 5.281 0.235
29.5554 5.563 0.241
29.5758 4.740 0.222
29.5963 4.865 0.225
29.6168 5.198 0.233
29.6372 5.083 0.230
29.6577 4.969 0.228
29.6781 5.198 0.233
29.6986 5.406 0.237
29.7191 5.323 0.235
29.7395 4.958 0.227
29.7600 5.375 0.237
29.7805 5.177 0.232
29.8009 5.104 0.231
29.8214 5.344 0.236
29.8418 5.323 0.235
29.8623 5.531 0.240
29.8828 5.531 0.240
29.9032 5.833 0.247
29.9237 6.573 0.262
29.9442 6.031 0.251
29.9646 5.396 0.237
29.9851 5.354 0.236
30.0055 5.635 0.242
30.0260 5.583 0.241
30.0465 5.188 0.232
30.0669 5.354 0.236
30.0874 4.844 0.225
30.1079 4.948 0.227
30.1283 5.229 0.233
30.1488 5.208 0.233
30.1692 4.698 0.221
30.1897 5.073 0.230
30.2102 4.552 0.218
30.2306 4.771 0.223
30.2511 4.760 0.223
30.2716 4.938 0.227
30.2920 4.656 0.220
30.3125 4.896 0.226
30.3329 4.729 0.222
30.3534 4.625 0.219
30.3739 4.833 0.224
30.3943 4.729 0.222
30.4148 5.031 0.229
30.4353 4.896 0.226
30.4557 4.771 0.223
30.4762 4.781 0.223
30.4967 4.875 0.225
30.5171 5.417 0.238
30.5376 4.854 0.225
30.5580 4.885 0.226
30.5785 4.760 0.223
30.5990 5.115 0.231
30.6194 4.802 0.224
30.6399 4.948 0.227
30.6604 4.896 0.226
30.6808 5.240 0.234
30.7013 4.625 0.219
30.7217 5.115 0.231
30.7422 5.885 0.248
30.7627 5.260 0.234
30.7831 5.865 0.247
30.8036 5.615 0.242
30.8241 6.063 0.251
30.8445 6.292 0.256
30.8650 6.906 0.268
30.8854 6.823 0.267
30.9059 7.948 0.288
30.9264 8.906 0.305
30.9468 11.760 0.350
30.9673 17.677 0.429
30.9878 28.208 0.542
31.0082 44.792 0.683
31.0287 50.615 0.726
31.0491 40.635 0.651
31.0696 34.740 0.602
31.0901 34.813 0.602
31.1105 31.167 0.570
31.1310 21.344 0.472
31.1515 15.219 0.398
31.1719 11.208 0.342
31.1924 8.677 0.301
31.2128 7.396 0.278
31.2333 7.063 0.271
31.2538 6.188 0.254
31.2742 5.958 0.249
31.2947 5.573 0.241
31.3152 5.583 0.241
31.3356 4.927 0.227
31.3561 5.198 0.233
31.3766 5.229 0.233
31.3970 4.823 0.224
31.4175 5.042 0.229
31.4379 5.156 0.232
31.4584 4.781 0.223
31.4789 4.865 0.225
31.4993 4.656 0.220
31.5198 4.802 0.224
31.5403 4.927 0.227
31.5607 5.042 0.229
31.5812 4.990 0.228
31.6016 5.042 0.229
31.6221 5.156 0.232
31.6426 5.271 0.234
31.6630 5.042 0.229
31.6835 5.302 0.235
31.7040 5.021 0.229
31.7244 5.271 0.234
31.7449 5.010 0.228
31.7653 4.958 0.227
31.7858 4.792 0.223
31.8063 5.417 0.238
31.8267 5.063 0.230
31.8472 5.198 0.233
31.8677 5.281 0.235
31.8881 5.198 0.233
31.9086 5.115 0.231
31.9290 5.188 0.232
31.9495 5.906 0.248
31.9700 5.771 0.245
31.9904 5.583 0.241
32.0109 5.990 0.250
32.0314 6.479 0.260
32.0518 6.771 0.266
32.0723 8.344 0.295
32.0927 8.854 0.304
32.1132 9.448 0.314
32.1337 9.281 0.311
32.1541 8.865 0.304
32.1746 9.094 0.308
32.1951 8.729 0.302
32.2155 8.156 0.291
32.2360 7.813 0.285
32.2565 7.813 0.285
32.2769 7.521 0.280
32.2974 7.938 0.288
32.3178 8.094 0.290
32.3383 8.042 0.289
32.3588 7.990 0.288
32.3792 7.385 0.277
32.3997 7.823 0.285
32.4202 8.063 0.290
32.4406 8.333 0.295
32.4611 9.073 0.307
32.4815 9.479 0.314
32.5020 9.594 0.316
32.5225 9.969 0.322
32.5429 11.594 0.348
32.5634 12.979 0.368
32.5839 16.969 0.420
32.6043 22.740 0.487
32.6248 25.354 0.514
32.6452 21.531 0.474
32.6657 15.813 0.406
32.6862 15.490 0.402
32.7066 15.219 0.398
32.7271 12.802 0.365
32.7476 9.479 0.314
32.7680 7.406 0.278
32.7885 6.490 0.260
32.8089 6.302 0.256
32.8294 5.219 0.233
32.8499 5.625 0.242
32.8703 5.625 0.242
32.8908 5.396 0.237
32.9113 4.865 0.225
32.9317 5.135 0.231
32.9522 5.021 0.229
32.9726 5.115 0.231
32.9931 4.583 0.219
33.0136 5.063 0.230
33.0340 5.135 0.231
33.0545 5.281 0.235
33.0750 4.938 0.227
33.0954 4.958 0.227
33.1159 5.490 0.239
33.1364 4.885 0.226
33.1568 4.844 0.225
33.1773 4.479 0.216
33.1977 4.802 0.224
33.2182 4.740 0.222
33.2387 4.833 0.224
33.2591 4.875 0.225
33.2796 4.792 0.223
33.3001 4.875 0.225
33.3205 4.698 0.221
33.3410 4.750 0.222
33.3614 5.292 0.235
33.3819 4.583 0.219
33.4024 4.615 0.219
33.4228 4.417 0.214
33.4433 4.635 0.220
33.4638 4.542 0.218
33.4842 4.396 0.214
33.5047 4.979 0.228
33.5251 4.688 0.221
33.5456 4.167 0.208
33.5661 4.375 0.213
33.5865 4.656 0.220
33.6070 4.688 0.221
33.6275 4.823 0.224
33.6479 4.625 0.219
33.6684 4.531 0.217
33.6888 4.688 0.221
33.7093 4.844 0.225
33.7298 4.500 0.217
33.7502 4.594 0.219
33.7707 4.365 0.213
33.7912 4.677 0.221
33.8116 4.813 0.224
33.8321 5.063 0.230
33.8526 4.906 0.226
33.8730 5.438 0.238
33.8935 5.302 0.235
33.9139 5.083 0.230
33.9344 4.802 0.224
33.9549 5.083 0.230
33.9753 4.781 0.223
33.9958 4.917 0.226
34.0163 4.958 0.227
34.0367 4.531 0.217
34.0572 4.771 0.223
34.0776 4.885 0.226
34.0981 4.552 0.218
34.1186 4.948 0.227
34.1390 4.250 0.210
34.1595 4.615 0.219
34.1800 4.656 0.220
34.2004 4.521 0.217
34.2209 4.781 0.223
34.2413 4.469 0.216
34.2618 4.333 0.212
34.2823 4.458 0.216
34.3027 4.406 0.214
34.3232 4.354 0.213
34.3437 4.313 0.212
34.3641 4.052 0.205
34.3846 4.510 0.217
34.4050 4.219 0.210
34.4255 4.417 0.214
34.4460 4.417 0.214
34.4664 4.260 0.211
34.4869 4.146 0.208
34.5074 4.979 0.228
34.5278 3.823 0.200
34.5483 3.990 0.204
34.5687 4.448 0.215
34.5892 4.500 0.217
34.6097 4.385 0.214
34.6301 4.438 0.215
34.6506 4.573 0.218
34.6711 4.646 0.220
34.6915 4.792 0.223
34.7120 4.354 0.213
34.7325 4.302 0.212
34.7529 4.552 0.218
34.7734 4.177 0.209
34.7938 4.667 0.220
34.8143 4.438 0.215
34.8348 4.646 0.220
34.8552 4.625 0.219
34.8757 4.510 0.217
34.8962 4.469 0.216
34.9166 4.469 0.216
34.9371 4.219 0.210
34.9575 4.542 0.218
34.9780 4.573 0.218
34.9985 4.396 0.214
35.0189 4.531 0.217
35.0394 4.250 0.210
35.0599 4.260 0.211
35.0803 4.260 0.211
35.1008 4.844 0.225
35.1212 4.740 0.222
35.1417 4.583 0.219
35.1622 4.573 0.218
35.1826 4.583 0.219
35.2031 4.552 0.218
35.2236 4.760 0.223
35.2440 4.563 0.218
35.2645 4.521 0.217
35.2849 4.771 0.223
35.3054 4.823 0.224
35.3259 5.000 0.228
35.3463 5.021 0.229
35.3668 5.219 0.233
35.3873 4.906 0.226
35.4077 5.115 0.231
35.4282 5.260 0.234
35.4486 5.260 0.234
35.4691 4.948 0.227
35.4896 4.781 0.223
35.5100 5.323 0.235
35.5305 4.854 0.225
35.5510 4.771 0.223
35.5714 4.667 0.220
35.5919 5.115 0.231
35.6124 4.917 0.226
35.6328 5.021 0.229
35.6533 5.083 0.230
35.6737 5.031 0.229
35.6942 4.354 0.213
35.7147 4.417 0.214
35.7351 4.969 0.228
35.7556 4.969 0.228
35.7761 4.740 0.222
35.7965 4.635 0.220
35.8170 5.198 0.233
35.8374 5.260 0.234
35.8579 5.354 0.236
35.8784 5.656 0.243
35.8988 5.354 0.236
35.9193 5.583 0.241
35.9398 5.531 0.240
35.9602 6.302 0.256
35.9807 6.323 0.257
36.0011 6.052 0.251
36.0216 6.656 0.263
36.0421 6.906 0.268
36.0625 7.573 0.281
36.0830 8.000 0.289
36.1035 8.958 0.305
36.1239 10.688 0.334
36.1444 11.281 0.343
36.1648 10.865 0.336
36.1853 11.771 0.350
36.2058 10.458 0.330
36.2262 10.313 0.328
36.2467 10.490 0.331
36.2672 10.292 0.327
36.2876 10.531 0.331
36.3081 10.531 0.331
36.3285 10.385 0.329
36.3490 10.792 0.335
36.3695 12.427 0.360
36.3899 12.469 0.360
36.4104 13.813 0.379
36.4309 14.521 0.389
36.4513 15.635 0.404
36.4718 16.313 0.412
36.4923 16.094 0.409
36.5127 16.729 0.417
36.5332 18.510 0.439
36.5536 23.083 0.490
36.5741 28.813 0.548
36.5946 34.354 0.598
36.6150 35.219 0.606
36.6355 27.250 0.533
36.6560 23.854 0.498
36.6764 23.083 0.490
36.6969 24.125 0.501
36.7173 21.229 0.470
36.7378 17.063 0.422
36.7583 14.031 0.382
36.7787 12.563 0.362
36.7992 11.271 0.343
36.8197 12.052 0.354
36.8401 11.458 0.345
36.8606 11.844 0.351
36.8810 12.010 0.354
36.9015 12.281 0.358
36.9220 13.021 0.368
36.9424 14.052 0.383
36.9629 14.781 0.392
36.9834 17.083 0.422
37.0038 20.073 0.457
37.0243 26.406 0.524
37.0447 35.448 0.608
37.0652 46.490 0.696
37.0857 47.188 0.701
37.1061 37.885 0.628
37.1266 28.188 0.542
37.1471 28.385 0.544
37.1675 29.125 0.551
37.1880 26.104 0.521
37.2084 18.344 0.437
37.2289 13.969 0.381
37.2494 10.667 0.333
37.2698 9.417 0.313
37.2903 8.698 0.301
37.3108 7.760 0.284
37.3312 8.813 0.303
37.3517 7.615 0.282
37.3722 7.708 0.283
37.3926 7.646 0.282
37.4131 7.260 0.275
37.4335 7.604 0.281
37.4540 7.750 0.284
37.4745 7.740 0.284
37.4949 7.656 0.282
37.5154 7.521 0.280
37.5359 8.583 0.299
37.5563 8.427 0.296
37.5768 9.219 0.310
37.5972 10.073 0.324
37.6177 10.854 0.336
37.6382 11.906 0.352
37.6586 12.927 0.367
37.6791 12.552 0.362
37.6996 12.844 0.366
37.7200 12.229 0.357
37.7405 11.698 0.349
37.7609 11.354 0.344
37.7814 11.000 0.339
37.8019 10.115 0.325
37.8223 9.271 0.311
37.8428 8.552 0.298
37.8633 9.021 0.307
37.8837 8.510 0.298
37.9042 8.771 0.302
37.9246 9.458 0.314
37.9451 10.125 0.325
37.9656 13.458 0.374
37.9860 16.510 0.415
38.0065 22.250 0.481
38.0270 26.156 0.522
38.0474 22.510 0.484
38.0679 17.146 0.423
38.0884 16.010 0.408
38.1088 17.990 0.433
38.1293 17.500 0.427
38.1497 15.323 0.400
38.1702 11.583 0.347
38.1907 9.760 0.319
38.2111 10.375 0.329
38.2316 9.917 0.321
38.2521 9.458 0.314
38.2725 9.052 0.307
38.2930 8.458 0.297
38.3134 8.396 0.296
38.3339 8.740 0.302
38.3544 8.875 0.304
38.3748 8.625 0.300
38.3953 9.438 0.314
38.4158 10.885 0.337
38.4362 12.438 0.360
38.4567 15.302 0.399
38.4771 14.427 0.388
38.4976 12.031 0.354
38.5181 10.604 0.332
38.5385 11.000 0.339
38.5590 11.573 0.347
38.5795 10.646 0.333
38.5999 9.885 0.321
38.6204 7.635 0.282
38.6408 7.271 0.275
38.6613 7.667 0.283
38.6818 7.281 0.275
38.7022 6.604 0.262
38.7227 6.990 0.270
38.7432 6.573 0.262
38.7636 6.271 0.256
38.7841 5.969 0.249
38.8045 6.042 0.251
38.8250 6.271 0.256
38.8455 6.115 0.252
38.8659 6.604 0.262
38.8864 6.417 0.259
38.9069 5.958 0.249
38.9273 6.052 0.251
38.9478 6.375 0.258
38.9683 6.302 0.256
38.9887 6.615 0.262
39.0092 6.875 0.268
39.0296 6.979 0.270
39.0501 6.958 0.269
39.0706 6.688 0.264
39.0910 6.594 0.262
39.1115 6.719 0.265
39.1320 6.375 0.258
39.1524 6.417 0.259
39.1729 6.417 0.259
39.1933 6.625 0.263
39.2138 6.906 0.268
39.2343 6.885 0.268
39.2547 7.146 0.273
39.2752 7.167 0.273
39.2957 7.156 0.273
39.3161 7.521 0.280
39.3366 7.875 0.286
39.3570 7.323 0.276
39.3775 8.031 0.289
39.3980 8.010 0.289
39.4184 7.938 0.288
39.4389 7.875 0.286
39.4594 7.844 0.286
39.4798 7.229 0.274
39.5003 7.604 0.281
39.5207 8.104 0.291
39.5412 7.552 0.280
39.5617 7.448 0.279
39.5821 7.938 0.288
39.6026 7.271 0.275
39.6231 7.490 0.279
39.6435 7.771 0.285
39.6640 7.573 0.281
39.6844 9.000 0.306
39.7049 8.542 0.298
39.7254 8.802 0.303
39.7458 9.750 0.319
39.7663 11.010 0.339
39.7868 12.406 0.359
39.8072 13.740 0.378
39.8277 11.719 0.349
39.8482 11.250 0.342
39.8686 10.510 0.331
39.8891 10.563 0.332
39.9095 11.188 0.341
39.9300 10.646 0.333
39.9505 9.333 0.312
39.9709 8.292 0.294
39.9914 8.656 0.300
40.0119 8.948 0.305
40.0323 8.208 0.292
40.0528 9.042 0.307
40.0732 9.125 0.308
40.0937 9.688 0.318
40.1142 9.750 0.319
40.1346 10.792 0.335
40.1551 10.000 0.323
40.1756 11.010 0.339
40.1960 12.281 0.358
40.2165 14.406 0.387
40.2369 19.938 0.456
40.2574 33.563 0.591
40.2779 44.979 0.684
40.2983 28.510 0.545
40.3188 18.448 0.438
40.3393 16.854 0.419
40.3597 21.573 0.474
40.3802 27.813 0.538
40.4006 19.656 0.452
40.4211 13.354 0.373
40.4416 10.604 0.332
40.4620 9.823 0.320
40.4825 9.177 0.309
40.5030 8.771 0.302
40.5234 8.260 0.293
40.5439 9.531 0.315
40.5643 8.417 0.296
40.5848 8.469 0.297
40.6053 8.573 0.299
40.6257 8.260 0.293
40.6462 8.885 0.304
40.6667 7.927 0.287
40.6871 7.583 0.281
40.7076 7.406 0.278
40.7281 7.177 0.273
40.7485 7.271 0.275
40.7690 7.177 0.273
40.7894 7.406 0.278
40.8099 7.260 0.275
40.8304 6.448 0.259
40.8508 6.885 0.268
40.8713 6.615 0.262
40.8918 6.448 0.259
40.9122 6.875 0.268
40.9327 7.021 0.270
40.9531 6.927 0.269
40.9736 6.583 0.262
40.9941 7.250 0.275
41.0145 8.229 0.293
41.0350 8.656 0.300
41.0555 10.281 0.327
41.0759 12.000 0.354
41.0964 16.615 0.416
41.1168 20.156 0.458
41.1373 22.281 0.482
41.1578 17.833 0.431
41.1782 15.188 0.398
41.1987 13.531 0.375
41.2192 15.563 0.403
41.2396 15.594 0.403
41.2601 12.938 0.367
41.2805 9.625 0.317
41.3010 7.844 0.286
41.3215 7.521 0.280
41.3419 7.875 0.286
41.3624 6.917 0.268
41.3829 7.135 0.273
41.4033 6.323 0.257
41.4238 6.063 0.251
41.4442 6.417 0.259
41.4647 5.740 0.245
41.4852 5.698 0.244
41.5056 6.031 0.251
41.5261 5.708 0.244
41.5466 6.094 0.252
41.5670 5.948 0.249
41.5875 6.625 0.263
41.6080 6.844 0.267
41.6284 6.865 0.267
41.6489 7.229 0.274
41.6693 7.479 0.279
41.6898 7.688 0.283
41.7103 7.146 0.273
41.7307 7.427 0.278
41.7512 6.500 0.260
41.7717 7.000 0.270
41.7921 6.948 0.269
41.8126 6.708 0.264
41.8330 6.458 0.259
41.8535 6.750 0.265
41.8740 5.865 0.247
41.8944 6.167 0.253
41.9149 5.719 0.244
41.9354 5.896 0.248
41.9558 5.365 0.236
41.9763 5.823 0.246
41.9967 5.542 0.240
42.0172 5.167 0.232
42.0377 5.583 0.241
42.0581 5.250 0.234
42.0786 5.302 0.235
42.0991 5.271 0.234
42.1195 5.281 0.235
42.1400 5.615 0.242
42.1604 5.552 0.240
42.1809 5.188 0.232
42.2014 5.031 0.229
42.2218 5.063 0.230
42.2423 5.729 0.244
42.2628 5.885 0.248
42.2832 5.719 0.244
42.3037 6.344 0.257
42.3242 6.573 0.262
42.3446 7.219 0.274
42.3651 7.219 0.274
42.3855 7.365 0.277
42.4060 7.073 0.271
42.4265 7.604 0.281
42.4469 7.000 0.270
42.4674 6.885 0.268
42.4879 6.938 0.269
42.5083 6.771 0.266
42.5288 6.823 0.267
42.5492 6.344 0.257
42.5697 6.323 0.257
42.5902 6.302 0.256
42.6106 6.198 0.254
42.6311 6.792 0.266
42.6516 5.990 0.250
42.6720 6.406 0.258
42.6925 6.167 0.253
42.7129 5.875 0.247
42.7334 6.500 0.260
42.7539 6.167 0.253
42.7743 5.813 0.246
42.7948 5.792 0.246
42.8153 5.865 0.247
42.8357 5.823 0.246
42.8562 5.063 0.230
42.8766 6.115 0.252
42.8971 5.573 0.241
42.9176 5.333 0.236
42.9380 5.208 0.233
42.9585 5.490 0.239
42.9790 5.906 0.248
42.9994 5.531 0.240
43.0199 5.521 0.240
43.0403 5.896 0.248
43.0608 5.396 0.237
43.0813 5.833 0.247
43.1017 6.219 0.255
43.1222 6.240 0.255
43.1427 6.542 0.261
43.1631 6.979 0.270
43.1836 8.073 0.290
43.2041 9.375 0.313
43.2245 9.365 0.312
43.2450 8.417 0.296
43.2654 7.760 0.284
43.2859 7.833 0.286
43.3064 8.188 0.292
43.3268 8.781 0.302
43.3473 8.583 0.299
43.3678 8.750 0.302
43.3882 8.010 0.289
43.4087 8.156 0.291
43.4291 8.958 0.305
43.4496 9.063 0.307
43.4701 9.510 0.315
43.4905 9.469 0.314
43.5110 10.615 0.333
43.5315 11.833 0.351
43.5519 13.729 0.378
43.5724 16.802 0.418
43.5928 21.438 0.473
43.6133 26.688 0.527
43.6338 31.063 0.569
43.6542 27.323 0.533
43.6747 19.479 0.450
43.6952 17.573 0.428
43.7156 17.823 0.431
43.7361 18.823 0.443
43.7565 17.854 0.431
43.7770 13.854 0.380
43.7975 10.948 0.338
43.8179 9.260 0.311
43.8384 8.292 0.294
43.8589 7.563 0.281
43.8793 7.146 0.273
43.8998 6.448 0.259
43.9202 6.823 0.267
43.9407 6.500 0.260
43.9612 6.667 0.264
43.9816 6.469 0.260
44.0021 6.938 0.269
44.0226 6.688 0.264
44.0430 7.042 0.271
44.0635 6.729 0.265
44.0840 7.688 0.283
44.1044 7.760 0.284
44.1249 8.615 0.300
44.1453 8.677 0.301
44.1658 9.000 0.306
44.1863 8.813 0.303
44.2067 8.760 0.302
44.2272 8.604 0.299
44.2477 8.260 0.293
44.2681 8.313 0.294
44.2886 8.802 0.303
44.3090 8.042 0.289
44.3295 7.115 0.272
44.3500 7.021 0.270
44.3704 6.302 0.256
44.3909 6.031 0.251
44.4114 6.396 0.258
44.4318 6.510 0.260
44.4523 5.146 0.232
44.4727 5.719 0.244
44.4932 5.333 0.236
44.5137 5.708 0.244
44.5341 5.656 0.243
44.5546 5.375 0.237
44.5751 5.396 0.237
44.5955 5.396 0.237
44.6160 5.646 0.243
44.6364 5.615 0.242
44.6569 5.792 0.246
44.6774 5.760 0.245
44.6978 5.781 0.245
44.7183 5.292 0.235
44.7388 5.792 0.246
44.7592 5.990 0.250
44.7797 6.344 0.257
44.8001 6.021 0.250
44.8206 5.813 0.246
44.8411 5.958 0.249
44.8615 6.490 0.260
44.8820 6.115 0.252
44.9025 6.313 0.256
44.9229 6.542 0.261
44.9434 6.813 0.266
44.9639 6.750 0.265
44.9843 6.833 0.267
45.0048 6.854 0.267
45.0252 6.979 0.270
45.0457 7.104 0.272
45.0662 7.438 0.278
45.0866 7.719 0.284
45.1071 7.063 0.271
45.1276 7.094 0.272
45.1480 7.938 0.288
45.1685 7.719 0.284
45.1889 9.490 0.314
45.2094 10.333 0.328
45.2299 12.469 0.360
45.2503 12.333 0.358
45.2708 11.385 0.344
45.2913 9.667 0.317
45.3117 9.073 0.307
45.3322 9.115 0.308
45.3526 10.469 0.330
45.3731 10.531 0.331
45.3936 9.885 0.321
45.4140 9.219 0.310
45.4345 8.271 0.294
45.4550 8.104 0.291
45.4754 8.063 0.290
45.4959 7.917 0.287
45.5163 7.469 0.279
45.5368 7.031 0.271
45.5573 6.958 0.269
45.5777 6.469 0.260
45.5982 6.219 0.255
45.6187 5.854 0.247
45.6391 5.885 0.248
45.6596 5.844 0.247
45.6800 5.542 0.240
45.7005 4.938 0.227
45.7210 4.823 0.224
45.7414 4.979 0.228
45.7619 4.688 0.221
45.7824 4.708 0.221
45.8028 4.469 0.216
45.8233 5.302 0.235
45.8438 4.885 0.226
45.8642 4.323 0.212
45.8847 4.708 0.221
45.9051 4.458 0.216
45.9256 4.344 0.213
45.9461 4.708 0.221
45.9665 4.104 0.207
45.9870 4.958 0.227
46.0075 4.833 0.224
46.0279 4.406 0.214
46.0484 4.500 0.217
46.0688 4.896 0.226
46.0893 4.469 0.216
46.1098 4.677 0.221
46.1302 4.604 0.219
46.1507 4.104 0.207
46.1712 4.740 0.222
46.1916 4.813 0.224
46.2121 4.573 0.218
46.2325 4.813 0.224
46.2530 4.698 0.221
46.2735 4.302 0.212
46.2939 4.583 0.219
46.3144 4.302 0.212
46.3349 4.625 0.219
46.3553 4.417 0.214
46.3758 4.833 0.224
46.3962 4.313 0.212
46.4167 3.990 0.204
46.4372 4.281 0.211
46.4576 4.448 0.215
46.4781 4.646 0.220
46.4986 4.313 0.212
46.5190 4.333 0.212
46.5395 4.490 0.216
46.5600 3.979 0.204
46.5804 3.917 0.202
46.6009 3.844 0.200
46.6213 3.917 0.202
46.6418 3.771 0.198
46.6623 4.135 0.208
46.6827 4.021 0.205
46.7032 3.781 0.198
46.7237 4.427 0.215
46.7441 4.104 0.207
46.7646 4.531 0.217
46.7850 4.167 0.208
46.8055 4.427 0.215
46.8260 4.083 0.206
46.8464 4.167 0.208
46.8669 4.417 0.214
46.8874 4.198 0.209
46.9078 3.760 0.198
46.9283 3.906 0.202
46.9487 4.250 0.210
46.9692 4.240 0.210
46.9897 4.188 0.209
47.0101 4.385 0.214
47.0306 4.500 0.217
47.0511 4.208 0.209
47.0715 4.500 0.217
47.0920 4.698 0.221
47.1124 4.625 0.219
47.1329 4.563 0.218
47.1534 4.417 0.214
47.1738 4.573 0.218
47.1943 4.771 0.223
47.2148 5.083 0.230
47.2352 5.552 0.240
47.2557 5.635 0.242
47.2761 5.750 0.245
47.2966 5.896 0.248
47.3171 5.948 0.249
47.3375 6.552 0.261
47.3580 6.698 0.264
47.3785 6.990 0.270
47.3989 6.948 0.269
47.4194 6.813 0.266
47.4399 7.031 0.271
47.4603 7.250 0.275
47.4808 7.292 0.276
47.5012 8.427 0.296
47.5217 8.354 0.295
47.5422 9.740 0.319
47.5626 11.510 0.346
47.5831 15.594 0.403
47.6036 18.594 0.440
47.6240 16.688 0.417
47.6445 14.073 0.383
47.6649 11.073 0.340
47.6854 10.906 0.337
47.7059 11.094 0.340
47.7263 12.573 0.362
47.7468 11.740 0.350
47.7673 9.583 0.316
47.7877 8.083 0.290
47.8082 7.229 0.274
47.8286 6.240 0.255
47.8491 6.208 0.254
47.8696 6.146 0.253
47.8900 5.771 0.245
47.9105 5.969 0.249
47.9310 6.104 0.252
47.9514 5.635 0.242
47.9719 5.063 0.230
47.9923 5.344 0.236
48.0128 5.615 0.242
48.0333 5.427 0.238
48.0537 5.417 0.238
48.0742 5.906 0.248
48.0947 5.177 0.232
48.1151 5.427 0.238
48.1356 5.229 0.233
48.1560 5.198 0.233
48.1765 4.927 0.227
48.1970 5.156 0.232
48.2174 4.917 0.226
48.2379 5.042 0.229
48.2584 4.927 0.227
48.2788 4.667 0.220
48.2993 5.313 0.235
48.3198 5.760 0.245
48.3402 6.167 0.253
48.3607 6.063 0.251
48.3811 5.563 0.241
48.4016 5.688 0.243
48.4221 5.625 0.242
48.4425 5.708 0.244
48.4630 5.563 0.241
48.4835 5.729 0.244
48.5039 5.354 0.236
48.5244 5.333 0.236
48.5448 5.354 0.236
48.5653 4.938 0.227
48.5858 4.958 0.227
48.6062 4.740 0.222
48.6267 5.135 0.231
48.6472 4.521 0.217
48.6676 4.792 0.223
48.6881 5.594 0.241
48.7085 6.073 0.252
48.7290 5.677 0.243
48.7495 5.125 0.231
48.7699 5.052 0.229
48.7904 4.958 0.227
48.8109 4.448 0.215
48.8313 4.594 0.219
48.8518 4.802 0.224
48.8722 4.365 0.213
48.8927 4.260 0.211
48.9132 3.917 0.202
48.9336 4.385 0.214
48.9541 4.219 0.210
48.9746 3.927 0.202
48.9950 4.208 0.209
49.0155 3.885 0.201
49.0359 3.771 0.198
49.0564 3.823 0.200
49.0769 3.667 0.195
49.0973 3.896 0.201
49.1178 3.531 0.192
49.1383 3.708 0.197
49.1587 4.052 0.205
49.1792 3.771 0.198
49.1997 3.969 0.203
49.2201 3.938 0.203
49.2406 4.250 0.210
49.2610 3.760 0.198
49.2815 4.313 0.212
49.3020 4.396 0.214
49.3224 3.906 0.202
49.3429 4.167 0.208
49.3634 4.448 0.215
49.3838 4.021 0.205
49.4043 4.198 0.209
49.4247 4.000 0.204
49.4452 4.313 0.212
49.4657 4.115 0.207
49.4861 4.385 0.214
49.5066 4.938 0.227
49.5271 4.438 0.215
49.5475 4.635 0.220
49.5680 4.969 0.228
49.5884 4.990 0.228
49.6089 5.490 0.239
49.6294 5.740 0.245
49.6498 5.740 0.245
49.6703 5.969 0.249
49.6908 5.760 0.245
49.7112 6.302 0.256
49.7317 6.469 0.260
49.7521 7.750 0.284
49.7726 9.594 0.316
49.7931 11.917 0.352
49.8135 14.823 0.393
49.8340 19.708 0.453
49.8545 21.552 0.474
49.8749 17.531 0.427
49.8954 14.583 0.390
49.9158 12.656 0.363
49.9363 12.177 0.356
49.9568 13.490 0.375
49.9772 14.063 0.383
49.9977 14.208 0.385
50.0182 11.594 0.348
50.0386 9.167 0.309
50.0591 8.281 0.294
50.0796 7.885 0.287
50.1000 7.115 0.272
50.1205 7.438 0.278
50.1409 7.219 0.274
50.1614 8.198 0.292
50.1819 7.688 0.283
50.2023 9.479 0.314
50.2228 8.729 0.302
50.2433 7.906 0.287
50.2637 7.052 0.271
50.2842 6.542 0.261
50.3046 6.656 0.263
50.3251 7.115 0.272
50.3456 7.688 0.283
50.3660 7.750 0.284
50.3865 6.823 0.267
50.4070 6.344 0.257
50.4274 6.646 0.263
50.4479 7.021 0.270
50.4683 7.323 0.276
50.4888 7.208 0.274
50.5093 7.344 0.277
50.5297 8.427 0.296
50.5502 8.125 0.291
50.5707 8.240 0.293
50.5911 7.875 0.286
50.6116 7.719 0.284
50.6320 7.573 0.281
50.6525 7.479 0.279
50.6730 7.448 0.279
50.6934 7.427 0.278
50.7139 7.573 0.281
50.7344 6.979 0.270
50.7548 7.031 0.271
50.7753 6.260 0.255
50.7958 6.458 0.259
50.8162 6.594 0.262
50.8367 6.813 0.266
50.8571 6.573 0.262
50.8776 6.938 0.269
50.8981 6.948 0.269
50.9185 8.323 0.294
50.9390 10.042 0.323
50.9595 14.563 0.389
50.9799 17.510 0.427
51.0004 12.938 0.367
51.0208 9.042 0.307
51.0413 7.875 0.286
51.0618 7.688 0.283
51.0822 8.667 0.300
51.1027 10.729 0.334
51.1232 10.667 0.333
51.1436 8.104 0.291
51.1641 6.219 0.255
51.1845 6.083 0.252
51.2050 5.229 0.233
51.2255 5.354 0.236
51.2459 5.490 0.239
51.2664 5.573 0.241
51.2869 5.865 0.247
51.3073 5.719 0.244
51.3278 5.927 0.248
51.3482 5.417 0.238
51.3687 4.906 0.226
51.3892 5.240 0.234
51.4096 5.073 0.230
51.4301 5.146 0.232
51.4506 4.771 0.223
51.4710 4.438 0.215
51.4915 4.688 0.221
51.5119 4.563 0.218
51.5324 4.667 0.220
51.5529 4.708 0.221
51.5733 5.083 0.230
51.5938 4.927 0.227
51.6143 5.531 0.240
51.6347 5.875 0.247
51.6552 6.813 0.266
51.6757 7.521 0.280
51.6961 6.656 0.263
51.7166 5.635 0.242
51.7370 6.052 0.251
51.7575 5.448 0.238
51.7780 4.740 0.222
51.7984 5.813 0.246
51.8189 5.729 0.244
51.8394 5.469 0.239
51.8598 4.719 0.222
51.8803 4.604 0.219
51.9007 4.469 0.216
51.9212 4.583 0.219
51.9417 4.469 0.216
51.9621 4.333 0.212
51.9826 4.573 0.218
52.0031 4.250 0.210
52.0235 4.896 0.226
52.0440 5.073 0.230
52.0644 5.115 0.231
52.0849 5.229 0.233
52.1054 5.469 0.239
52.1258 5.844 0.247
52.1463 6.323 0.257
52.1668 6.010 0.250
52.1872 5.802 0.246
52.2077 5.969 0.249
52.2281 6.156 0.253
52.2486 6.021 0.250
52.2691 5.958 0.249
52.2895 5.708 0.244
52.3100 5.792 0.246
52.3305 5.500 0.239
52.3509 5.958 0.249
52.3714 5.667 0.243
52.3918 5.948 0.249
52.4123 5.583 0.241
52.4328 4.771 0.223
52.4532 5.115 0.231
52.4737 5.042 0.229
52.4942 4.542 0.218
52.5146 4.542 0.218
52.5351 4.917 0.226
52.5556 4.281 0.211
52.5760 4.615 0.219
52.5965 4.177 0.209
52.6169 4.281 0.211
52.6374 4.052 0.205
52.6579 3.917 0.202
52.6783 4.594 0.219
52.6988 4.188 0.209
52.7193 3.802 0.199
52.7397 3.781 0.198
52.7602 3.865 0.201
52.7806 4.240 0.210
52.8011 4.021 0.205
52.8216 3.927 0.202
52.8420 4.115 0.207
52.8625 4.271 0.211
52.8830 3.896 0.201
52.9034 4.188 0.209
52.9239 4.073 0.206
52.9443 4.115 0.207
52.9648 4.573 0.218
52.9853 4.240 0.210
53.0057 4.115 0.207
53.0262 4.385 0.214
53.0467 4.073 0.206
53.0671 4.823 0.224
53.0876 4.479 0.216
53.1080 4.677 0.221
53.1285 5.125 0.231
53.1490 4.385 0.214
53.1694 4.833 0.224
53.1899 4.969 0.228
53.2104 5.188 0.232
53.2308 5.177 0.232
53.2513 4.750 0.222
53.2717 5.010 0.228
53.2922 5.125 0.231
53.3127 5.125 0.231
53.3331 4.615 0.219
53.3536 4.635 0.220
53.3741 4.458 0.216
53.3945 4.052 0.205
53.4150 4.479 0.216
53.4355 4.365 0.213
53.4559 4.083 0.206
53.4764 4.240 0.210
53.4968 4.177 0.209
53.5173 4.188 0.209
53.5378 4.094 0.207
53.5582 4.000 0.204
53.5787 3.740 0.197
53.5992 3.990 0.204
53.6196 3.792 0.199
53.6401 3.969 0.203
53.6605 3.896 0.201
53.6810 3.604 0.194
53.7015 3.552 0.192
53.7219 4.063 0.206
53.7424 3.448 0.190
53.7629 3.594 0.193
53.7833 3.427 0.189
53.8038 3.583 0.193
53.8242 3.740 0.197
53.8447 3.594 0.193
53.8652 3.563 0.193
53.8856 3.729 0.197
53.9061 3.708 0.197
53.9266 3.885 0.201
53.9470 4.500 0.217
53.9675 3.521 0.192
53.9879 3.958 0.203
54.0084 3.719 0.197
54.0289 3.833 0.200
54.0493 4.667 0.220
54.0698 4.000 0.204
54.0903 4.563 0.218
54.1107 5.104 0.231
54.1312 4.635 0.220
54.1516 4.896 0.226
54.1721 4.740 0.222
54.1926 4.490 0.216
54.2130 4.750 0.222
54.2335 5.177 0.232
54.2540 4.500 0.217
54.2744 5.167 0.232
54.2949 5.563 0.241
54.3154 4.948 0.227
54.3358 5.344 0.236
54.3563 5.385 0.237
54.3767 5.969 0.249
54.3972 6.125 0.253
54.4177 5.990 0.250
54.4381 5.740 0.245
54.4586 5.750 0.245
54.4791 5.438 0.238
54.4995 5.260 0.234
54.5200 5.646 0.243
54.5404 5.031 0.229
54.5609 5.063 0.230
54.5814 5.073 0.230
54.6018 5.156 0.232
54.6223 4.833 0.224
54.6428 4.698 0.221
54.6632 4.260 0.211
54.6837 4.104 0.207
54.7041 4.229 0.210
54.7246 4.396 0.214
54.7451 4.240 0.210
54.7655 4.042 0.205
54.7860 3.646 0.195
54.8065 4.198 0.209
54.8269 3.938 0.203
54.8474 4.063 0.206
54.8678 3.833 0.200
54.8883 4.271 0.211
54.9088 4.021 0.205
54.9292 4.146 0.208
54.9497 4.354 0.213
54.9702 4.177 0.209
54.9906 4.146 0.208
55.0111 4.990 0.228
55.0316 4.823 0.224
55.0520 4.552 0.218
55.0725 5.115 0.231
55.0929 6.156 0.253
55.1134 7.729 0.284
55.1339 10.073 0.324
55.1543 12.927 0.367
55.1748 15.833 0.406
55.1953 15.344 0.400
55.2157 13.479 0.375
55.2362 10.708 0.334
55.2566 9.740 0.319
55.2771 10.396 0.329
55.2976 11.188 0.341
55.3180 11.156 0.341
55.3385 11.083 0.340
55.3590 9.271 0.311
55.3794 8.490 0.297
55.3999 7.313 0.276
55.4203 6.948 0.269
55.4408 6.500 0.260
55.4613 5.760 0.245
55.4817 5.344 0.236
55.5022 5.031 0.229
55.5227 5.135 0.231
55.5431 5.010 0.228
55.5636 4.521 0.217
55.5840 4.542 0.218
55.6045 4.667 0.220
55.6250 4.552 0.218
55.6454 4.365 0.213
55.6659 4.135 0.208
55.6864 4.417 0.214
55.7068 4.240 0.210
55.7273 3.927 0.202
55.7477 4.104 0.207
55.7682 4.229 0.210
55.7887 4.604 0.219
55.8091 4.646 0.220
55.8296 5.417 0.238
55.8501 5.250 0.234
55.8705 5.469 0.239
55.8910 5.333 0.236
55.9115 4.948 0.227
55.9319 4.938 0.227
55.9524 4.813 0.224
55.9728 4.833 0.224
55.9933 5.146 0.232
56.0138 4.917 0.226
56.0342 5.583 0.241
56.0547 5.021 0.229
56.0752 5.677 0.243
56.0956 5.844 0.247
56.1161 6.625 0.263
56.1365 7.729 0.284
56.1570 9.740 0.319
56.1775 11.771 0.350
56.1979 13.479 0.375
56.2184 11.458 0.345
56.2389 9.750 0.319
56.2593 7.417 0.278
56.2798 6.990 0.270
56.3002 6.896 0.268
56.3207 8.042 0.289
56.3412 8.104 0.291
56.3616 8.292 0.294
56.3821 6.396 0.258
56.4026 5.469 0.239
56.4230 4.958 0.227
56.4435 3.813 0.199
56.4639 3.656 0.195
56.4844 3.760 0.198
56.5049 3.792 0.199
56.5253 3.229 0.183
56.5458 3.333 0.186
56.5663 3.500 0.191
56.5867 3.385 0.188
56.6072 3.115 0.180
56.6276 3.063 0.179
56.6481 3.000 0.177
56.6686 3.240 0.184
56.6890 2.885 0.173
56.7095 3.021 0.177
56.7300 3.104 0.180
56.7504 3.000 0.177
56.7709 2.927 0.175
56.7914 3.344 0.187
56.8118 2.927 0.175
56.8323 3.146 0.181
56.8527 3.323 0.186
56.8732 2.927 0.175
56.8937 3.094 0.180
56.9141 2.927 0.175
56.9346 3.292 0.185
56.9551 2.854 0.172
56.9755 2.875 0.173
56.9960 3.021 0.177
57.0164 3.083 0.179
57.0369 3.146 0.181
57.0574 2.990 0.176
57.0778 2.927 0.175
57.0983 2.844 0.172
57.1188 2.844 0.172
57.1392 2.958 0.176
57.1597 2.948 0.175
57.1801 3.104 0.180
57.2006 3.260 0.184
57.2211 2.844 0.172
57.2415 3.063 0.179
57.2620 3.344 0.187
57.2825 3.448 0.190
57.3029 3.219 0.183
57.3234 3.135 0.181
57.3438 2.990 0.176
57.3643 3.656 0.195
57.3848 3.125 0.180
57.4052 3.188 0.182
57.4257 3.583 0.193
57.4462 3.813 0.199
57.4666 3.240 0.184
57.4871 3.167 0.182
57.5075 3.552 0.192
57.5280 3.323 0.186
57.5485 3.396 0.188
57.5689 3.979 0.204
57.5894 3.396 0.188
57.6099 3.354 0.187
57.6303 3.917 0.202
57.6508 3.396 0.188
57.6713 3.427 0.189
57.6917 4.115 0.207
57.7122 4.250 0.210
57.7326 4.094 0.207
57.7531 4.833 0.224
57.7736 4.948 0.227
57.7940 5.219 0.233
57.8145 6.104 0.252
57.8350 6.260 0.255
57.8554 8.094 0.290
57.8759 10.563 0.332
57.8963 12.031 0.354
57.9168 13.198 0.371
57.9373 11.594 0.348
57.9577 9.594 0.316
57.9782 8.094 0.290
57.9987 7.271 0.275
58.0191 7.802 0.285
58.0396 8.208 0.292
58.0600 9.990 0.323
58.0805 8.802 0.303
58.1010 7.573 0.281
58.1214 6.667 0.264
58.1419 5.844 0.247
58.1624 4.948 0.227
58.1828 4.969 0.228
58.2033 4.635 0.220
58.2237 4.427 0.215
58.2442 4.271 0.211
58.2647 4.167 0.208
58.2851 4.021 0.205
58.3056 4.323 0.212
58.3261 4.281 0.211
58.3465 4.135 0.208
58.3670 4.135 0.208
58.3874 3.688 0.196
58.4079 4.302 0.212
58.4284 4.021 0.205
58.4488 4.177 0.209
58.4693 4.229 0.210
58.4898 3.948 0.203
58.5102 4.052 0.205
58.5307 4.146 0.208
58.5512 3.823 0.200
58.5716 4.490 0.216
58.5921 4.396 0.214
58.6125 4.667 0.220
58.6330 3.938 0.203
58.6535 3.906 0.202
58.6739 4.125 0.207
58.6944 3.927 0.202
58.7149 3.990 0.204
58.7353 4.125 0.207
58.7558 4.177 0.209
58.7762 3.813 0.199
58.7967 3.833 0.200
58.8172 4.240 0.210
58.8376 3.927 0.202
58.8581 4.344 0.213
58.8786 4.063 0.206
58.8990 4.083 0.206
58.9195 3.760 0.198
58.9399 3.625 0.194
58.9604 3.833 0.200
58.9809 3.813 0.199
59.0013 3.875 0.201
59.0218 3.938 0.203
59.0423 3.948 0.203
59.0627 4.219 0.210
59.0832 4.104 0.207
59.1036 4.719 0.222
59.1241 5.010 0.228
59.1446 5.260 0.234
59.1650 5.823 0.246
59.1855 7.240 0.275
59.2060 7.500 0.280
59.2264 7.052 0.271
59.2469 6.177 0.254
59.2674 5.490 0.239
59.2878 4.833 0.224
59.3083 5.250 0.234
59.3287 5.750 0.245
59.3492 4.927 0.227
59.3697 5.781 0.245
59.3901 5.500 0.239
59.4106 4.729 0.222
59.4311 3.917 0.202
59.4515 4.021 0.205
59.4720 3.979 0.204
59.4924 3.490 0.191
59.5129 3.938 0.203
59.5334 3.750 0.198
59.5538 3.490 0.191
59.5743 4.010 0.204
59.5948 3.573 0.193
59.6152 3.344 0.187
59.6357 3.573 0.193
59.6561 3.719 0.197
59.6766 3.500 0.191
59.6971 3.677 0.196
59.7175 3.656 0.195
59.7380 3.802 0.199
59.7585 3.552 0.192
59.7789 4.000 0.204
59.7994 4.656 0.220
59.8198 5.125 0.231
59.8403 5.531 0.240
59.8608 6.896 0.268
59.8812 7.385 0.277
59.9017 6.792 0.266
59.9222 5.708 0.244
59.9426 5.552 0.240
59.9631 5.073 0.230
59.9835 4.948 0.227
60.0040 5.531 0.240
60.0245 5.740 0.245
60.0449 5.167 0.232
60.0654 4.781 0.223
60.0859 4.938 0.227
60.1063 4.271 0.211
60.1268 3.771 0.198
60.1473 3.625 0.194
60.1677 3.979 0.204
60.1882 3.406 0.188
60.2086 3.510 0.191
60.2291 3.229 0.183
60.2496 3.292 0.185
60.2700 3.552 0.192
60.2905 3.188 0.182
60.3110 3.500 0.191
60.3314 3.281 0.185
60.3519 3.240 0.184
60.3723 3.188 0.182
60.3928 3.583 0.193
60.4133 2.958 0.176
60.4337 3.188 0.182
60.4542 3.281 0.185
60.4747 3.240 0.184
60.4951 3.052 0.178
60.5156 3.125 0.180
60.5360 3.146 0.181
60.5565 3.302 0.185
60.5770 3.219 0.183
60.5974 3.333 0.186
60.6179 3.510 0.191
60.6384 3.354 0.187
60.6588 3.167 0.182
60.6793 3.500 0.191
60.6997 3.073 0.179
60.7202 3.385 0.188
60.7407 3.240 0.184
60.7611 3.438 0.189
60.7816 3.667 0.195
60.8021 3.250 0.184
60.8225 3.552 0.192
60.8430 3.563 0.193
60.8634 3.688 0.196
60.8839 3.229 0.183
60.9044 3.229 0.183
60.9248 3.448 0.190
60.9453 2.990 0.176
60.9658 3.385 0.188
60.9862 3.302 0.185
61.0067 3.115 0.180
61.0272 3.073 0.179
61.0476 3.458 0.190
61.0681 3.438 0.189
61.0885 3.115 0.180
61.1090 2.979 0.176
61.1295 3.177 0.182
61.1499 2.938 0.175
61.1704 2.729 0.169
61.1909 2.604 0.165
61.2113 2.656 0.166
61.2318 2.781 0.170
61.2522 3.083 0.179
61.2727 2.865 0.173
61.2932 3.229 0.183
61.3136 3.021 0.177
61.3341 3.073 0.179
61.3546 2.969 0.176
61.3750 2.990 0.176
61.3955 2.875 0.173
61.4159 2.813 0.171
61.4364 3.271 0.185
61.4569 3.302 0.185
61.4773 3.021 0.177
61.4978 3.333 0.186
61.5183 3.573 0.193
61.5387 3.271 0.185
61.5592 3.083 0.179
61.5796 3.021 0.177
61.6001 3.000 0.177
61.6206 3.031 0.178
61.6410 3.073 0.179
61.6615 2.969 0.176
61.6820 3.000 0.177
61.7024 3.000 0.177
61.7229 3.146 0.181
61.7433 2.948 0.175
61.7638 2.479 0.161
61.7843 2.771 0.170
61.8047 3.021 0.177
61.8252 2.677 0.167
61.8457 2.708 0.168
61.8661 2.927 0.175
61.8866 3.031 0.178
61.9071 2.969 0.176
61.9275 2.906 0.174
61.9480 3.021 0.177
61.9684 2.833 0.172
61.9889 2.896 0.174
62.0094 3.250 0.184
62.0298 3.052 0.178
62.0503 3.667 0.195
62.0708 3.823 0.200
62.0912 3.979 0.204
62.1117 4.448 0.215
62.1321 5.479 0.239
62.1526 5.729 0.244
62.1731 5.552 0.240
62.1935 5.167 0.232
62.2140 4.490 0.216
62.2345 3.740 0.197
62.2549 3.760 0.198
62.2754 3.906 0.202
62.2958 4.052 0.205
62.3163 4.188 0.209
62.3368 3.813 0.199
62.3572 4.156 0.208
62.3777 3.604 0.194
62.3982 3.281 0.185
62.4186 3.052 0.178
62.4391 3.063 0.179
62.4595 2.875 0.173
62.4800 3.031 0.178
62.5005 2.938 0.175
62.5209 2.854 0.172
62.5414 3.167 0.182
62.5619 3.073 0.179
62.5823 3.021 0.177
62.6028 2.542 0.163
62.6232 2.729 0.169
62.6437 2.958 0.176
62.6642 3.021 0.177
62.6846 2.802 0.171
62.7051 2.594 0.164
62.7256 2.656 0.166
62.7460 2.844 0.172
62.7665 2.708 0.168
62.7870 3.281 0.185
62.8074 3.052 0.178
62.8279 2.917 0.174
62.8483 2.958 0.176
62.8688 2.479 0.161
62.8893 2.750 0.169
62.9097 2.677 0.167
62.9302 2.906 0.174
62.9507 2.677 0.167
62.9711 2.885 0.173
62.9916 2.781 0.170
63.0120 2.552 0.163
63.0325 2.938 0.175
63.0530 2.635 0.166
63.0734 2.906 0.174
63.0939 2.448 0.160
63.1144 2.510 0.162
63.1348 2.531 0.162
63.1553 2.448 0.160
63.1757 2.844 0.172
63.1962 2.594 0.164
63.2167 3.010 0.177
63.2371 2.740 0.169
63.2576 2.781 0.170
63.2781 2.771 0.170
63.2985 2.823 0.171
63.3190 2.615 0.165
63.3394 3.146 0.181
63.3599 2.948 0.175
63.3804 2.573 0.164
63.4008 2.479 0.161
63.4213 2.750 0.169
63.4418 2.698 0.168
63.4622 3.146 0.181
63.4827 2.854 0.172
63.5032 3.156 0.181
63.5236 3.115 0.180
63.5441 2.823 0.171
63.5645 2.802 0.171
63.5850 3.448 0.190
63.6055 3.135 0.181
63.6259 3.646 0.195
63.6464 3.802 0.199
63.6669 3.927 0.202
63.6873 4.167 0.208
63.7078 4.208 0.209
63.7282 4.656 0.220
63.7487 5.167 0.232
63.7692 5.302 0.235
63.7896 5.885 0.248
63.8101 4.958 0.227
63.8306 5.427 0.238
63.8510 4.677 0.221
63.8715 4.750 0.222
63.8919 4.979 0.228
63.9124 4.604 0.219
63.9329 5.021 0.229
63.9533 4.344 0.213
63.9738 4.990 0.228
63.9943 4.990 0.228
64.0147 4.688 0.221
64.0352 4.313 0.212
64.0556 3.917 0.202
64.0761 4.073 0.206
64.0966 3.615 0.194
64.1170 3.427 0.189
64.1375 3.542 0.192
64.1580 3.250 0.184
64.1784 3.302 0.185
64.1989 3.417 0.189
64.2193 3.625 0.194
64.2398 3.479 0.190
64.2603 3.250 0.184
64.2807 3.406 0.188
64.3012 3.354 0.187
64.3217 3.292 0.185
64.3421 3.302 0.185
64.3626 2.781 0.170
64.3831 3.208 0.183
64.4035 3.458 0.190
64.4240 3.677 0.196
64.4444 3.521 0.192
64.4649 3.125 0.180
64.4854 3.667 0.195
64.5058 3.938 0.203
64.5263 4.271 0.211
64.5468 4.271 0.211
64.5672 4.583 0.219
64.5877 5.104 0.231
64.6081 6.688 0.264
64.6286 7.000 0.270
64.6491 7.604 0.281
64.6695 7.885 0.287
64.6900 7.260 0.275
64.7105 6.208 0.254
64.7309 6.188 0.254
64.7514 5.375 0.237
64.7718 5.427 0.238
64.7923 5.490 0.239
64.8128 6.000 0.250
64.8332 5.719 0.244
64.8537 5.219 0.233
64.8742 5.073 0.230
64.8946 4.281 0.211
64.9151 4.396 0.214
64.9355 3.438 0.189
64.9560 3.135 0.181
64.9765 3.469 0.190
64.9969 3.323 0.186
65.0174 3.042 0.178
65.0379 3.083 0.179
65.0583 2.802 0.171
65.0788 3.146 0.181
65.0992 2.948 0.175
65.1197 3.208 0.183
65.1402 2.729 0.169
65.1606 3.146 0.181
65.1811 2.938 0.175
65.2016 2.938 0.175
65.2220 2.844 0.172
65.2425 2.635 0.166
65.2630 2.833 0.172
65.2834 2.625 0.165
65.3039 2.635 0.166
65.3243 2.656 0.166
65.3448 2.667 0.167
65.3653 2.917 0.174
65.3857 2.677 0.167
65.4062 3.083 0.179
65.4267 2.760 0.170
65.4471 3.073 0.179
65.4676 2.990 0.176
65.4880 3.219 0.183
65.5085 3.708 0.197
65.5290 3.573 0.193
65.5494 4.188 0.209
65.5699 4.490 0.216
65.5904 4.385 0.214
65.6108 4.354 0.213
65.6313 4.031 0.205
65.6517 3.469 0.190
65.6722 3.333 0.186
65.6927 3.135 0.181
65.7131 3.667 0.195
65.7336 3.573 0.193
65.7541 3.583 0.193
65.7745 4.042 0.205
65.7950 3.667 0.195
65.8154 3.594 0.193
65.8359 2.948 0.175
65.8564 2.885 0.173
65.8768 2.979 0.176
65.8973 3.292 0.185
65.9178 2.906 0.174
65.9382 2.823 0.171
65.9587 3.031 0.178
65.9791 3.229 0.183
65.9996 3.167 0.182
66.0201 3.083 0.179
66.0405 3.427 0.189
66.0610 3.479 0.190
66.0815 3.771 0.198
66.1019 3.604 0.194
66.1224 3.813 0.199
66.1429 4.302 0.212
66.1633 3.583 0.193
66.1838 3.792 0.199
66.2042 4.042 0.205
66.2247 3.740 0.197
66.2452 3.729 0.197
66.2656 3.813 0.199
66.2861 3.969 0.203
66.3066 3.573 0.193
66.3270 3.458 0.190
66.3475 3.448 0.190
66.3679 3.010 0.177
66.3884 3.260 0.184
66.4089 3.583 0.193
66.4293 3.458 0.190
66.4498 2.958 0.176
66.4703 3.104 0.180
66.4907 2.979 0.176
66.5112 3.010 0.177
66.5316 3.365 0.187
66.5521 3.208 0.183
66.5726 3.615 0.194
66.5930 3.698 0.196
66.6135 3.792 0.199
66.6340 3.594 0.193
66.6544 3.531 0.192
66.6749 3.365 0.187
66.6953 3.656 0.195
66.7158 3.146 0.181
66.7363 3.635 0.195
66.7567 3.542 0.192
66.7772 3.708 0.197
66.7977 3.385 0.188
66.8181 3.052 0.178
66.8386 3.906 0.202
66.8590 3.573 0.193
66.8795 3.510 0.191
66.9000 3.677 0.196
66.9204 3.406 0.188
66.9409 3.594 0.193
66.9614 3.729 0.197
66.9818 3.854 0.200
67.0023 3.865 0.201
67.0228 4.552 0.218
67.0432 4.740 0.222
67.0637 5.375 0.237
67.0841 6.854 0.267
67.1046 8.063 0.290
67.1251 9.219 0.310
67.1455 11.354 0.344
67.1660 10.583 0.332
67.1865 8.917 0.305
67.2069 7.885 0.287
67.2274 6.313 0.256
67.2478 5.750 0.245
67.2683 6.500 0.260
67.2888 6.198 0.254
67.3092 6.854 0.267
67.3297 7.531 0.280
67.3502 7.573 0.281
67.3706 6.771 0.266
67.3911 5.750 0.245
67.4115 5.052 0.229
67.4320 4.177 0.209
67.4525 3.896 0.201
67.4729 4.000 0.204
67.4934 3.594 0.193
67.5139 3.885 0.201
67.5343 3.583 0.193
67.5548 3.698 0.196
67.5752 3.375 0.188
67.5957 3.625 0.194
67.6162 3.302 0.185
67.6366 3.792 0.199
67.6571 3.500 0.191
67.6776 3.646 0.195
67.6980 3.510 0.191
67.7185 3.969 0.203
67.7389 3.865 0.201
67.7594 3.771 0.198
67.7799 3.781 0.198
67.8003 3.833 0.200
67.8208 4.073 0.206
67.8413 3.469 0.190
67.8617 3.365 0.187
67.8822 3.354 0.187
67.9027 3.625 0.194
67.9231 3.365 0.187
67.9436 3.667 0.195
67.9640 3.854 0.200
67.9845 3.583 0.193
68.0050 3.719 0.197
68.0254 3.563 0.193
68.0459 3.635 0.195
68.0664 3.708 0.197
68.0868 3.354 0.187
68.1073 3.729 0.197
68.1277 3.396 0.188
68.1482 3.542 0.192
68.1687 3.427 0.189
68.1891 3.583 0.193
68.2096 3.188 0.182
68.2301 3.250 0.184
68.2505 3.729 0.197
68.2710 4.146 0.208
68.2914 4.406 0.214
68.3119 4.260 0.211
68.3324 4.823 0.224
68.3528 5.031 0.229
68.3733 4.719 0.222
68.3938 4.229 0.210
68.4142 3.813 0.199
68.4347 3.573 0.193
68.4551 3.469 0.190
68.4756 3.365 0.187
68.4961 3.667 0.195
68.5165 3.500 0.191
68.5370 3.688 0.196
68.5575 3.250 0.184
68.5779 3.573 0.193
68.5984 3.052 0.178
68.6189 3.146 0.181
68.6393 3.010 0.177
68.6598 3.125 0.180
68.6802 2.833 0.172
68.7007 3.031 0.178
68.7212 3.010 0.177
68.7416 3.156 0.181
68.7621 3.510 0.191
68.7826 3.208 0.183
68.8030 3.635 0.195
68.8235 3.500 0.191
68.8439 3.708 0.197
68.8644 3.458 0.190
68.8849 3.573 0.193
68.9053 4.313 0.212
68.9258 4.531 0.217
68.9463 4.865 0.225
68.9667 5.521 0.240
68.9872 5.604 0.242
69.0076 6.073 0.252
69.0281 5.156 0.232
69.0486 4.750 0.222
69.0690 4.042 0.205
69.0895 3.854 0.200
69.1100 3.615 0.194
69.1304 4.208 0.209
69.1509 4.365 0.213
69.1713 4.719 0.222
69.1918 4.969 0.228
69.2123 4.875 0.225
69.2327 4.448 0.215
69.2532 4.729 0.222
69.2737 4.042 0.205
69.2941 3.719 0.197
69.3146 3.771 0.198
69.3350 3.052 0.178
69.3555 3.073 0.179
69.3760 3.198 0.183
69.3964 3.208 0.183
69.4169 3.219 0.183
69.4374 3.250 0.184
69.4578 3.323 0.186
69.4783 3.240 0.184
69.4988 2.990 0.176
69.5192 3.063 0.179
69.5397 2.885 0.173
69.5601 2.958 0.176
69.5806 2.802 0.171
69.6011 2.604 0.165
69.6215 2.615 0.165
69.6420 2.760 0.170
69.6625 2.792 0.171
69.6829 2.625 0.165
69.7034 2.510 0.162
69.7238 2.813 0.171
69.7443 2.635 0.166
69.7648 2.750 0.169
69.7852 2.740 0.169
69.8057 2.833 0.172
69.8262 2.646 0.166
69.8466 2.750 0.169
69.8671 2.771 0.170
69.8875 3.073 0.179
69.9080 2.740 0.169
69.9285 2.813 0.171
69.9489 2.573 0.164
69.9694 2.688 0.167
69.9899 3.146 0.181
70.0103 2.385 0.158
70.0308 2.573 0.164
70.0512 2.385 0.158
70.0717 2.990 0.176
70.0922 2.510 0.162
70.1126 2.396 0.158
70.1331 2.750 0.169
70.1536 2.604 0.165
70.1740 2.615 0.165
70.1945 2.927 0.175
70.2149 2.750 0.169
70.2354 2.385 0.158
70.2559 2.333 0.156
70.2763 2.438 0.159
70.2968 2.104 0.148
70.3173 2.688 0.167
70.3377 2.458 0.160
70.3582 2.521 0.162
70.3787 2.563 0.163
70.3991 2.958 0.176
70.4196 2.563 0.163
70.4400 2.760 0.170
70.4605 2.573 0.164
70.4810 3.021 0.177
70.5014 2.958 0.176
70.5219 2.573 0.164
70.5424 2.792 0.171
70.5628 2.688 0.167
70.5833 2.781 0.170
70.6037 2.990 0.176
70.6242 2.875 0.173
70.6447 2.938 0.175
70.6651 2.865 0.173
70.6856 3.063 0.179
70.7061 2.979 0.176
70.7265 3.115 0.180
70.7470 2.427 0.159
70.7674 2.969 0.176
70.7879 2.823 0.171
70.8084 2.469 0.160
70.8288 2.875 0.173
70.8493 2.990 0.176
70.8698 2.823 0.171
70.8902 2.490 0.161
70.9107 2.625 0.165
70.9311 2.854 0.172
70.9516 2.813 0.171
70.9721 2.875 0.173
70.9925 2.625 0.165
71.0130 2.906 0.174
71.0335 2.885 0.173
71.0539 2.979 0.176
71.0744 2.927 0.175
71.0948 3.281 0.185
71.1153 3.052 0.178
71.1358 3.198 0.183
71.1562 2.792 0.171
71.1767 2.781 0.170
71.1972 2.802 0.171
71.2176 2.490 0.161
71.2381 2.635 0.166
71.2586 3.031 0.178
71.2790 2.677 0.167
71.2995 3.063 0.179
71.3199 2.802 0.171
71.3404 2.750 0.169
71.3609 2.552 0.163
71.3813 2.146 0.150
71.4018 2.583 0.164
71.4223 2.792 0.171
71.4427 2.865 0.173
71.4632 2.583 0.164
71.4836 2.604 0.165
71.5041 2.719 0.168
71.5246 2.823 0.171
71.5450 2.719 0.168
71.5655 2.563 0.163
71.5860 2.656 0.166
71.6064 2.521 0.162
71.6269 2.625 0.165
71.6473 2.490 0.161
71.6678 2.688 0.167
71.6883 2.531 0.162
71.7087 2.781 0.170
71.7292 2.656 0.166
71.7497 2.594 0.164
71.7701 2.729 0.169
71.7906 2.448 0.160
71.8110 2.740 0.169
71.8315 2.427 0.159
71.8520 2.573 0.164
71.8724 2.750 0.169
71.8929 2.438 0.159
71.9134 2.354 0.157
71.9338 2.073 0.147
71.9543 2.323 0.156
71.9747 2.313 0.155
71.9952 2.229 0.152
72.0157 2.188 0.151
72.0361 2.125 0.149
72.0566 2.396 0.158
72.0771 2.479 0.161
72.0975 2.292 0.155
72.1180 2.406 0.158
72.1385 2.500 0.161
72.1589 2.542 0.163
72.1794 2.323 0.156
72.1998 2.146 0.150
72.2203 2.250 0.153
72.2408 2.250 0.153
72.2612 1.906 0.141
72.2817 2.365 0.157
72.3022 2.167 0.150
72.3226 2.219 0.152
72.3431 2.333 0.156
72.3635 2.104 0.148
72.3840 2.396 0.158
72.4045 2.219 0.152
72.4249 2.021 0.145
72.4454 1.958 0.143
72.4659 2.302 0.155
72.4863 2.323 0.156
72.5068 1.969 0.143
72.5272 2.396 0.158
72.5477 2.167 0.150
72.5682 2.198 0.151
72.5886 2.260 0.153
72.6091 2.125 0.149
72.6296 2.354 0.157
72.6500 2.323 0.156
72.6705 2.292 0.155
72.6909 2.375 0.157
72.7114 2.396 0.158
72.7319 2.427 0.159
72.7523 2.510 0.162
72.7728 2.760 0.170
72.7933 2.448 0.160
72.8137 2.708 0.168
72.8342 2.990 0.176
72.8547 3.063 0.179
72.8751 2.813 0.171
72.8956 2.760 0.170
72.9160 2.635 0.166
72.9365 2.479 0.161
72.9570 2.125 0.149
72.9774 2.250 0.153
72.9979 2.365 0.157
73.0184 2.427 0.159
73.0388 2.469 0.160
73.0593 2.458 0.160
73.0797 2.500 0.161
73.1002 2.281 0.154
73.1207 2.344 0.156
73.1411 2.292 0.155
73.1616 2.156 0.150
73.1821 2.354 0.157
73.2025 2.042 0.146
73.2230 1.906 0.141
73.2434 2.177 0.151
73.2639 2.073 0.147
73.2844 1.708 0.133
73.3048 1.844 0.139
73.3253 2.073 0.147
73.3458 2.010 0.145
73.3662 2.333 0.156
73.3867 2.479 0.161
73.4071 2.104 0.148
73.4276 2.323 0.156
73.4481 1.938 0.142
73.4685 2.104 0.148
73.4890 2.135 0.149
73.5095 2.385 0.158
73.5299 1.958 0.143
73.5504 2.094 0.148
73.5708 2.010 0.145
73.5913 1.885 0.140
73.6118 2.083 0.147
73.6322 1.958 0.143
73.6527 2.146 0.150
73.6732 2.177 0.151
73.6936 2.115 0.148
73.7141 1.927 0.142
73.7346 2.167 0.150
73.7550 1.927 0.142
73.7755 1.948 0.142
73.7959 1.969 0.143
73.8164 2.292 0.155
73.8369 2.146 0.150
73.8573 2.104 0.148
73.8778 2.063 0.147
73.8983 1.896 0.141
73.9187 1.969 0.143
73.9392 2.375 0.157
73.9596 2.510 0.162
73.9801 2.271 0.154
74.0006 2.177 0.151
74.0210 2.479 0.161
74.0415 2.354 0.157
74.0620 2.875 0.173
74.0824 2.927 0.175
74.1029 2.771 0.170
74.1233 2.250 0.153
74.1438 2.271 0.154
74.1643 2.531 0.162
74.1847 2.208 0.152
74.2052 2.302 0.155
74.2257 1.990 0.144
74.2461 2.240 0.153
74.2666 2.531 0.162
74.2870 2.594 0.164
74.3075 2.344 0.156
74.3280 2.156 0.150
74.3484 2.333 0.156
74.3689 2.438 0.159
74.3894 2.417 0.159
74.4098 2.052 0.146
74.4303 2.271 0.154
74.4507 2.135 0.149
74.4712 2.125 0.149
74.4917 2.073 0.147
74.5121 2.094 0.148
74.5326 1.979 0.144
74.5531 1.927 0.142
74.5735 1.677 0.132
74.5940 1.969 0.143
74.6145 2.198 0.151
74.6349 1.927 0.142
74.6554 2.052 0.146
74.6758 1.833 0.138
74.6963 2.042 0.146
74.7168 2.156 0.150
74.7372 2.073 0.147
74.7577 2.135 0.149
74.7782 2.135 0.149
74.7986 2.125 0.149
74.8191 1.979 0.144
74.8395 2.417 0.159
74.8600 2.146 0.150
74.8805 2.188 0.151
74.9009 2.188 0.151
74.9214 2.010 0.145
74.9419 1.979 0.144
74.9623 2.198 0.151
74.9828 1.844 0.139
75.0032 1.958 0.143
75.0237 2.010 0.145
75.0442 2.146 0.150
75.0646 1.875 0.140
75.0851 2.281 0.154
75.1056 2.052 0.146
75.1260 1.917 0.141
75.1465 1.906 0.141
75.1669 1.927 0.142
75.1874 1.917 0.141
75.2079 1.906 0.141
75.2283 2.031 0.145
75.2488 2.073 0.147
75.2693 2.031 0.145
75.2897 1.771 0.136
75.3102 2.042 0.146
75.3306 2.073 0.147
75.3511 1.865 0.139
75.3716 1.990 0.144
75.3920 2.354 0.157
75.4125 2.042 0.146
75.4330 2.281 0.154
75.4534 2.073 0.147
75.4739 2.125 0.149
75.4944 2.146 0.150
75.5148 2.406 0.158
75.5353 2.031 0.145
75.5557 2.427 0.159
75.5762 2.625 0.165
75.5967 2.333 0.156
75.6171 2.490 0.161
75.6376 2.760 0.170
75.6581 2.646 0.166
75.6785 3.031 0.178
75.6990 3.219 0.183
75.7194 3.917 0.202
75.7399 3.927 0.202
75.7604 3.969 0.203
75.7808 5.021 0.229
75.8013 5.188 0.232
75.8218 5.260 0.234
75.8422 4.323 0.212
75.8627 4.146 0.208
75.8831 3.854 0.200
75.9036 3.406 0.188
75.9241 3.563 0.193
75.9445 3.281 0.185
75.9650 3.635 0.195
75.9855 3.552 0.192
76.0059 4.219 0.210
76.0264 3.865 0.201
76.0468 4.000 0.204
76.0673 3.844 0.200
76.0878 3.313 0.186
76.1082 2.583 0.164
76.1287 2.677 0.167
76.1492 2.583 0.164
76.1696 2.635 0.166
76.1901 2.313 0.155
76.2105 2.604 0.165
76.2310 2.281 0.154
76.2515 2.063 0.147
76.2719 2.406 0.158
76.2924 2.167 0.150
76.3129 2.396 0.158
76.3333 2.177 0.151
76.3538 2.198 0.151
76.3743 2.104 0.148
76.3947 2.708 0.168
76.4152 2.250 0.153
76.4356 2.115 0.148
76.4561 2.615 0.165
76.4766 2.417 0.159
76.4970 2.417 0.159
76.5175 2.375 0.157
76.5380 2.146 0.150
76.5584 2.094 0.148
76.5789 2.271 0.154
76.5993 2.156 0.150
76.6198 2.198 0.151
76.6403 1.781 0.136
76.6607 2.240 0.153
76.6812 2.031 0.145
76.7017 2.125 0.149
76.7221 2.427 0.159
76.7426 1.708 0.133
76.7630 2.365 0.157
76.7835 2.010 0.145
76.8040 2.240 0.153
76.8244 1.792 0.137
76.8449 1.990 0.144
76.8654 1.917 0.141
76.8858 1.844 0.139
76.9063 2.365 0.157
76.9267 2.177 0.151
76.9472 2.250 0.153
76.9677 2.156 0.150
76.9881 1.958 0.143
77.0086 2.250 0.153
77.0291 2.385 0.158
77.0495 1.927 0.142
77.0700 1.865 0.139
77.0905 2.073 0.147
77.1109 2.052 0.146
77.1314 2.156 0.150
77.1518 2.000 0.144
77.1723 2.344 0.156
77.1928 1.958 0.143
77.2132 2.010 0.145
77.2337 2.219 0.152
77.2542 1.906 0.141
77.2746 2.323 0.156
77.2951 2.125 0.149
77.3155 2.271 0.154
77.3360 2.115 0.148
77.3565 2.292 0.155
77.3769 2.469 0.160
77.3974 2.635 0.166
77.4179 2.458 0.160
77.4383 2.719 0.168
77.4588 2.510 0.162
77.4792 2.750 0.169
77.4997 3.010 0.177
77.5202 3.104 0.180
77.5406 3.292 0.185
77.5611 3.125 0.180
77.5816 3.125 0.180
77.6020 2.833 0.172
77.6225 2.604 0.165
77.6429 2.313 0.155
77.6634 2.583 0.164
77.6839 2.823 0.171
77.7043 3.063 0.179
77.7248 2.688 0.167
77.7453 2.854 0.172
77.7657 3.000 0.177
77.7862 3.250 0.184
77.8066 3.031 0.178
77.8271 2.833 0.172
77.8476 2.813 0.171
77.8680 2.667 0.167
77.8885 2.500 0.161
77.9090 2.458 0.160
77.9294 2.719 0.168
77.9499 2.135 0.149
77.9704 2.406 0.158
77.9908 2.240 0.153
78.0113 2.438 0.159
78.0317 2.427 0.159
78.0522 2.208 0.152
78.0727 2.427 0.159
78.0931 2.490 0.161
78.1136 2.667 0.167
78.1341 2.146 0.150
78.1545 2.708 0.168
78.1750 2.281 0.154
78.1954 2.281 0.154
78.2159 2.281 0.154
78.2364 2.031 0.145
78.2568 2.042 0.146
78.2773 2.385 0.158
78.2978 2.625 0.165
78.3182 2.417 0.159
78.3387 2.417 0.159
78.3591 2.281 0.154
78.3796 2.635 0.166
78.4001 2.688 0.167
78.4205 2.688 0.167
78.4410 2.531 0.162
78.4615 2.667 0.167
78.4819 2.375 0.157
78.5024 2.771 0.170
78.5228 2.583 0.164
78.5433 2.854 0.172
78.5638 2.531 0.162
78.5842 2.594 0.164
78.6047 2.698 0.168
78.6252 2.948 0.175
78.6456 2.646 0.166
78.6661 2.656 0.166
78.6865 2.667 0.167
78.7070 2.500 0.161
78.7275 2.448 0.160
78.7479 2.427 0.159
78.7684 2.635 0.166
78.7889 2.833 0.172
78.8093 2.615 0.165
78.8298 2.604 0.165
78.8503 2.760 0.170
78.8707 2.635 0.166
78.8912 2.521 0.162
78.9116 3.219 0.183
78.9321 2.688 0.167
78.9526 2.781 0.170
78.9730 2.875 0.173
78.9935 2.906 0.174
79.0140 2.823 0.171
79.0344 2.781 0.170
79.0549 2.313 0.155
79.0753 2.469 0.160
79.0958 2.563 0.163
79.1163 2.531 0.162
79.1367 2.375 0.157
79.1572 2.271 0.154
79.1777 2.604 0.165
79.1981 2.875 0.173
79.2186 2.469 0.160
79.2390 2.667 0.167
79.2595 2.458 0.160
79.2800 2.573 0.164
79.3004 2.469 0.160
79.3209 2.438 0.159
79.3414 2.490 0.161
79.3618 2.344 0.156
79.3823 2.188 0.151
79.4027 2.344 0.156
79.4232 2.365 0.157
79.4437 2.396 0.158
79.4641 2.594 0.164
79.4846 2.594 0.164
79.5051 2.865 0.173
79.5255 2.438 0.159
79.5460 2.698 0.168
79.5664 3.010 0.177
79.5869 2.917 0.174
79.6074 2.667 0.167
79.6278 2.646 0.166
79.6483 2.563 0.163
79.6688 2.302 0.155
79.6892 1.854 0.139
79.7097 2.323 0.156
79.7302 2.219 0.152
79.7506 2.500 0.161
79.7711 2.396 0.158
79.7915 2.448 0.160
79.8120 2.604 0.165
79.8325 2.229 0.152
79.8529 2.448 0.160
79.8734 2.448 0.160
79.8939 2.198 0.151
79.9143 2.427 0.159
79.9348 2.365 0.157
79.9552 2.375 0.157
79.9757 2.177 0.151
79.9962 2.281 0.154
