'Id: "" Comment: "" Operator: "Lab Manager" Anode: "Cu" Scantype: "Locked Coupled" TimePerStep: "96" X: "0" Y: "0" Z: "0" 
5.0000 25.667 0.517
5.0205 25.365 0.514
5.0409 24.271 0.503
5.0614 25.167 0.512
5.0819 25.010 0.510
5.1023 25.969 0.520
5.1228 24.552 0.506
5.1432 24.698 0.507
5.1637 24.573 0.506
5.1842 24.948 0.510
5.2046 24.563 0.506
5.2251 25.135 0.512
5.2456 24.594 0.506
5.2660 24.385 0.504
5.2865 24.573 0.506
5.3069 24.365 0.504
5.3274 24.219 0.502
5.3479 23.990 0.500
5.3683 24.885 0.509
5.3888 24.760 0.508
5.4093 25.208 0.512
5.4297 24.531 0.506
5.4502 23.385 0.494
5.4706 24.406 0.504
5.4911 24.031 0.500
5.5116 24.583 0.506
5.5320 24.260 0.503
5.5525 23.781 0.498
5.5730 23.323 0.493
5.5934 24.094 0.501
5.6139 23.917 0.499
5.6343 24.615 0.506
5.6548 23.302 0.493
5.6753 22.875 0.488
5.6957 24.188 0.502
5.7162 23.427 0.494
5.7367 23.354 0.493
5.7571 23.510 0.495
5.7776 22.865 0.488
5.7980 23.635 0.496
5.8185 23.125 0.491
5.8390 23.896 0.499
5.8594 22.417 0.483
5.8799 23.292 0.493
5.9004 23.615 0.496
5.9208 23.115 0.491
5.9413 22.240 0.481
5.9618 22.510 0.484
5.9822 23.094 0.490
6.0027 23.021 0.490
6.0231 22.771 0.487
6.0436 22.760 0.487
6.0641 22.146 0.480
6.0845 22.125 0.480
6.1050 22.333 0.482
6.1255 22.188 0.481
6.1459 23.521 0.495
6.1664 23.219 0.492
6.1868 22.927 0.489
6.2073 22.292 0.482
6.2278 22.135 0.480
6.2482 22.896 0.488
6.2687 22.406 0.483
6.2892 21.625 0.475
6.3096 23.094 0.490
6.3301 22.167 0.481
6.3505 22.208 0.481
6.3710 22.333 0.482
6.3915 22.198 0.481
6.4119 22.313 0.482
6.4324 22.250 0.481
6.4529 22.688 0.486
6.4733 22.719 0.486
6.4938 22.542 0.485
6.5142 22.521 0.484
6.5347 22.083 0.480
6.5552 21.781 0.476
6.5756 21.771 0.476
6.5961 23.333 0.493
6.6166 21.458 0.473
6.6370 21.781 0.476
6.6575 21.813 0.477
6.6779 21.177 0.470
6.6984 21.688 0.475
6.7189 21.979 0.478
6.7393 21.313 0.471
6.7598 21.646 0.475
6.7803 21.615 0.475
6.8007 21.438 0.473
6.8212 23.365 0.493
6.8417 22.552 0.485
6.8621 21.260 0.471
6.8826 21.740 0.476
6.9030 22.802 0.487
6.9235 21.469 0.473
6.9440 21.677 0.475
6.9644 21.635 0.475
6.9849 22.167 0.481
7.0054 21.490 0.473
7.0258 21.865 0.477
7.0463 22.000 0.479
7.0667 21.563 0.474
7.0872 21.385 0.472
7.1077 21.635 0.475
7.1281 21.958 0.478
7.1486 21.635 0.475
7.1691 22.125 0.480
7.1895 21.448 0.473
7.2100 22.417 0.483
7.2304 21.792 0.476
7.2509 22.115 0.480
7.2714 21.719 0.476
7.2918 22.531 0.484
7.3123 22.531 0.484
7.3328 22.969 0.489
7.3532 21.521 0.473
7.3737 22.083 0.480
7.3941 21.896 0.478
7.4146 22.313 0.482
7.4351 22.760 0.487
7.4555 22.365 0.483
7.4760 22.313 0.482
7.4965 22.396 0.483
7.5169 22.354 0.483
7.5374 22.198 0.481
7.5579 22.406 0.483
7.5783 21.927 0.478
7.5988 22.969 0.489
7.6192 22.927 0.489
7.6397 22.021 0.479
7.6602 21.844 0.477
7.6806 22.625 0.485
7.7011 21.958 0.478
7.7216 22.135 0.480
7.7420 23.521 0.495
7.7625 22.313 0.482
7.7829 22.313 0.482
7.8034 22.875 0.488
7.8239 22.469 0.484
7.8443 21.885 0.477
7.8648 22.469 0.484
7.8853 22.781 0.487
7.9057 22.625 0.485
7.9262 22.208 0.481
7.9466 22.823 0.488
7.9671 22.250 0.481
7.9876 23.167 0.491
8.0080 22.948 0.489
8.0285 22.198 0.481
8.0490 22.844 0.488
8.0694 23.490 0.495
8.0899 22.635 0.486
8.1103 22.167 0.481
8.1308 22.719 0.486
8.1513 22.125 0.480
8.1717 22.292 0.482
8.1922 23.104 0.491
8.2127 22.406 0.483
8.2331 22.396 0.483
8.2536 21.448 0.473
8.2740 22.583 0.485
8.2945 22.198 0.481
8.3150 22.490 0.484
8.3354 22.698 0.486
8.3559 22.875 0.488
8.3764 22.958 0.489
8.3968 22.271 0.482
8.4173 23.052 0.490
8.4378 21.948 0.478
8.4582 22.552 0.485
8.4787 23.458 0.494
8.4991 22.292 0.482
8.5196 22.458 0.484
8.5401 23.250 0.492
8.5605 23.063 0.490
8.5810 23.302 0.493
8.6015 23.156 0.491
8.6219 22.875 0.488
8.6424 22.135 0.480
8.6628 22.719 0.486
8.6833 22.906 0.488
8.7038 22.438 0.483
8.7242 23.635 0.496
8.7447 22.635 0.486
8.7652 23.188 0.491
8.7856 23.208 0.492
8.8061 23.885 0.499
8.8265 24.031 0.500
8.8470 23.594 0.496
8.8675 24.365 0.504
8.8879 23.635 0.496
8.9084 24.375 0.504
8.9289 24.438 0.505
8.9493 23.875 0.499
8.9698 24.771 0.508
8.9902 24.781 0.508
9.0107 23.729 0.497
9.0312 24.344 0.504
9.0516 25.656 0.517
9.0721 25.458 0.515
9.0926 25.760 0.518
9.1130 26.271 0.523
9.1335 26.198 0.522
9.1539 26.823 0.529
9.1744 27.885 0.539
9.1949 28.313 0.543
9.2153 28.375 0.544
9.2358 29.052 0.550
9.2563 31.094 0.569
9.2767 30.781 0.566
9.2972 31.406 0.572
9.3177 32.500 0.582
9.3381 31.740 0.575
9.3586 31.625 0.574
9.3790 32.583 0.583
9.3995 31.938 0.577
9.4200 32.708 0.584
9.4404 33.458 0.590
9.4609 34.927 0.603
9.4814 34.302 0.598
9.5018 34.229 0.597
9.5223 36.781 0.619
9.5427 37.229 0.623
9.5632 39.927 0.645
9.5837 42.042 0.662
9.6041 42.479 0.665
9.6246 46.167 0.693
9.6451 47.417 0.703
9.6655 49.885 0.721
9.6860 52.021 0.736
9.7064 58.406 0.780
9.7269 64.302 0.818
9.7474 75.240 0.885
9.7678 90.458 0.971
9.7883 111.563 1.078
9.8088 144.990 1.229
9.8292 188.135 1.400
9.8497 243.875 1.594
9.8701 295.250 1.754
9.8906 317.229 1.818
9.9111 267.615 1.670
9.9315 195.698 1.428
9.9520 140.417 1.209
9.9725 109.010 1.066
9.9929 91.573 0.977
10.0134 80.719 0.917
10.0338 71.656 0.864
10.0543 66.958 0.835
10.0748 61.458 0.800
10.0952 58.500 0.781
10.1157 54.031 0.750
10.1362 51.500 0.732
10.1566 49.688 0.719
10.1771 46.865 0.699
10.1976 44.219 0.679
10.2180 43.198 0.671
10.2385 40.240 0.647
10.2589 39.979 0.645
10.2794 40.292 0.648
10.2999 37.156 0.622
10.3203 37.625 0.626
10.3408 36.771 0.619
10.3613 36.781 0.619
10.3817 35.125 0.605
10.4022 34.250 0.597
10.4226 34.469 0.599
10.4431 33.344 0.589
10.4636 32.896 0.585
10.4840 33.219 0.588
10.5045 32.563 0.582
10.5250 31.896 0.576
10.5454 31.688 0.575
10.5659 31.635 0.574
10.5863 30.260 0.561
10.6068 29.792 0.557
10.6273 29.865 0.558
10.6477 29.469 0.554
10.6682 29.604 0.555
10.6887 29.208 0.552
10.7091 28.417 0.544
10.7296 28.146 0.541
10.7500 28.063 0.541
10.7705 26.490 0.525
10.7910 25.625 0.517
10.8114 25.771 0.518
10.8319 25.458 0.515
10.8524 24.813 0.508
10.8728 23.240 0.492
10.8933 23.573 0.496
10.9137 23.010 0.490
10.9342 22.813 0.487
10.9547 22.729 0.487
10.9751 21.625 0.475
10.9956 22.333 0.482
11.0161 22.104 0.480
11.0365 21.063 0.468
11.0570 21.510 0.473
11.0775 21.177 0.470
11.0979 20.865 0.466
11.1184 21.188 0.470
11.1388 20.844 0.466
11.1593 20.229 0.459
11.1798 20.323 0.460
11.2002 21.198 0.470
11.2207 20.563 0.463
11.2412 19.323 0.449
11.2616 20.354 0.460
11.2821 20.177 0.458
11.3025 19.260 0.448
11.3230 19.198 0.447
11.3435 20.771 0.465
11.3639 19.240 0.448
11.3844 19.865 0.455
11.4049 19.906 0.455
11.4253 19.385 0.449
11.4458 18.854 0.443
11.4662 18.917 0.444
11.4867 18.510 0.439
11.5072 19.323 0.449
11.5276 19.094 0.446
11.5481 18.146 0.435
11.5686 18.615 0.440
11.5890 18.365 0.437
11.6095 18.667 0.441
11.6299 17.917 0.432
11.6504 17.969 0.433
11.6709 18.854 0.443
11.6913 18.948 0.444
11.7118 18.177 0.435
11.7323 18.490 0.439
11.7527 18.833 0.443
11.7732 18.771 0.442
11.7937 17.979 0.433
11.8141 17.844 0.431
11.8346 18.365 0.437
11.8550 18.573 0.440
11.8755 17.042 0.421
11.8960 17.854 0.431
11.9164 17.354 0.425
11.9369 18.240 0.436
11.9574 17.635 0.429
11.9778 17.104 0.422
11.9983 17.146 0.423
12.0187 17.198 0.423
12.0392 17.458 0.426
12.0597 17.542 0.427
12.0801 17.313 0.425
12.1006 17.229 0.424
12.1211 17.198 0.423
12.1415 17.188 0.423
12.1620 17.229 0.424
12.1824 16.802 0.418
12.2029 17.094 0.422
12.2234 16.667 0.417
12.2438 16.563 0.415
12.2643 16.563 0.415
12.2848 16.479 0.414
12.3052 16.969 0.420
12.3257 15.656 0.404
12.3461 16.583 0.416
12.3666 16.677 0.417
12.3871 15.615 0.403
12.4075 16.573 0.415
12.4280 16.573 0.415
12.4485 16.365 0.413
12.4689 15.990 0.408
12.4894 15.385 0.400
12.5098 15.948 0.408
12.5303 15.938 0.407
12.5508 15.438 0.401
12.5712 15.375 0.400
12.5917 15.865 0.407
12.6122 15.688 0.404
12.6326 15.125 0.397
12.6531 15.333 0.400
12.6736 14.938 0.394
12.6940 14.490 0.389
12.7145 15.052 0.396
12.7349 15.135 0.397
12.7554 15.302 0.399
12.7759 15.510 0.402
12.7963 15.479 0.402
12.8168 15.594 0.403
12.8373 14.948 0.395
12.8577 15.656 0.404
12.8782 14.719 0.392
12.8986 15.146 0.397
12.9191 14.604 0.390
12.9396 14.813 0.393
12.9600 14.813 0.393
12.9805 14.260 0.385
13.0010 14.646 0.391
13.0214 14.531 0.389
13.0419 15.438 0.401
13.0623 14.729 0.392
13.0828 14.948 0.395
13.1033 14.813 0.393
13.1237 14.052 0.383
13.1442 14.063 0.383
13.1647 13.865 0.380
13.1851 13.531 0.375
13.2056 14.906 0.394
13.2260 12.948 0.367
13.2465 13.458 0.374
13.2670 14.104 0.383
13.2874 14.417 0.388
13.3079 14.135 0.384
13.3284 14.219 0.385
13.3488 14.333 0.386
13.3693 14.604 0.390
13.3897 13.896 0.380
13.4102 14.094 0.383
13.4307 13.990 0.382
13.4511 13.521 0.375
13.4716 14.271 0.386
13.4921 13.719 0.378
13.5125 13.344 0.373
13.5330 14.385 0.387
13.5535 14.063 0.383
13.5739 14.427 0.388
13.5944 13.990 0.382
13.6148 13.281 0.372
13.6353 13.510 0.375
13.6558 13.552 0.376
13.6762 13.354 0.373
13.6967 12.438 0.360
13.7172 13.844 0.380
13.7376 13.625 0.377
13.7581 13.167 0.370
13.7785 12.406 0.359
13.7990 13.219 0.371
13.8195 13.198 0.371
13.8399 13.365 0.373
13.8604 13.188 0.371
13.8809 12.542 0.361
13.9013 12.969 0.368
13.9218 12.948 0.367
13.9422 13.344 0.373
13.9627 12.865 0.366
13.9832 12.938 0.367
14.0036 12.938 0.367
14.0241 12.094 0.355
14.0446 12.990 0.368
14.0650 12.885 0.366
14.0855 12.938 0.367
14.1059 12.594 0.362
14.1264 12.490 0.361
14.1469 12.865 0.366
14.1673 12.656 0.363
14.1878 12.542 0.361
14.2083 12.042 0.354
14.2287 12.448 0.360
14.2492 13.063 0.369
14.2696 11.854 0.351
14.2901 12.656 0.363
14.3106 12.406 0.359
14.3310 13.125 0.370
14.3515 11.750 0.350
14.3720 12.083 0.355
14.3924 12.240 0.357
14.4129 12.375 0.359
14.4334 12.115 0.355
14.4538 12.510 0.361
14.4743 12.146 0.356
14.4947 12.594 0.362
14.5152 12.490 0.361
14.5357 11.719 0.349
14.5561 12.250 0.357
14.5766 12.010 0.354
14.5971 12.469 0.360
14.6175 11.677 0.349
14.6380 12.500 0.361
14.6584 12.281 0.358
14.6789 11.990 0.353
14.6994 11.917 0.352
14.7198 12.208 0.357
14.7403 12.010 0.354
14.7608 12.156 0.356
14.7812 12.594 0.362
14.8017 12.354 0.359
14.8221 11.438 0.345
14.8426 12.177 0.356
14.8631 11.552 0.347
14.8835 11.438 0.345
14.9040 11.365 0.344
14.9245 11.771 0.350
14.9449 11.667 0.349
14.9654 11.948 0.353
14.9858 11.698 0.349
15.0063 11.802 0.351
15.0268 11.552 0.347
15.0472 11.771 0.350
15.0677 11.823 0.351
15.0882 11.479 0.346
15.1086 11.313 0.343
15.1291 11.500 0.346
15.1495 12.177 0.356
15.1700 10.917 0.337
15.1905 11.604 0.348
15.2109 11.031 0.339
15.2314 11.823 0.351
15.2519 11.719 0.349
15.2723 11.427 0.345
15.2928 11.667 0.349
15.3133 11.469 0.346
15.3337 11.771 0.350
15.3542 11.313 0.343
15.3746 11.104 0.340
15.3951 11.573 0.347
15.4156 11.188 0.341
15.4360 11.708 0.349
15.4565 11.729 0.350
15.4770 11.688 0.349
15.4974 10.969 0.338
15.5179 11.198 0.342
15.5383 10.979 0.338
15.5588 10.865 0.336
15.5793 11.448 0.345
15.5997 11.208 0.342
15.6202 11.417 0.345
15.6407 11.042 0.339
15.6611 11.365 0.344
15.6816 11.417 0.345
15.7020 11.042 0.339
15.7225 11.115 0.340
15.7430 11.656 0.348
15.7634 11.188 0.341
15.7839 10.667 0.333
15.8044 11.698 0.349
15.8248 11.615 0.348
15.8453 11.219 0.342
15.8657 11.010 0.339
15.8862 10.979 0.338
15.9067 10.594 0.332
15.9271 10.917 0.337
15.9476 11.656 0.348
15.9681 10.875 0.337
15.9885 11.667 0.349
16.0090 11.073 0.340
16.0295 12.031 0.354
16.0499 11.000 0.339
16.0704 10.771 0.335
16.0908 11.260 0.342
16.1113 10.656 0.333
16.1318 10.604 0.332
16.1522 11.302 0.343
16.1727 10.813 0.336
16.1932 10.896 0.337
16.2136 10.719 0.334
16.2341 10.573 0.332
16.2545 10.938 0.338
16.2750 11.208 0.342
16.2955 10.469 0.330
16.3159 10.313 0.328
16.3364 11.427 0.345
16.3569 11.240 0.342
16.3773 10.354 0.328
16.3978 10.979 0.338
16.4182 11.167 0.341
16.4387 10.667 0.333
16.4592 11.469 0.346
16.4796 10.563 0.332
16.5001 10.813 0.336
16.5206 10.688 0.334
16.5410 10.417 0.329
16.5615 11.594 0.348
16.5819 11.563 0.347
16.6024 10.323 0.328
16.6229 10.760 0.335
16.6433 11.000 0.339
16.6638 10.813 0.336
16.6843 10.917 0.337
16.7047 10.792 0.335
16.7252 11.052 0.339
16.7456 10.688 0.334
16.7661 11.760 0.350
16.7866 11.740 0.350
16.8070 11.010 0.339
16.8275 11.021 0.339
16.8480 11.083 0.340
16.8684 11.417 0.345
16.8889 11.063 0.339
16.9094 11.292 0.343
16.9298 11.167 0.341
16.9503 11.167 0.341
16.9707 10.781 0.335
16.9912 11.208 0.342
17.0117 11.219 0.342
17.0321 10.885 0.337
17.0526 11.781 0.350
17.0731 11.323 0.343
17.0935 11.250 0.342
17.1140 11.438 0.345
17.1344 11.885 0.352
17.1549 11.708 0.349
17.1754 11.042 0.339
17.1958 11.688 0.349
17.2163 11.646 0.348
17.2368 11.865 0.352
17.2572 12.094 0.355
17.2777 11.740 0.350
17.2981 11.625 0.348
17.3186 12.740 0.364
17.3391 11.958 0.353
17.3595 11.927 0.352
17.3800 12.281 0.358
17.4005 12.344 0.359
17.4209 13.115 0.370
17.4414 12.375 0.359
17.4618 12.146 0.356
17.4823 12.885 0.366
17.5028 12.781 0.365
17.5232 12.219 0.357
17.5437 13.167 0.370
17.5642 12.896 0.367
17.5846 12.792 0.365
17.6051 13.542 0.376
17.6255 13.979 0.382
17.6460 14.521 0.389
17.6665 15.167 0.397
17.6869 14.302 0.386
17.7074 14.417 0.388
17.7279 14.958 0.395
17.7483 14.927 0.394
17.7688 15.969 0.408
17.7893 16.406 0.413
17.8097 16.823 0.419
17.8302 16.302 0.412
17.8506 16.438 0.414
17.8711 16.802 0.418
17.8916 17.260 0.424
17.9120 17.646 0.429
17.9325 18.490 0.439
17.9530 17.479 0.427
17.9734 19.250 0.448
17.9939 20.198 0.459
18.0143 20.688 0.464
18.0348 21.979 0.478
18.0553 23.927 0.499
18.0757 22.729 0.487
18.0962 22.208 0.481
18.1167 21.438 0.473
18.1371 20.323 0.460
18.1576 20.552 0.463
18.1780 19.906 0.455
18.1985 20.615 0.463
18.2190 19.688 0.453
18.2394 21.542 0.474
18.2599 20.688 0.464
18.2804 21.042 0.468
18.3008 20.729 0.465
18.3213 21.406 0.472
18.3417 20.708 0.464
18.3622 21.563 0.474
18.3827 21.552 0.474
18.4031 21.594 0.474
18.4236 21.417 0.472
18.4441 21.458 0.473
18.4645 21.688 0.475
18.4850 21.292 0.471
18.5054 20.938 0.467
18.5259 22.073 0.480
18.5464 22.271 0.482
18.5668 22.146 0.480
18.5873 22.167 0.481
18.6078 21.323 0.471
18.6282 21.917 0.478
18.6487 22.417 0.483
18.6692 22.458 0.484
18.6896 21.750 0.476
18.7101 21.396 0.472
18.7305 22.010 0.479
18.7510 21.438 0.473
18.7715 21.313 0.471
18.7919 21.125 0.469
18.8124 20.344 0.460
18.8329 20.333 0.460
18.8533 19.073 0.446
18.8738 19.156 0.447
18.8942 18.688 0.441
18.9147 17.927 0.432
18.9352 17.594 0.428
18.9556 16.875 0.419
18.9761 16.188 0.411
18.9966 16.813 0.418
19.0170 16.542 0.415
19.0375 16.042 0.409
19.0579 16.073 0.409
19.0784 15.625 0.403
19.0989 15.479 0.402
19.1193 15.885 0.407
19.1398 15.573 0.403
19.1603 15.104 0.397
19.1807 15.448 0.401
19.2012 15.552 0.402
19.2216 14.833 0.393
19.2421 14.823 0.393
19.2626 14.667 0.391
19.2830 15.125 0.397
19.3035 14.885 0.394
19.3240 14.510 0.389
19.3444 15.010 0.395
19.3649 14.979 0.395
19.3853 14.917 0.394
19.4058 14.240 0.385
19.4263 15.281 0.399
19.4467 15.042 0.396
19.4672 15.688 0.404
19.4877 15.802 0.406
19.5081 15.844 0.406
19.5286 15.500 0.402
19.5491 16.271 0.412
19.5695 17.333 0.425
19.5900 17.010 0.421
19.6104 17.490 0.427
19.6309 18.031 0.433
19.6514 19.510 0.451
19.6718 19.250 0.448
19.6923 21.094 0.469
19.7128 24.688 0.507
19.7332 28.354 0.543
19.7537 33.240 0.588
19.7741 41.698 0.659
19.7946 54.500 0.753
19.8151 70.740 0.858
19.8355 80.479 0.916
19.8560 78.271 0.903
19.8765 66.552 0.833
19.8969 58.760 0.782
19.9174 46.615 0.697
19.9378 37.260 0.623
19.9583 32.635 0.583
19.9788 30.542 0.564
19.9992 26.948 0.530
20.0197 25.292 0.513
20.0402 24.958 0.510
20.0606 22.813 0.487
20.0811 22.927 0.489
20.1015 22.396 0.483
20.1220 22.302 0.482
20.1425 22.729 0.487
20.1629 22.458 0.484
20.1834 22.792 0.487
20.2039 22.938 0.489
20.2243 24.063 0.501
20.2448 22.927 0.489
20.2653 23.698 0.497
20.2857 24.052 0.501
20.3062 24.802 0.508
20.3266 24.896 0.509
20.3471 24.198 0.502
20.3676 24.448 0.505
20.3880 24.792 0.508
20.4085 23.844 0.498
20.4290 23.677 0.497
20.4494 23.958 0.500
20.4699 24.063 0.501
20.4903 22.906 0.488
20.5108 21.729 0.476
20.5313 21.458 0.473
20.5517 21.365 0.472
20.5722 20.052 0.457
20.5927 19.458 0.450
20.6131 18.760 0.442
20.6336 18.240 0.436
20.6540 17.969 0.433
20.6745 18.052 0.434
20.6950 17.396 0.426
20.7154 16.865 0.419
20.7359 16.552 0.415
20.7564 15.719 0.405
20.7768 14.885 0.394
20.7973 15.292 0.399
20.8177 14.948 0.395
20.8382 15.125 0.397
20.8587 13.979 0.382
20.8791 14.396 0.387
20.8996 14.500 0.389
20.9201 13.375 0.373
20.9405 13.896 0.380
20.9610 12.750 0.364
20.9814 13.698 0.378
21.0019 13.875 0.380
21.0224 13.406 0.374
21.0428 13.615 0.377
21.0633 13.792 0.379
21.0838 13.365 0.373
21.1042 13.646 0.377
21.1247 13.583 0.376
21.1452 13.302 0.372
21.1656 13.438 0.374
21.1861 13.354 0.373
21.2065 12.229 0.357
21.2270 12.313 0.358
21.2475 12.979 0.368
21.2679 12.990 0.368
21.2884 13.229 0.371
21.3089 13.396 0.374
21.3293 13.396 0.374
21.3498 12.760 0.365
21.3702 13.188 0.371
21.3907 13.333 0.373
21.4112 12.688 0.364
21.4316 13.146 0.370
21.4521 12.906 0.367
21.4726 12.813 0.365
21.4930 12.563 0.362
21.5135 13.333 0.373
21.5339 13.313 0.372
21.5544 13.292 0.372
21.5749 12.604 0.362
21.5953 12.563 0.362
21.6158 12.385 0.359
21.6363 13.615 0.377
21.6567 12.438 0.360
21.6772 13.344 0.373
21.6976 12.594 0.362
21.7181 12.990 0.368
21.7386 12.823 0.365
21.7590 12.969 0.368
21.7795 12.896 0.367
21.8000 13.302 0.372
21.8204 12.688 0.364
21.8409 12.969 0.368
21.8613 13.021 0.368
21.8818 13.333 0.373
21.9023 13.760 0.379
21.9227 13.250 0.372
21.9432 14.427 0.388
21.9637 13.813 0.379
21.9841 14.938 0.394
22.0046 16.198 0.411
22.0251 16.354 0.413
22.0455 17.604 0.428
22.0660 19.146 0.447
22.0864 22.240 0.481
22.1069 27.313 0.533
22.1274 32.063 0.578
22.1478 39.646 0.643
22.1683 46.604 0.697
22.1888 45.688 0.690
22.2092 42.406 0.665
22.2297 36.719 0.618
22.2501 30.438 0.563
22.2706 24.917 0.509
22.2911 21.292 0.471
22.3115 18.375 0.438
22.3320 17.531 0.427
22.3525 16.552 0.415
22.3729 15.719 0.405
22.3934 14.125 0.384
22.4138 13.792 0.379
22.4343 13.677 0.377
22.4548 13.344 0.373
22.4752 12.917 0.367
22.4957 12.021 0.354
22.5162 11.771 0.350
22.5366 11.896 0.352
22.5571 11.865 0.352
22.5775 11.083 0.340
22.5980 11.385 0.344
22.6185 10.969 0.338
22.6389 11.073 0.340
22.6594 10.615 0.333
22.6799 10.646 0.333
22.7003 10.510 0.331
22.7208 11.094 0.340
22.7412 10.708 0.334
22.7617 10.656 0.333
22.7822 11.063 0.339
22.8026 10.656 0.333
22.8231 10.500 0.331
22.8436 10.208 0.326
22.8640 10.406 0.329
22.8845 9.833 0.320
22.9050 10.198 0.326
22.9254 9.677 0.317
22.9459 10.094 0.324
22.9663 9.802 0.320
22.9868 9.854 0.320
23.0073 9.906 0.321
23.0277 9.167 0.309
23.0482 10.000 0.323
23.0687 9.698 0.318
23.0891 10.552 0.332
23.1096 9.521 0.315
23.1300 9.760 0.319
23.1505 9.917 0.321
23.1710 9.594 0.316
23.1914 9.500 0.315
23.2119 9.635 0.317
23.2324 9.250 0.310
23.2528 10.188 0.326
23.2733 9.917 0.321
23.2937 9.792 0.319
23.3142 9.729 0.318
23.3347 9.563 0.316
23.3551 10.063 0.324
23.3756 9.969 0.322
23.3961 9.917 0.321
23.4165 10.146 0.325
23.4370 10.063 0.324
23.4574 9.625 0.317
23.4779 10.396 0.329
23.4984 9.917 0.321
23.5188 10.208 0.326
23.5393 11.052 0.339
23.5598 11.563 0.347
23.5802 12.063 0.354
23.6007 13.240 0.371
23.6211 15.167 0.397
23.6416 15.656 0.404
23.6621 16.208 0.411
23.6825 15.427 0.401
23.7030 15.208 0.398
23.7235 13.688 0.378
23.7439 13.469 0.375
23.7644 11.656 0.348
23.7849 10.854 0.336
23.8053 10.698 0.334
23.8258 10.260 0.327
23.8462 9.813 0.320
23.8667 9.760 0.319
23.8872 9.740 0.319
23.9076 9.625 0.317
23.9281 8.958 0.305
23.9486 9.177 0.309
23.9690 9.521 0.315
23.9895 9.010 0.306
24.0099 9.219 0.310
24.0304 9.031 0.307
24.0509 9.135 0.308
24.0713 9.365 0.312
24.0918 8.542 0.298
24.1123 9.417 0.313
24.1327 8.854 0.304
24.1532 9.677 0.317
24.1736 9.760 0.319
24.1941 10.271 0.327
24.2146 9.677 0.317
24.2350 9.844 0.320
24.2555 10.479 0.330
24.2760 11.073 0.340
24.2964 12.063 0.354
24.3169 11.802 0.351
24.3373 11.885 0.352
24.3578 11.375 0.344
24.3783 10.750 0.335
24.3987 10.510 0.331
24.4192 9.875 0.321
24.4397 10.271 0.327
24.4601 9.000 0.306
24.4806 9.469 0.314
24.5011 8.781 0.302
24.5215 8.604 0.299
24.5420 8.531 0.298
24.5624 9.052 0.307
24.5829 8.740 0.302
24.6034 8.521 0.298
24.6238 8.667 0.300
24.6443 8.344 0.295
24.6648 8.406 0.296
24.6852 8.885 0.304
24.7057 8.281 0.294
24.7261 8.573 0.299
24.7466 8.365 0.295
24.7671 8.073 0.290
24.7875 8.865 0.304
24.8080 8.281 0.294
24.8285 8.406 0.296
24.8489 8.896 0.304
24.8694 8.833 0.303
24.8898 9.104 0.308
24.9103 8.583 0.299
24.9308 8.344 0.295
24.9512 8.625 0.300
24.9717 8.969 0.306
24.9922 8.552 0.298
25.0126 8.448 0.297
25.0331 8.771 0.302
25.0535 8.438 0.296
25.0740 8.344 0.295
25.0945 8.188 0.292
25.1149 9.344 0.312
25.1354 7.833 0.286
25.1559 8.385 0.296
25.1763 8.708 0.301
25.1968 8.667 0.300
25.2172 8.365 0.295
25.2377 8.750 0.302
25.2582 8.000 0.289
25.2786 8.313 0.294
25.2991 8.219 0.293
25.3196 8.729 0.302
25.3400 7.896 0.287
25.3605 8.292 0.294
25.3810 8.531 0.298
25.4014 8.771 0.302
25.4219 7.688 0.283
25.4423 8.094 0.290
25.4628 7.677 0.283
25.4833 8.146 0.291
25.5037 8.573 0.299
25.5242 8.115 0.291
25.5447 8.521 0.298
25.5651 8.250 0.293
25.5856 8.813 0.303
25.6060 8.146 0.291
25.6265 8.344 0.295
25.6470 7.833 0.286
25.6674 8.698 0.301
25.6879 8.792 0.303
25.7084 8.531 0.298
25.7288 8.021 0.289
25.7493 7.781 0.285
25.7697 8.292 0.294
25.7902 7.833 0.286
25.8107 8.406 0.296
25.8311 8.917 0.305
25.8516 8.354 0.295
25.8721 8.188 0.292
25.8925 8.615 0.300
25.9130 8.375 0.295
25.9334 8.031 0.289
25.9539 8.115 0.291
25.9744 8.667 0.300
25.9948 8.469 0.297
26.0153 8.833 0.303
26.0358 8.302 0.294
26.0562 7.885 0.287
26.0767 8.844 0.304
26.0971 7.792 0.285
26.1176 8.417 0.296
26.1381 8.760 0.302
26.1585 8.604 0.299
26.1790 8.260 0.293
26.1995 8.760 0.302
26.2199 9.115 0.308
26.2404 9.021 0.307
26.2609 8.042 0.289
26.2813 8.958 0.305
26.3018 9.031 0.307
26.3222 7.906 0.287
26.3427 8.604 0.299
26.3632 8.948 0.305
26.3836 8.667 0.300
26.4041 8.802 0.303
26.4246 9.188 0.309
26.4450 8.552 0.298
26.4655 9.031 0.307
26.4859 8.458 0.297
26.5064 8.250 0.293
26.5269 9.021 0.307
26.5473 8.854 0.304
26.5678 8.313 0.294
26.5883 8.292 0.294
26.6087 8.500 0.298
26.6292 8.521 0.298
26.6496 8.417 0.296
26.6701 8.729 0.302
26.6906 8.583 0.299
26.7110 8.573 0.299
26.7315 8.740 0.302
26.7520 7.990 0.288
26.7724 8.063 0.290
26.7929 8.771 0.302
26.8133 8.854 0.304
26.8338 8.260 0.293
26.8543 8.500 0.298
26.8747 8.969 0.306
26.8952 8.531 0.298
26.9157 8.469 0.297
26.9361 8.365 0.295
26.9566 8.281 0.294
26.9770 8.542 0.298
26.9975 8.438 0.296
27.0180 9.063 0.307
27.0384 9.177 0.309
27.0589 8.177 0.292
27.0794 8.125 0.291
27.0998 8.760 0.302
27.1203 8.990 0.306
27.1408 8.177 0.292
27.1612 8.313 0.294
27.1817 8.552 0.298
27.2021 8.323 0.294
27.2226 8.292 0.294
27.2431 8.427 0.296
27.2635 8.448 0.297
27.2840 8.458 0.297
27.3045 8.115 0.291
27.3249 8.479 0.297
27.3454 8.667 0.300
27.3658 8.344 0.295
27.3863 8.281 0.294
27.4068 8.729 0.302
27.4272 8.906 0.305
27.4477 8.396 0.296
27.4682 8.219 0.293
27.4886 8.458 0.297
27.5091 8.063 0.290
27.5295 8.583 0.299
27.5500 8.188 0.292
27.5705 7.677 0.283
27.5909 7.958 0.288
27.6114 8.010 0.289
27.6319 8.052 0.290
27.6523 8.604 0.299
27.6728 7.750 0.284
27.6932 8.365 0.295
27.7137 8.979 0.306
27.7342 8.469 0.297
27.7546 8.406 0.296
27.7751 7.979 0.288
27.7956 8.125 0.291
27.8160 8.875 0.304
27.8365 8.229 0.293
27.8569 8.917 0.305
27.8774 8.885 0.304
27.8979 8.677 0.301
27.9183 8.792 0.303
27.9388 8.677 0.301
27.9593 8.417 0.296
27.9797 9.375 0.313
28.0002 8.385 0.296
28.0207 8.688 0.301
28.0411 8.792 0.303
28.0616 8.042 0.289
28.0820 8.542 0.298
28.1025 8.531 0.298
28.1230 7.802 0.285
28.1434 8.208 0.292
28.1639 8.177 0.292
28.1844 8.083 0.290
28.2048 8.333 0.295
28.2253 8.000 0.289
28.2457 8.073 0.290
28.2662 7.896 0.287
28.2867 7.927 0.287
28.3071 8.010 0.289
28.3276 7.802 0.285
28.3481 7.990 0.288
28.3685 7.896 0.287
28.3890 7.854 0.286
28.4094 8.240 0.293
28.4299 8.094 0.290
28.4504 7.896 0.287
28.4708 8.010 0.289
28.4913 7.677 0.283
28.5118 7.604 0.281
28.5322 7.927 0.287
28.5527 7.552 0.280
28.5731 7.823 0.285
28.5936 7.979 0.288
28.6141 7.750 0.284
28.6345 7.896 0.287
28.6550 8.188 0.292
28.6755 7.646 0.282
28.6959 8.219 0.293
28.7164 7.583 0.281
28.7368 7.802 0.285
28.7573 7.510 0.280
28.7778 7.688 0.283
28.7982 7.031 0.271
28.8187 7.385 0.277
28.8392 7.948 0.288
28.8596 8.375 0.295
28.8801 8.146 0.291
28.9006 7.740 0.284
28.9210 7.729 0.284
28.9415 7.667 0.283
28.9619 7.406 0.278
28.9824 7.813 0.285
29.0029 7.552 0.280
29.0233 7.823 0.285
29.0438 7.281 0.275
29.0643 7.583 0.281
29.0847 7.896 0.287
29.1052 7.573 0.281
29.1256 7.781 0.285
29.1461 7.688 0.283
29.1666 7.292 0.276
29.1870 7.167 0.273
29.2075 7.729 0.284
29.2280 7.510 0.280
29.2484 7.844 0.286
29.2689 7.823 0.285
29.2893 7.844 0.286
29.3098 7.802 0.285
29.3303 7.344 0.277
29.3507 7.990 0.288
29.3712 7.938 0.288
29.3917 7.760 0.284
29.4121 7.438 0.278
29.4326 7.781 0.285
29.4530 7.760 0.284
29.4735 7.885 0.287
29.4940 7.438 0.278
29.5144 7.750 0.284
29.5349 7.271 0.275
29.5554 7.906 0.287
29.5758 7.500 0.280
29.5963 7.375 0.277
29.6168 7.990 0.288
29.6372 7.188 0.274
29.6577 7.719 0.284
29.6781 7.875 0.286
29.6986 7.365 0.277
29.7191 7.781 0.285
29.7395 8.135 0.291
29.7600 7.417 0.278
29.7805 7.219 0.274
29.8009 7.135 0.273
29.8214 7.740 0.284
29.8418 7.615 0.282
29.8623 7.344 0.277
29.8828 7.740 0.284
29.9032 7.615 0.282
29.9237 7.927 0.287
29.9442 7.719 0.284
29.9646 7.563 0.281
29.9851 7.906 0.287
30.0055 7.271 0.275
30.0260 7.635 0.282
30.0465 7.521 0.280
30.0669 7.438 0.278
30.0874 7.552 0.280
30.1079 7.521 0.280
30.1283 7.406 0.278
30.1488 7.656 0.282
30.1692 7.021 0.270
30.1897 7.563 0.281
30.2102 7.667 0.283
30.2306 7.427 0.278
30.2511 7.406 0.278
30.2716 7.708 0.283
30.2920 7.354 0.277
30.3125 7.927 0.287
30.3329 7.510 0.280
30.3534 7.458 0.279
30.3739 7.135 0.273
30.3943 7.135 0.273
30.4148 7.229 0.274
30.4353 7.469 0.279
30.4557 6.844 0.267
30.4762 7.198 0.274
30.4967 7.583 0.281
30.5171 7.771 0.285
30.5376 7.458 0.279
30.5580 8.031 0.289
30.5785 7.906 0.287
30.5990 7.958 0.288
30.6194 7.990 0.288
30.6399 8.167 0.292
30.6604 8.010 0.289
30.6808 8.344 0.295
30.7013 8.458 0.297
30.7217 8.271 0.294
30.7422 8.823 0.303
30.7627 9.635 0.317
30.7831 8.927 0.305
30.8036 9.344 0.312
30.8241 9.760 0.319
30.8445 10.427 0.330
30.8650 11.281 0.343
30.8854 13.885 0.380
30.9059 16.146 0.410
30.9264 21.073 0.469
30.9468 27.281 0.533
30.9673 36.552 0.617
30.9878 49.323 0.717
31.0082 52.667 0.741
31.0287 51.833 0.735
31.0491 44.885 0.684
31.0696 42.396 0.665
31.0901 38.188 0.631
31.1105 30.917 0.567
31.1310 24.073 0.501
31.1515 19.313 0.449
31.1719 16.750 0.418
31.1924 14.448 0.388
31.2128 12.802 0.365
31.2333 11.542 0.347
31.2538 11.813 0.351
31.2742 10.500 0.331
31.2947 10.646 0.333
31.3152 9.146 0.309
31.3356 9.479 0.314
31.3561 9.010 0.306
31.3766 8.708 0.301
31.3970 8.479 0.297
31.4175 8.500 0.298
31.4379 8.406 0.296
31.4584 7.969 0.288
31.4789 8.115 0.291
31.4993 8.240 0.293
31.5198 7.792 0.285
31.5403 8.698 0.301
31.5607 7.938 0.288
31.5812 8.396 0.296
31.6016 8.146 0.291
31.6221 8.146 0.291
31.6426 7.938 0.288
31.6630 8.510 0.298
31.6835 8.208 0.292
31.7040 8.010 0.289
31.7244 7.771 0.285
31.7449 8.125 0.291
31.7653 8.031 0.289
31.7858 8.802 0.303
31.8063 8.156 0.291
31.8267 8.688 0.301
31.8472 8.542 0.298
31.8677 8.625 0.300
31.8881 8.385 0.296
31.9086 8.771 0.302
31.9290 8.865 0.304
31.9495 8.385 0.296
31.9700 8.854 0.304
31.9904 9.406 0.313
32.0109 9.635 0.317
32.0314 9.063 0.307
32.0518 9.344 0.312
32.0723 9.417 0.313
32.0927 10.417 0.329
32.1132 10.635 0.333
32.1337 10.542 0.331
32.1541 10.031 0.323
32.1746 9.813 0.320
32.1951 9.844 0.320
32.2155 9.385 0.313
32.2360 9.052 0.307
32.2565 8.990 0.306
32.2769 9.125 0.308
32.2974 9.427 0.313
32.3178 9.302 0.311
32.3383 8.990 0.306
32.3588 9.781 0.319
32.3792 9.406 0.313
32.3997 9.302 0.311
32.4202 9.979 0.322
32.4406 10.729 0.334
32.4611 11.073 0.340
32.4815 11.479 0.346
32.5020 12.417 0.360
32.5225 13.740 0.378
32.5429 14.917 0.394
32.5634 15.823 0.406
32.5839 17.719 0.430
32.6043 21.302 0.471
32.6248 22.573 0.485
32.6452 19.625 0.452
32.6657 18.135 0.435
32.6862 17.271 0.424
32.7066 16.146 0.410
32.7271 15.552 0.402
32.7476 12.823 0.365
32.7680 11.729 0.350
32.7885 10.875 0.337
32.8089 10.031 0.323
32.8294 9.656 0.317
32.8499 9.469 0.314
32.8703 9.698 0.318
32.8908 9.188 0.309
32.9113 9.219 0.310
32.9317 9.156 0.309
32.9522 8.042 0.289
32.9726 8.448 0.297
32.9931 8.448 0.297
33.0136 8.792 0.303
33.0340 8.083 0.290
33.0545 8.302 0.294
33.0750 8.031 0.289
33.0954 8.427 0.296
33.1159 8.156 0.291
33.1364 7.802 0.285
33.1568 7.948 0.288
33.1773 7.917 0.287
33.1977 7.417 0.278
33.2182 7.365 0.277
33.2387 6.781 0.266
33.2591 7.167 0.273
33.2796 6.938 0.269
33.3001 8.052 0.290
33.3205 7.708 0.283
33.3410 7.281 0.275
33.3614 7.792 0.285
33.3819 7.719 0.284
33.4024 7.063 0.271
33.4228 7.406 0.278
33.4433 7.896 0.287
33.4638 8.063 0.290
33.4842 7.156 0.273
33.5047 7.281 0.275
33.5251 7.677 0.283
33.5456 7.594 0.281
33.5661 7.552 0.280
33.5865 6.667 0.264
33.6070 7.240 0.275
33.6275 7.313 0.276
33.6479 7.010 0.270
33.6684 8.281 0.294
33.6888 8.531 0.298
33.7093 8.490 0.297
33.7298 8.698 0.301
33.7502 8.010 0.289
33.7707 7.625 0.282
33.7912 7.667 0.283
33.8116 8.208 0.292
33.8321 7.948 0.288
33.8526 7.448 0.279
33.8730 7.792 0.285
33.8935 7.146 0.273
33.9139 7.063 0.271
33.9344 6.927 0.269
33.9549 7.125 0.272
33.9753 6.979 0.270
33.9958 7.021 0.270
34.0163 7.604 0.281
34.0367 6.646 0.263
34.0572 7.146 0.273
34.0776 7.271 0.275
34.0981 7.104 0.272
34.1186 6.771 0.266
34.1390 6.917 0.268
34.1595 6.865 0.267
34.1800 6.938 0.269
34.2004 7.698 0.283
34.2209 7.375 0.277
34.2413 7.438 0.278
34.2618 6.813 0.266
34.2823 7.396 0.278
34.3027 7.521 0.280
34.3232 7.156 0.273
34.3437 6.646 0.263
34.3641 6.990 0.270
34.3846 7.177 0.273
34.4050 7.250 0.275
34.4255 6.917 0.268
34.4460 6.958 0.269
34.4664 7.083 0.272
34.4869 6.844 0.267
34.5074 7.344 0.277
34.5278 7.083 0.272
34.5483 6.948 0.269
34.5687 7.125 0.272
34.5892 6.813 0.266
34.6097 7.240 0.275
34.6301 6.594 0.262
34.6506 6.427 0.259
34.6711 6.833 0.267
34.6915 7.010 0.270
34.7120 7.083 0.272
34.7325 6.656 0.263
34.7529 6.500 0.260
34.7734 6.292 0.256
34.7938 6.365 0.257
34.8143 6.677 0.264
34.8348 7.250 0.275
34.8552 6.719 0.265
34.8757 7.010 0.270
34.8962 7.083 0.272
34.9166 7.063 0.271
34.9371 7.135 0.273
34.9575 6.813 0.266
34.9780 6.802 0.266
34.9985 6.583 0.262
35.0189 6.417 0.259
35.0394 7.198 0.274
35.0599 7.250 0.275
35.0803 6.604 0.262
35.1008 6.938 0.269
35.1212 7.448 0.279
35.1417 7.094 0.272
35.1622 7.094 0.272
35.1826 7.052 0.271
35.2031 6.969 0.269
35.2236 7.042 0.271
35.2440 6.698 0.264
35.2645 7.000 0.270
35.2849 6.875 0.268
35.3054 6.990 0.270
35.3259 7.063 0.271
35.3463 6.792 0.266
35.3668 7.375 0.277
35.3873 6.875 0.268
35.4077 7.073 0.271
35.4282 7.083 0.272
35.4486 7.135 0.273
35.4691 6.958 0.269
35.4896 7.083 0.272
35.5100 7.042 0.271
35.5305 7.188 0.274
35.5510 7.260 0.275
35.5714 7.323 0.276
35.5919 7.479 0.279
35.6124 7.417 0.278
35.6328 7.479 0.279
35.6533 8.000 0.289
35.6737 7.750 0.284
35.6942 7.948 0.288
35.7147 7.760 0.284
35.7351 8.365 0.295
35.7556 7.604 0.281
35.7761 8.677 0.301
35.7965 8.448 0.297
35.8170 9.156 0.309
35.8374 8.427 0.296
35.8579 8.573 0.299
35.8784 9.271 0.311
35.8988 9.146 0.309
35.9193 10.125 0.325
35.9398 10.875 0.337
35.9602 10.729 0.334
35.9807 11.396 0.345
36.0011 11.760 0.350
36.0216 12.167 0.356
36.0421 12.344 0.359
36.0625 12.833 0.366
36.0830 13.292 0.372
36.1035 13.656 0.377
36.1239 13.354 0.373
36.1444 13.708 0.378
36.1648 13.219 0.371
36.1853 13.938 0.381
36.2058 13.635 0.377
36.2262 13.563 0.376
36.2467 13.083 0.369
36.2672 13.844 0.380
36.2876 13.927 0.381
36.3081 14.375 0.387
36.3285 14.385 0.387
36.3490 14.271 0.386
36.3695 14.833 0.393
36.3899 14.698 0.391
36.4104 16.365 0.413
36.4309 16.083 0.409
36.4513 16.948 0.420
36.4718 17.573 0.428
36.4923 19.156 0.447
36.5127 20.781 0.465
36.5332 23.667 0.497
36.5536 25.979 0.520
36.5741 29.896 0.558
36.5946 33.125 0.587
36.6150 30.031 0.559
36.6355 26.750 0.528
36.6560 26.135 0.522
36.6764 24.698 0.507
36.6969 24.990 0.510
36.7173 21.906 0.478
36.7378 19.917 0.455
36.7583 17.990 0.433
36.7787 17.188 0.423
36.7992 17.479 0.427
36.8197 17.375 0.425
36.8401 17.271 0.424
36.8606 17.167 0.423
36.8810 17.740 0.430
36.9015 18.792 0.442
36.9220 19.542 0.451
36.9424 20.510 0.462
36.9629 21.406 0.472
36.9834 23.083 0.490
37.0038 25.302 0.513
37.0243 28.135 0.541
37.0447 32.302 0.580
37.0652 34.438 0.599
37.0857 34.906 0.603
37.1061 32.219 0.579
37.1266 29.083 0.550
37.1471 28.990 0.550
37.1675 26.906 0.529
37.1880 25.688 0.517
37.2084 21.542 0.474
37.2289 19.885 0.455
37.2494 17.531 0.427
37.2698 16.031 0.409
37.2903 15.563 0.403
37.3108 14.865 0.393
37.3312 15.135 0.397
37.3517 14.177 0.384
37.3722 13.094 0.369
37.3926 12.844 0.366
37.4131 13.729 0.378
37.4335 12.667 0.363
37.4540 12.854 0.366
37.4745 12.531 0.361
37.4949 12.771 0.365
37.5154 12.396 0.359
37.5359 12.490 0.361
37.5563 12.490 0.361
37.5768 11.177 0.341
37.5972 11.438 0.345
37.6177 11.875 0.352
37.6382 11.625 0.348
37.6586 11.573 0.347
37.6791 12.333 0.358
37.6996 11.458 0.345
37.7200 11.948 0.353
37.7405 11.844 0.351
37.7609 11.563 0.347
37.7814 12.521 0.361
37.8019 11.604 0.348
37.8223 11.677 0.349
37.8428 12.135 0.356
37.8633 11.760 0.350
37.8837 12.875 0.366
37.9042 12.990 0.368
37.9246 13.479 0.375
37.9451 12.885 0.366
37.9656 14.417 0.388
37.9860 15.083 0.396
38.0065 16.469 0.414
38.0270 17.302 0.425
38.0474 16.635 0.416
38.0679 15.688 0.404
38.0884 15.135 0.397
38.1088 15.854 0.406
38.1293 14.813 0.393
38.1497 15.010 0.395
38.1702 13.865 0.380
38.1907 13.490 0.375
38.2111 12.771 0.365
38.2316 12.646 0.363
38.2521 12.875 0.366
38.2725 12.417 0.360
38.2930 12.573 0.362
38.3134 12.646 0.363
38.3339 13.438 0.374
38.3544 13.469 0.375
38.3748 13.500 0.375
38.3953 14.656 0.391
38.4158 15.563 0.403
38.4362 16.750 0.418
38.4567 17.427 0.426
38.4771 15.625 0.403
38.4976 15.500 0.402
38.5181 15.479 0.402
38.5385 15.104 0.397
38.5590 14.094 0.383
38.5795 12.469 0.360
38.5999 11.167 0.341
38.6204 11.063 0.339
38.6408 11.042 0.339
38.6613 11.135 0.341
38.6818 10.115 0.325
38.7022 10.729 0.334
38.7227 9.823 0.320
38.7432 9.781 0.319
38.7636 10.250 0.327
38.7841 9.719 0.318
38.8045 9.323 0.312
38.8250 9.792 0.319
38.8455 8.948 0.305
38.8659 9.896 0.321
38.8864 9.125 0.308
38.9069 9.302 0.311
38.9273 9.313 0.311
38.9478 9.313 0.311
38.9683 9.552 0.315
38.9887 9.427 0.313
39.0092 9.729 0.318
39.0296 9.802 0.320
39.0501 10.042 0.323
39.0706 9.417 0.313
39.0910 9.583 0.316
39.1115 9.500 0.315
39.1320 9.406 0.313
39.1524 8.885 0.304
39.1729 9.021 0.307
39.1933 9.708 0.318
39.2138 8.740 0.302
39.2343 9.417 0.313
39.2547 9.271 0.311
39.2752 8.771 0.302
39.2957 8.833 0.303
39.3161 9.063 0.307
39.3366 9.635 0.317
39.3570 9.010 0.306
39.3775 9.052 0.307
39.3980 8.844 0.304
39.4184 9.135 0.308
39.4389 9.146 0.309
39.4594 8.833 0.303
39.4798 9.469 0.314
39.5003 9.490 0.314
39.5207 9.281 0.311
39.5412 9.135 0.308
39.5617 9.313 0.311
39.5821 9.396 0.313
39.6026 9.458 0.314
39.6231 10.438 0.330
39.6435 9.469 0.314
39.6640 9.990 0.323
39.6844 9.760 0.319
39.7049 10.313 0.328
39.7254 11.031 0.339
39.7458 11.833 0.351
39.7663 12.073 0.355
39.7868 13.448 0.374
39.8072 12.417 0.360
39.8277 12.813 0.365
39.8482 12.344 0.359
39.8686 11.656 0.348
39.8891 11.875 0.352
39.9095 11.208 0.342
39.9300 10.823 0.336
39.9505 11.208 0.342
39.9709 9.760 0.319
39.9914 9.490 0.314
40.0119 9.083 0.308
40.0323 9.458 0.314
40.0528 9.938 0.322
40.0732 9.500 0.315
40.0937 9.813 0.320
40.1142 9.406 0.313
40.1346 9.823 0.320
40.1551 8.813 0.303
40.1756 9.698 0.318
40.1960 9.927 0.322
40.2165 9.938 0.322
40.2369 10.552 0.332
40.2574 10.573 0.332
40.2779 10.823 0.336
40.2983 11.177 0.341
40.3188 10.865 0.336
40.3393 10.281 0.327
40.3597 10.427 0.330
40.3802 11.167 0.341
40.4006 10.250 0.327
40.4211 10.125 0.325
40.4416 10.365 0.329
40.4620 9.521 0.315
40.4825 9.292 0.311
40.5030 9.813 0.320
40.5234 9.385 0.313
40.5439 8.823 0.303
40.5643 9.281 0.311
40.5848 9.292 0.311
40.6053 9.719 0.318
40.6257 8.781 0.302
40.6462 8.792 0.303
40.6667 8.896 0.304
40.6871 8.760 0.302
40.7076 9.479 0.314
40.7281 8.563 0.299
40.7485 8.229 0.293
40.7690 9.458 0.314
40.7894 8.750 0.302
40.8099 8.781 0.302
40.8304 9.313 0.311
40.8508 8.198 0.292
40.8713 8.656 0.300
40.8918 8.573 0.299
40.9122 8.750 0.302
40.9327 8.875 0.304
40.9531 9.240 0.310
40.9736 9.271 0.311
40.9941 10.188 0.326
41.0145 10.146 0.325
41.0350 10.938 0.338
41.0555 11.302 0.343
41.0759 12.115 0.355
41.0964 13.167 0.370
41.1168 14.052 0.383
41.1373 14.531 0.389
41.1578 14.302 0.386
41.1782 13.354 0.373
41.1987 12.323 0.358
41.2192 12.885 0.366
41.2396 12.646 0.363
41.2601 11.583 0.347
41.2805 11.500 0.346
41.3010 10.000 0.323
41.3215 9.896 0.321
41.3419 8.938 0.305
41.3624 9.396 0.313
41.3829 9.042 0.307
41.4033 8.781 0.302
41.4238 8.760 0.302
41.4442 8.344 0.295
41.4647 8.271 0.294
41.4852 8.833 0.303
41.5056 8.719 0.301
41.5261 9.146 0.309
41.5466 9.063 0.307
41.5670 8.188 0.292
41.5875 8.667 0.300
41.6080 8.219 0.293
41.6284 8.667 0.300
41.6489 8.458 0.297
41.6693 8.396 0.296
41.6898 8.698 0.301
41.7103 8.250 0.293
41.7307 8.385 0.296
41.7512 8.458 0.297
41.7717 8.260 0.293
41.7921 8.115 0.291
41.8126 8.354 0.295
41.8330 7.656 0.282
41.8535 8.104 0.291
41.8740 7.698 0.283
41.8944 7.854 0.286
41.9149 7.677 0.283
41.9354 7.823 0.285
41.9558 7.344 0.277
41.9763 7.281 0.275
41.9967 7.385 0.277
42.0172 7.583 0.281
42.0377 7.333 0.276
42.0581 7.354 0.277
42.0786 7.333 0.276
42.0991 7.417 0.278
42.1195 8.448 0.297
42.1400 7.604 0.281
42.1604 7.781 0.285
42.1809 7.750 0.284
42.2014 7.125 0.272
42.2218 7.615 0.282
42.2423 8.010 0.289
42.2628 7.323 0.276
42.2832 7.292 0.276
42.3037 7.885 0.287
42.3242 8.094 0.290
42.3446 8.104 0.291
42.3651 7.708 0.283
42.3855 7.646 0.282
42.4060 7.458 0.279
42.4265 7.448 0.279
42.4469 7.406 0.278
42.4674 7.406 0.278
42.4879 7.552 0.280
42.5083 7.781 0.285
42.5288 7.406 0.278
42.5492 7.875 0.286
42.5697 8.375 0.295
42.5902 7.646 0.282
42.6106 8.396 0.296
42.6311 8.500 0.298
42.6516 8.240 0.293
42.6720 8.521 0.298
42.6925 8.177 0.292
42.7129 8.750 0.302
42.7334 7.958 0.288
42.7539 8.521 0.298
42.7743 8.198 0.292
42.7948 8.271 0.294
42.8153 7.417 0.278
42.8357 7.833 0.286
42.8562 7.917 0.287
42.8766 7.781 0.285
42.8971 7.927 0.287
42.9176 8.125 0.291
42.9380 8.479 0.297
42.9585 7.813 0.285
42.9790 8.438 0.296
42.9994 8.396 0.296
43.0199 8.458 0.297
43.0403 8.750 0.302
43.0608 8.750 0.302
43.0813 9.938 0.322
43.1017 9.458 0.314
43.1222 8.885 0.304
43.1427 9.427 0.313
43.1631 10.083 0.324
43.1836 10.260 0.327
43.2041 11.052 0.339
43.2245 10.823 0.336
43.2450 10.677 0.333
43.2654 10.521 0.331
43.2859 9.667 0.317
43.3064 10.448 0.330
43.3268 10.906 0.337
43.3473 10.781 0.335
43.3678 10.521 0.331
43.3882 11.521 0.346
43.4087 11.323 0.343
43.4291 11.552 0.347
43.4496 11.896 0.352
43.4701 12.177 0.356
43.4905 13.115 0.370
43.5110 14.135 0.384
43.5315 13.698 0.378
43.5519 15.302 0.399
43.5724 17.896 0.432
43.5928 17.635 0.429
43.6133 20.385 0.461
43.6338 20.396 0.461
43.6542 20.000 0.456
43.6747 18.448 0.438
43.6952 18.333 0.437
43.7156 17.438 0.426
43.7361 16.990 0.421
43.7565 16.271 0.412
43.7770 15.240 0.398
43.7975 13.344 0.373
43.8179 12.760 0.365
43.8384 11.531 0.347
43.8589 10.771 0.335
43.8793 10.531 0.331
43.8998 9.813 0.320
43.9202 9.781 0.319
43.9407 9.198 0.310
43.9612 9.198 0.310
43.9816 9.146 0.309
44.0021 9.344 0.312
44.0226 8.813 0.303
44.0430 8.427 0.296
44.0635 8.396 0.296
44.0840 8.698 0.301
44.1044 8.438 0.296
44.1249 8.490 0.297
44.1453 7.865 0.286
44.1658 8.542 0.298
44.1863 8.365 0.295
44.2067 7.927 0.287
44.2272 7.896 0.287
44.2477 8.208 0.292
44.2681 8.219 0.293
44.2886 8.208 0.292
44.3090 7.896 0.287
44.3295 8.458 0.297
44.3500 7.719 0.284
44.3704 7.771 0.285
44.3909 7.885 0.287
44.4114 7.885 0.287
44.4318 7.750 0.284
44.4523 7.542 0.280
44.4727 8.208 0.292
44.4932 7.490 0.279
44.5137 7.313 0.276
44.5341 7.615 0.282
44.5546 7.833 0.286
44.5751 7.573 0.281
44.5955 7.469 0.279
44.6160 7.427 0.278
44.6364 7.479 0.279
44.6569 7.396 0.278
44.6774 7.552 0.280
44.6978 7.917 0.287
44.7183 7.365 0.277
44.7388 7.208 0.274
44.7592 7.510 0.280
44.7797 7.104 0.272
44.8001 7.667 0.283
44.8206 7.292 0.276
44.8411 7.167 0.273
44.8615 7.792 0.285
44.8820 7.906 0.287
44.9025 7.417 0.278
44.9229 7.469 0.279
44.9434 7.594 0.281
44.9639 7.396 0.278
44.9843 7.823 0.285
45.0048 7.823 0.285
45.0252 7.594 0.281
45.0457 7.646 0.282
45.0662 7.573 0.281
45.0866 7.896 0.287
45.1071 8.302 0.294
45.1276 8.521 0.298
45.1480 9.146 0.309
45.1685 8.688 0.301
45.1889 9.458 0.314
45.2094 10.563 0.332
45.2299 10.802 0.335
45.2503 10.625 0.333
45.2708 10.865 0.336
45.2913 10.156 0.325
45.3117 9.667 0.317
45.3322 9.500 0.315
45.3526 9.625 0.317
45.3731 9.792 0.319
45.3936 9.365 0.312
45.4140 8.396 0.296
45.4345 8.302 0.294
45.4550 7.990 0.288
45.4754 7.354 0.277
45.4959 7.177 0.273
45.5163 7.104 0.272
45.5368 7.573 0.281
45.5573 7.677 0.283
45.5777 7.542 0.280
45.5982 7.198 0.274
45.6187 7.479 0.279
45.6391 6.781 0.266
45.6596 7.583 0.281
45.6800 6.729 0.265
45.7005 6.854 0.267
45.7210 6.927 0.269
45.7414 6.458 0.259
45.7619 6.667 0.264
45.7824 7.063 0.271
45.8028 7.083 0.272
45.8233 6.000 0.250
45.8438 6.802 0.266
45.8642 6.698 0.264
45.8847 6.490 0.260
45.9051 6.833 0.267
45.9256 6.906 0.268
45.9461 6.417 0.259
45.9665 6.948 0.269
45.9870 6.208 0.254
46.0075 6.292 0.256
46.0279 6.635 0.263
46.0484 6.125 0.253
46.0688 6.365 0.257
46.0893 7.010 0.270
46.1098 6.448 0.259
46.1302 6.458 0.259
46.1507 6.313 0.256
46.1712 6.260 0.255
46.1916 6.396 0.258
46.2121 6.083 0.252
46.2325 6.698 0.264
46.2530 6.802 0.266
46.2735 6.698 0.264
46.2939 6.792 0.266
46.3144 7.094 0.272
46.3349 6.448 0.259
46.3553 6.656 0.263
46.3758 6.344 0.257
46.3962 6.146 0.253
46.4167 6.615 0.262
46.4372 6.396 0.258
46.4576 6.083 0.252
46.4781 6.354 0.257
46.4986 6.219 0.255
46.5190 6.156 0.253
46.5395 6.250 0.255
46.5600 6.031 0.251
46.5804 6.042 0.251
46.6009 6.646 0.263
46.6213 6.250 0.255
46.6418 6.010 0.250
46.6623 6.417 0.259
46.6827 6.385 0.258
46.7032 6.271 0.256
46.7237 5.938 0.249
46.7441 6.135 0.253
46.7646 6.167 0.253
46.7850 6.552 0.261
46.8055 6.708 0.264
46.8260 6.313 0.256
46.8464 6.208 0.254
46.8669 6.427 0.259
46.8874 6.500 0.260
46.9078 6.531 0.261
46.9283 6.510 0.260
46.9487 6.094 0.252
46.9692 6.167 0.253
46.9897 6.292 0.256
47.0101 6.073 0.252
47.0306 6.583 0.262
47.0511 6.188 0.254
47.0715 6.198 0.254
47.0920 6.354 0.257
47.1124 6.583 0.262
47.1329 6.646 0.263
47.1534 6.365 0.257
47.1738 7.031 0.271
47.1943 6.448 0.259
47.2148 6.021 0.250
47.2352 6.698 0.264
47.2557 6.698 0.264
47.2761 6.469 0.260
47.2966 6.844 0.267
47.3171 7.479 0.279
47.3375 6.469 0.260
47.3580 6.125 0.253
47.3785 7.094 0.272
47.3989 6.594 0.262
47.4194 6.958 0.269
47.4399 7.677 0.283
47.4603 6.854 0.267
47.4808 8.052 0.290
47.5012 7.740 0.284
47.5217 8.073 0.290
47.5422 8.469 0.297
47.5626 9.031 0.307
47.5831 9.198 0.310
47.6036 9.167 0.309
47.6240 9.635 0.317
47.6445 9.656 0.317
47.6649 8.719 0.301
47.6854 9.094 0.308
47.7059 8.823 0.303
47.7263 8.542 0.298
47.7468 8.552 0.298
47.7673 8.281 0.294
47.7877 7.573 0.281
47.8082 7.740 0.284
47.8286 7.083 0.272
47.8491 7.052 0.271
47.8696 7.052 0.271
47.8900 6.188 0.254
47.9105 6.458 0.259
47.9310 6.094 0.252
47.9514 6.740 0.265
47.9719 6.698 0.264
47.9923 6.281 0.256
48.0128 5.969 0.249
48.0333 6.615 0.262
48.0537 6.542 0.261
48.0742 6.406 0.258
48.0947 6.073 0.252
48.1151 6.458 0.259
48.1356 6.323 0.257
48.1560 5.990 0.250
48.1765 6.396 0.258
48.1970 6.375 0.258
48.2174 6.458 0.259
48.2379 7.271 0.275
48.2584 6.677 0.264
48.2788 7.760 0.284
48.2993 7.813 0.285
48.3198 8.063 0.290
48.3402 8.417 0.296
48.3607 8.406 0.296
48.3811 7.792 0.285
48.4016 7.719 0.284
48.4221 7.042 0.271
48.4425 7.615 0.282
48.4630 7.656 0.282
48.4835 7.563 0.281
48.5039 7.521 0.280
48.5244 6.760 0.265
48.5448 7.073 0.271
48.5653 7.542 0.280
48.5858 7.563 0.281
48.6062 7.406 0.278
48.6267 7.729 0.284
48.6472 7.083 0.272
48.6676 8.250 0.293
48.6881 8.073 0.290
48.7085 8.490 0.297
48.7290 8.073 0.290
48.7495 7.281 0.275
48.7699 7.500 0.280
48.7904 7.292 0.276
48.8109 7.083 0.272
48.8313 7.115 0.272
48.8518 6.938 0.269
48.8722 7.125 0.272
48.8927 6.542 0.261
48.9132 6.573 0.262
48.9336 6.427 0.259
48.9541 6.417 0.259
48.9746 6.281 0.256
48.9950 6.323 0.257
49.0155 6.229 0.255
49.0359 6.104 0.252
49.0564 6.396 0.258
49.0769 6.188 0.254
49.0973 6.594 0.262
49.1178 5.813 0.246
49.1383 6.260 0.255
49.1587 6.563 0.261
49.1792 6.479 0.260
49.1997 6.240 0.255
49.2201 6.375 0.258
49.2406 6.052 0.251
49.2610 6.125 0.253
49.2815 6.229 0.255
49.3020 5.823 0.246
49.3224 5.896 0.248
49.3429 6.115 0.252
49.3634 6.177 0.254
49.3838 6.313 0.256
49.4043 6.271 0.256
49.4247 6.490 0.260
49.4452 7.135 0.273
49.4657 6.969 0.269
49.4861 6.458 0.259
49.5066 6.813 0.266
49.5271 7.146 0.273
49.5475 7.010 0.270
49.5680 7.115 0.272
49.5884 7.615 0.282
49.6089 7.792 0.285
49.6294 7.917 0.287
49.6498 7.958 0.288
49.6703 8.667 0.300
49.6908 8.813 0.303
49.7112 9.146 0.309
49.7317 10.344 0.328
49.7521 10.333 0.328
49.7726 10.906 0.337
49.7931 11.813 0.351
49.8135 13.906 0.381
49.8340 14.177 0.384
49.8545 15.333 0.400
49.8749 14.375 0.387
49.8954 13.677 0.377
49.9158 13.177 0.370
49.9363 12.344 0.359
49.9568 12.854 0.366
49.9772 12.500 0.361
49.9977 12.000 0.354
50.0182 11.021 0.339
50.0386 10.885 0.337
50.0591 10.375 0.329
50.0796 9.469 0.314
50.1000 9.146 0.309
50.1205 9.677 0.317
50.1409 9.646 0.317
50.1614 10.104 0.324
50.1819 10.156 0.325
50.2023 9.802 0.320
50.2228 9.417 0.313
50.2433 8.896 0.304
50.2637 8.521 0.298
50.2842 8.354 0.295
50.3046 8.500 0.298
50.3251 8.594 0.299
50.3456 7.896 0.287
50.3660 7.667 0.283
50.3865 7.604 0.281
50.4070 7.417 0.278
50.4274 7.240 0.275
50.4479 7.042 0.271
50.4683 6.563 0.261
50.4888 6.635 0.263
50.5093 6.479 0.260
50.5297 6.604 0.262
50.5502 6.875 0.268
50.5707 7.063 0.271
50.5911 6.229 0.255
50.6116 6.302 0.256
50.6320 6.406 0.258
50.6525 6.792 0.266
50.6730 6.500 0.260
50.6934 6.479 0.260
50.7139 6.396 0.258
50.7344 6.229 0.255
50.7548 5.854 0.247
50.7753 6.208 0.254
50.7958 6.052 0.251
50.8162 6.260 0.255
50.8367 6.198 0.254
50.8571 6.656 0.263
50.8776 6.646 0.263
50.8981 6.469 0.260
50.9185 5.917 0.248
50.9390 6.906 0.268
50.9595 6.677 0.264
50.9799 6.573 0.262
51.0004 6.948 0.269
51.0208 6.396 0.258
51.0413 6.458 0.259
51.0618 6.156 0.253
51.0822 6.375 0.258
51.1027 6.813 0.266
51.1232 6.469 0.260
51.1436 6.385 0.258
51.1641 6.240 0.255
51.1845 6.917 0.268
51.2050 6.302 0.256
51.2255 6.740 0.265
51.2459 6.313 0.256
51.2664 6.771 0.266
51.2869 6.802 0.266
51.3073 6.781 0.266
51.3278 6.438 0.259
51.3482 6.885 0.268
51.3687 6.719 0.265
51.3892 6.354 0.257
51.4096 6.521 0.261
51.4301 6.573 0.262
51.4506 6.479 0.260
51.4710 6.594 0.262
51.4915 5.885 0.248
51.5119 6.031 0.251
51.5324 6.292 0.256
51.5529 6.521 0.261
51.5733 6.594 0.262
51.5938 6.656 0.263
51.6143 6.833 0.267
51.6347 6.521 0.261
51.6552 7.083 0.272
51.6757 7.073 0.271
51.6961 7.000 0.270
51.7166 6.792 0.266
51.7370 6.740 0.265
51.7575 6.354 0.257
51.7780 6.490 0.260
51.7984 6.469 0.260
51.8189 6.490 0.260
51.8394 6.167 0.253
51.8598 6.125 0.253
51.8803 6.063 0.251
51.9007 6.094 0.252
51.9212 5.708 0.244
51.9417 5.854 0.247
51.9621 5.719 0.244
51.9826 5.229 0.233
52.0031 5.573 0.241
52.0235 5.604 0.242
52.0440 5.469 0.239
52.0644 5.417 0.238
52.0849 5.563 0.241
52.1054 5.635 0.242
52.1258 5.365 0.236
52.1463 5.583 0.241
52.1668 5.740 0.245
52.1872 5.594 0.241
52.2077 5.490 0.239
52.2281 5.313 0.235
52.2486 5.958 0.249
52.2691 5.010 0.228
52.2895 6.156 0.253
52.3100 5.563 0.241
52.3305 5.667 0.243
52.3509 5.604 0.242
52.3714 5.625 0.242
52.3918 5.677 0.243
52.4123 5.948 0.249
52.4328 5.240 0.234
52.4532 5.521 0.240
52.4737 5.698 0.244
52.4942 5.031 0.229
52.5146 4.958 0.227
52.5351 5.708 0.244
52.5556 5.156 0.232
52.5760 5.333 0.236
52.5965 5.313 0.235
52.6169 5.115 0.231
52.6374 5.479 0.239
52.6579 5.271 0.234
52.6783 5.531 0.240
52.6988 5.021 0.229
52.7193 5.552 0.240
52.7397 5.167 0.232
52.7602 5.240 0.234
52.7806 5.281 0.235
52.8011 5.333 0.236
52.8216 4.958 0.227
52.8420 5.198 0.233
52.8625 5.073 0.230
52.8830 5.365 0.236
52.9034 5.208 0.233
52.9239 4.990 0.228
52.9443 5.063 0.230
52.9648 5.115 0.231
52.9853 5.156 0.232
53.0057 5.125 0.231
53.0262 5.146 0.232
53.0467 5.771 0.245
53.0671 5.344 0.236
53.0876 5.375 0.237
53.1080 5.563 0.241
53.1285 5.292 0.235
53.1490 5.365 0.236
53.1694 5.177 0.232
53.1899 5.104 0.231
53.2104 5.094 0.230
53.2308 5.510 0.240
53.2513 5.385 0.237
53.2717 5.063 0.230
53.2922 4.781 0.223
53.3127 5.542 0.240
53.3331 5.063 0.230
53.3536 5.146 0.232
53.3741 5.031 0.229
53.3945 4.979 0.228
53.4150 5.021 0.229
53.4355 4.813 0.224
53.4559 4.885 0.226
53.4764 5.188 0.232
53.4968 4.979 0.228
53.5173 5.208 0.233
53.5378 5.229 0.233
53.5582 5.323 0.235
53.5787 4.969 0.228
53.5992 4.875 0.225
53.6196 4.740 0.222
53.6401 4.958 0.227
53.6605 4.615 0.219
53.6810 5.094 0.230
53.7015 4.896 0.226
53.7219 4.917 0.226
53.7424 4.792 0.223
53.7629 4.969 0.228
53.7833 4.750 0.222
53.8038 5.490 0.239
53.8242 4.833 0.224
53.8447 4.719 0.222
53.8652 4.833 0.224
53.8856 4.958 0.227
53.9061 4.781 0.223
53.9266 4.948 0.227
53.9470 4.771 0.223
53.9675 4.917 0.226
53.9879 5.271 0.234
54.0084 4.771 0.223
54.0289 5.052 0.229
54.0493 5.385 0.237
54.0698 5.417 0.238
54.0903 5.323 0.235
54.1107 5.563 0.241
54.1312 5.333 0.236
54.1516 5.604 0.242
54.1721 5.396 0.237
54.1926 5.365 0.236
54.2130 5.260 0.234
54.2335 5.396 0.237
54.2540 5.406 0.237
54.2744 4.875 0.225
54.2949 5.156 0.232
54.3154 5.073 0.230
54.3358 4.854 0.225
54.3563 4.781 0.223
54.3767 4.823 0.224
54.3972 4.417 0.214
54.4177 4.990 0.228
54.4381 4.469 0.216
54.4586 5.031 0.229
54.4791 4.854 0.225
54.4995 5.146 0.232
54.5200 4.948 0.227
54.5404 5.375 0.237
54.5609 4.771 0.223
54.5814 4.885 0.226
54.6018 5.250 0.234
54.6223 4.531 0.217
54.6428 4.802 0.224
54.6632 4.490 0.216
54.6837 5.188 0.232
54.7041 4.990 0.228
54.7246 4.896 0.226
54.7451 4.906 0.226
54.7655 4.958 0.227
54.7860 5.281 0.235
54.8065 5.271 0.234
54.8269 4.990 0.228
54.8474 5.104 0.231
54.8678 5.542 0.240
54.8883 5.417 0.238
54.9088 5.656 0.243
54.9292 5.896 0.248
54.9497 6.135 0.253
54.9702 5.958 0.249
54.9906 6.833 0.267
55.0111 7.698 0.283
55.0316 8.063 0.290
55.0520 8.958 0.305
55.0725 9.938 0.322
55.0929 11.115 0.340
55.1134 12.844 0.366
55.1339 14.365 0.387
55.1543 16.427 0.414
55.1748 16.552 0.415
55.1953 14.719 0.392
55.2157 13.688 0.378
55.2362 12.885 0.366
55.2566 12.875 0.366
55.2771 13.094 0.369
55.2976 12.781 0.365
55.3180 13.260 0.372
55.3385 11.563 0.347
55.3590 10.500 0.331
55.3794 9.396 0.313
55.3999 8.417 0.296
55.4203 8.292 0.294
55.4408 7.677 0.283
55.4613 6.948 0.269
55.4817 6.813 0.266
55.5022 6.469 0.260
55.5227 6.333 0.257
55.5431 6.250 0.255
55.5636 6.906 0.268
55.5840 6.448 0.259
55.6045 6.500 0.260
55.6250 6.146 0.253
55.6454 6.281 0.256
55.6659 6.125 0.253
55.6864 6.375 0.258
55.7068 5.865 0.247
55.7273 6.521 0.261
55.7477 6.698 0.264
55.7682 6.271 0.256
55.7887 6.198 0.254
55.8091 7.042 0.271
55.8296 7.323 0.276
55.8501 7.219 0.274
55.8705 6.990 0.270
55.8910 6.719 0.265
55.9115 6.677 0.264
55.9319 7.052 0.271
55.9524 7.198 0.274
55.9728 7.573 0.281
55.9933 7.281 0.275
56.0138 7.385 0.277
56.0342 8.281 0.294
56.0547 8.188 0.292
56.0752 8.333 0.295
56.0956 8.427 0.296
56.1161 9.281 0.311
56.1365 9.177 0.309
56.1570 11.292 0.343
56.1775 11.271 0.343
56.1979 11.521 0.346
56.2184 10.438 0.330
56.2389 9.500 0.315
56.2593 9.323 0.312
56.2798 8.635 0.300
56.3002 9.177 0.309
56.3207 8.479 0.297
56.3412 8.156 0.291
56.3616 7.958 0.288
56.3821 7.677 0.283
56.4026 6.969 0.269
56.4230 6.615 0.262
56.4435 6.448 0.259
56.4639 5.510 0.240
56.4844 5.656 0.243
56.5049 5.969 0.249
56.5253 5.708 0.244
56.5458 5.479 0.239
56.5663 5.146 0.232
56.5867 5.208 0.233
56.6072 5.323 0.235
56.6276 4.927 0.227
56.6481 4.917 0.226
56.6686 4.604 0.219
56.6890 4.438 0.215
56.7095 4.490 0.216
56.7300 4.948 0.227
56.7504 4.688 0.221
56.7709 4.948 0.227
56.7914 4.896 0.226
56.8118 4.344 0.213
56.8323 4.458 0.216
56.8527 4.490 0.216
56.8732 4.802 0.224
56.8937 4.604 0.219
56.9141 4.677 0.221
56.9346 4.385 0.214
56.9551 4.333 0.212
56.9755 4.823 0.224
56.9960 4.104 0.207
57.0164 4.615 0.219
57.0369 4.917 0.226
57.0574 4.458 0.216
57.0778 4.219 0.210
57.0983 4.865 0.225
57.1188 4.760 0.223
57.1392 4.646 0.220
57.1597 4.833 0.224
57.1801 4.500 0.217
57.2006 4.635 0.220
57.2211 4.281 0.211
57.2415 4.542 0.218
57.2620 4.302 0.212
57.2825 4.594 0.219
57.3029 4.333 0.212
57.3234 4.802 0.224
57.3438 4.635 0.220
57.3643 4.521 0.217
57.3848 4.563 0.218
57.4052 4.583 0.219
57.4257 4.594 0.219
57.4462 4.719 0.222
57.4666 5.229 0.233
57.4871 5.188 0.232
57.5075 5.167 0.232
57.5280 5.177 0.232
57.5485 5.188 0.232
57.5689 4.552 0.218
57.5894 4.958 0.227
57.6099 5.094 0.230
57.6303 5.219 0.233
57.6508 4.969 0.228
57.6713 5.323 0.235
57.6917 5.375 0.237
57.7122 5.469 0.239
57.7326 5.333 0.236
57.7531 5.698 0.244
57.7736 5.844 0.247
57.7940 5.802 0.246
57.8145 6.417 0.259
57.8350 6.354 0.257
57.8554 7.156 0.273
57.8759 7.073 0.271
57.8963 7.396 0.278
57.9168 7.708 0.283
57.9373 8.417 0.296
57.9577 7.917 0.287
57.9782 7.188 0.274
57.9987 7.458 0.279
58.0191 6.042 0.251
58.0396 7.063 0.271
58.0600 6.854 0.267
58.0805 6.198 0.254
58.1010 6.344 0.257
58.1214 6.042 0.251
58.1419 5.906 0.248
58.1624 5.427 0.238
58.1828 5.583 0.241
58.2033 5.167 0.232
58.2237 5.427 0.238
58.2442 5.125 0.231
58.2647 5.292 0.235
58.2851 5.240 0.234
58.3056 4.990 0.228
58.3261 5.417 0.238
58.3465 5.125 0.231
58.3670 5.240 0.234
58.3874 5.083 0.230
58.4079 5.333 0.236
58.4284 4.969 0.228
58.4488 5.260 0.234
58.4693 4.740 0.222
58.4898 5.219 0.233
58.5102 4.708 0.221
58.5307 5.208 0.233
58.5512 4.865 0.225
58.5716 4.563 0.218
58.5921 4.958 0.227
58.6125 5.646 0.243
58.6330 5.125 0.231
58.6535 4.969 0.228
58.6739 4.563 0.218
58.6944 4.948 0.227
58.7149 4.698 0.221
58.7353 4.719 0.222
58.7558 5.156 0.232
58.7762 4.729 0.222
58.7967 4.760 0.223
58.8172 4.802 0.224
58.8376 5.000 0.228
58.8581 4.635 0.220
58.8786 4.635 0.220
58.8990 5.271 0.234
58.9195 5.156 0.232
58.9399 4.698 0.221
58.9604 5.125 0.231
58.9809 5.208 0.233
59.0013 5.177 0.232
59.0218 5.365 0.236
59.0423 5.094 0.230
59.0627 5.583 0.241
59.0832 5.823 0.246
59.1036 5.990 0.250
59.1241 6.292 0.256
59.1446 6.385 0.258
59.1650 6.719 0.265
59.1855 6.813 0.266
59.2060 7.323 0.276
59.2264 7.302 0.276
59.2469 6.490 0.260
59.2674 6.698 0.264
59.2878 6.333 0.257
59.3083 5.521 0.240
59.3287 6.240 0.255
59.3492 6.208 0.254
59.3697 5.469 0.239
59.3901 5.948 0.249
59.4106 5.302 0.235
59.4311 5.000 0.228
59.4515 5.135 0.231
59.4720 5.135 0.231
59.4924 4.896 0.226
59.5129 4.604 0.219
59.5334 4.615 0.219
59.5538 4.698 0.221
59.5743 4.823 0.224
59.5948 5.000 0.228
59.6152 4.750 0.222
59.6357 4.667 0.220
59.6561 4.875 0.225
59.6766 4.677 0.221
59.6971 4.771 0.223
59.7175 4.719 0.222
59.7380 4.875 0.225
59.7585 5.385 0.237
59.7789 5.417 0.238
59.7994 5.760 0.245
59.8198 5.583 0.241
59.8403 6.635 0.263
59.8608 6.469 0.260
59.8812 7.083 0.272
59.9017 6.427 0.259
59.9222 6.063 0.251
59.9426 6.042 0.251
59.9631 5.885 0.248
59.9835 6.208 0.254
60.0040 5.667 0.243
60.0245 6.031 0.251
60.0449 6.115 0.252
60.0654 5.563 0.241
60.0859 5.406 0.237
60.1063 4.865 0.225
60.1268 4.844 0.225
60.1473 5.115 0.231
60.1677 4.177 0.209
60.1882 4.740 0.222
60.2086 4.479 0.216
60.2291 4.552 0.218
60.2496 4.438 0.215
60.2700 4.792 0.223
60.2905 4.260 0.211
60.3110 4.083 0.206
60.3314 4.385 0.214
60.3519 4.500 0.217
60.3723 4.177 0.209
60.3928 4.052 0.205
60.4133 4.219 0.210
60.4337 4.313 0.212
60.4542 4.125 0.207
60.4747 4.063 0.206
60.4951 4.073 0.206
60.5156 4.292 0.211
60.5360 4.073 0.206
60.5565 4.156 0.208
60.5770 3.813 0.199
60.5974 4.010 0.204
60.6179 3.708 0.197
60.6384 3.927 0.202
60.6588 3.646 0.195
60.6793 4.104 0.207
60.6997 4.354 0.213
60.7202 4.135 0.208
60.7407 4.021 0.205
60.7611 4.250 0.210
60.7816 3.927 0.202
60.8021 4.010 0.204
60.8225 3.927 0.202
60.8430 4.042 0.205
60.8634 3.979 0.204
60.8839 4.385 0.214
60.9044 4.323 0.212
60.9248 4.073 0.206
60.9453 3.927 0.202
60.9658 4.177 0.209
60.9862 4.333 0.212
61.0067 3.802 0.199
61.0272 3.969 0.203
61.0476 4.010 0.204
61.0681 4.115 0.207
61.0885 3.823 0.200
61.1090 3.500 0.191
61.1295 3.854 0.200
61.1499 3.958 0.203
61.1704 3.844 0.200
61.1909 4.021 0.205
61.2113 3.844 0.200
61.2318 3.865 0.201
61.2522 3.990 0.204
61.2727 3.708 0.197
61.2932 4.281 0.211
61.3136 4.156 0.208
61.3341 4.479 0.216
61.3546 3.885 0.201
61.3750 3.844 0.200
61.3955 3.688 0.196
61.4159 3.813 0.199
61.4364 4.010 0.204
61.4569 3.802 0.199
61.4773 4.000 0.204
61.4978 3.740 0.197
61.5183 3.708 0.197
61.5387 4.135 0.208
61.5592 4.073 0.206
61.5796 3.656 0.195
61.6001 3.604 0.194
61.6206 3.750 0.198
61.6410 3.740 0.197
61.6615 3.729 0.197
61.6820 3.688 0.196
61.7024 3.698 0.196
61.7229 3.854 0.200
61.7433 3.667 0.195
61.7638 4.000 0.204
61.7843 3.719 0.197
61.8047 3.760 0.198
61.8252 3.740 0.197
61.8457 4.063 0.206
61.8661 3.958 0.203
61.8866 4.104 0.207
61.9071 3.813 0.199
61.9275 4.021 0.205
61.9480 3.573 0.193
61.9684 4.292 0.211
61.9889 3.917 0.202
62.0094 4.260 0.211
62.0298 4.490 0.216
62.0503 4.177 0.209
62.0708 4.333 0.212
62.0912 4.406 0.214
62.1117 4.417 0.214
62.1321 4.865 0.225
62.1526 5.344 0.236
62.1731 4.771 0.223
62.1935 4.698 0.221
62.2140 4.323 0.212
62.2345 4.167 0.208
62.2549 4.573 0.218
62.2754 4.313 0.212
62.2958 4.302 0.212
62.3163 4.469 0.216
62.3368 4.354 0.213
62.3572 4.667 0.220
62.3777 4.094 0.207
62.3982 4.146 0.208
62.4186 4.104 0.207
62.4391 4.073 0.206
62.4595 3.740 0.197
62.4800 3.917 0.202
62.5005 3.542 0.192
62.5209 4.031 0.205
62.5414 3.802 0.199
62.5619 3.865 0.201
62.5823 3.823 0.200
62.6028 3.448 0.190
62.6232 3.427 0.189
62.6437 3.865 0.201
62.6642 3.927 0.202
62.6846 3.552 0.192
62.7051 3.417 0.189
62.7256 3.594 0.193
62.7460 3.594 0.193
62.7665 3.552 0.192
62.7870 3.750 0.198
62.8074 3.677 0.196
62.8279 3.813 0.199
62.8483 3.583 0.193
62.8688 3.719 0.197
62.8893 3.396 0.188
62.9097 3.729 0.197
62.9302 3.792 0.199
62.9507 3.969 0.203
62.9711 3.667 0.195
62.9916 3.677 0.196
63.0120 3.885 0.201
63.0325 4.010 0.204
63.0530 3.542 0.192
63.0734 4.000 0.204
63.0939 3.958 0.203
63.1144 3.708 0.197
63.1348 4.010 0.204
63.1553 3.615 0.194
63.1757 3.865 0.201
63.1962 3.813 0.199
63.2167 3.698 0.196
63.2371 3.750 0.198
63.2576 3.958 0.203
63.2781 3.885 0.201
63.2985 4.083 0.206
63.3190 4.083 0.206
63.3394 3.906 0.202
63.3599 4.052 0.205
63.3804 4.042 0.205
63.4008 4.135 0.208
63.4213 4.104 0.207
63.4418 3.865 0.201
63.4622 4.479 0.216
63.4827 4.042 0.205
63.5032 4.479 0.216
63.5236 4.177 0.209
63.5441 4.469 0.216
63.5645 4.344 0.213
63.5850 4.938 0.227
63.6055 4.146 0.208
63.6259 4.344 0.213
63.6464 4.448 0.215
63.6669 4.656 0.220
63.6873 4.948 0.227
63.7078 4.406 0.214
63.7282 4.156 0.208
63.7487 4.573 0.218
63.7692 4.635 0.220
63.7896 4.802 0.224
63.8101 4.531 0.217
63.8306 4.531 0.217
63.8510 4.625 0.219
63.8715 4.750 0.222
63.8919 4.750 0.222
63.9124 5.240 0.234
63.9329 5.052 0.229
63.9533 4.573 0.218
63.9738 4.563 0.218
63.9943 4.844 0.225
64.0147 5.375 0.237
64.0352 5.385 0.237
64.0556 5.000 0.228
64.0761 4.792 0.223
64.0966 4.906 0.226
64.1170 4.802 0.224
64.1375 4.854 0.225
64.1580 5.167 0.232
64.1784 4.594 0.219
64.1989 4.667 0.220
64.2193 5.052 0.229
64.2398 4.823 0.224
64.2603 4.844 0.225
64.2807 4.906 0.226
64.3012 5.010 0.228
64.3217 4.167 0.208
64.3421 4.844 0.225
64.3626 4.542 0.218
64.3831 5.021 0.229
64.4035 4.677 0.221
64.4240 5.125 0.231
64.4444 5.104 0.231
64.4649 5.594 0.241
64.4854 5.688 0.243
64.5058 5.521 0.240
64.5263 6.104 0.252
64.5468 6.646 0.263
64.5672 6.844 0.267
64.5877 7.792 0.285
64.6081 7.906 0.287
64.6286 7.719 0.284
64.6491 8.063 0.290
64.6695 7.802 0.285
64.6900 7.552 0.280
64.7105 6.594 0.262
64.7309 6.719 0.265
64.7514 6.552 0.261
64.7718 6.490 0.260
64.7923 6.406 0.258
64.8128 6.240 0.255
64.8332 6.198 0.254
64.8537 6.042 0.251
64.8742 5.844 0.247
64.8946 5.615 0.242
64.9151 5.000 0.228
64.9355 4.990 0.228
64.9560 5.125 0.231
64.9765 4.719 0.222
64.9969 4.448 0.215
65.0174 4.771 0.223
65.0379 4.354 0.213
65.0583 4.385 0.214
65.0788 4.427 0.215
65.0992 4.292 0.211
65.1197 3.979 0.204
65.1402 4.281 0.211
65.1606 4.406 0.214
65.1811 3.823 0.200
65.2016 3.948 0.203
65.2220 4.323 0.212
65.2425 4.354 0.213
65.2630 4.042 0.205
65.2834 4.479 0.216
65.3039 4.083 0.206
65.3243 4.510 0.217
65.3448 4.229 0.210
65.3653 4.313 0.212
65.3857 4.396 0.214
65.4062 5.115 0.231
65.4267 4.406 0.214
65.4471 4.844 0.225
65.4676 4.927 0.227
65.4880 4.531 0.217
65.5085 4.979 0.228
65.5290 5.427 0.238
65.5494 5.396 0.237
65.5699 5.417 0.238
65.5904 5.427 0.238
65.6108 5.365 0.236
65.6313 4.604 0.219
65.6517 4.844 0.225
65.6722 5.031 0.229
65.6927 4.750 0.222
65.7131 4.885 0.226
65.7336 4.781 0.223
65.7541 4.583 0.219
65.7745 4.344 0.213
65.7950 4.344 0.213
65.8154 4.500 0.217
65.8359 4.302 0.212
65.8564 4.458 0.216
65.8768 4.031 0.205
65.8973 4.115 0.207
65.9178 4.365 0.213
65.9382 4.302 0.212
65.9587 3.979 0.204
65.9791 4.250 0.210
65.9996 3.792 0.199
66.0201 3.729 0.197
66.0405 4.083 0.206
66.0610 4.052 0.205
66.0815 3.969 0.203
66.1019 3.677 0.196
66.1224 3.917 0.202
66.1429 3.719 0.197
66.1633 3.625 0.194
66.1838 3.875 0.201
66.2042 3.927 0.202
66.2247 3.740 0.197
66.2452 3.844 0.200
66.2656 4.063 0.206
66.2861 3.719 0.197
66.3066 3.979 0.204
66.3270 3.698 0.196
66.3475 4.021 0.205
66.3679 3.917 0.202
66.3884 4.229 0.210
66.4089 3.542 0.192
66.4293 3.708 0.197
66.4498 3.813 0.199
66.4703 3.479 0.190
66.4907 3.615 0.194
66.5112 3.760 0.198
66.5316 3.667 0.195
66.5521 3.625 0.194
66.5726 4.104 0.207
66.5930 4.063 0.206
66.6135 3.385 0.188
66.6340 3.656 0.195
66.6544 3.865 0.201
66.6749 3.885 0.201
66.6953 3.729 0.197
66.7158 3.656 0.195
66.7363 4.063 0.206
66.7567 4.417 0.214
66.7772 3.531 0.192
66.7977 4.219 0.210
66.8181 4.250 0.210
66.8386 3.719 0.197
66.8590 4.219 0.210
66.8795 3.906 0.202
66.9000 4.594 0.219
66.9204 4.010 0.204
66.9409 4.135 0.208
66.9614 4.573 0.218
66.9818 4.323 0.212
67.0023 4.729 0.222
67.0228 4.656 0.220
67.0432 5.229 0.233
67.0637 5.260 0.234
67.0841 5.646 0.243
67.1046 6.156 0.253
67.1251 6.427 0.259
67.1455 6.292 0.256
67.1660 7.104 0.272
67.1865 7.198 0.274
67.2069 6.854 0.267
67.2274 6.615 0.262
67.2478 6.115 0.252
67.2683 6.479 0.260
67.2888 6.021 0.250
67.3092 6.083 0.252
67.3297 5.844 0.247
67.3502 6.354 0.257
67.3706 6.073 0.252
67.3911 5.656 0.243
67.4115 5.688 0.243
67.4320 5.333 0.236
67.4525 4.552 0.218
67.4729 4.885 0.226
67.4934 4.573 0.218
67.5139 4.698 0.221
67.5343 5.083 0.230
67.5548 4.531 0.217
67.5752 4.719 0.222
67.5957 4.490 0.216
67.6162 4.313 0.212
67.6366 4.354 0.213
67.6571 4.500 0.217
67.6776 4.385 0.214
67.6980 4.281 0.211
67.7185 4.458 0.216
67.7389 4.656 0.220
67.7594 4.698 0.221
67.7799 4.729 0.222
67.8003 4.583 0.219
67.8208 4.135 0.208
67.8413 4.417 0.214
67.8617 4.146 0.208
67.8822 4.438 0.215
67.9027 4.083 0.206
67.9231 4.417 0.214
67.9436 4.573 0.218
67.9640 4.552 0.218
67.9845 4.323 0.212
68.0050 4.698 0.221
68.0254 4.135 0.208
68.0459 4.427 0.215
68.0664 4.375 0.213
68.0868 4.469 0.216
68.1073 4.188 0.209
68.1277 3.865 0.201
68.1482 4.271 0.211
68.1687 4.563 0.218
68.1891 4.854 0.225
68.2096 4.677 0.221
68.2301 4.865 0.225
68.2505 5.417 0.238
68.2710 4.969 0.228
68.2914 5.208 0.233
68.3119 5.260 0.234
68.3324 4.948 0.227
68.3528 5.063 0.230
68.3733 5.219 0.233
68.3938 5.052 0.229
68.4142 4.625 0.219
68.4347 4.271 0.211
68.4551 3.969 0.203
68.4756 4.302 0.212
68.4961 4.292 0.211
68.5165 4.135 0.208
68.5370 4.302 0.212
68.5575 4.281 0.211
68.5779 4.063 0.206
68.5984 4.458 0.216
68.6189 4.115 0.207
68.6393 4.135 0.208
68.6598 3.719 0.197
68.6802 3.625 0.194
68.7007 3.740 0.197
68.7212 3.833 0.200
68.7416 3.885 0.201
68.7621 3.750 0.198
68.7826 3.958 0.203
68.8030 3.698 0.196
68.8235 3.938 0.203
68.8439 3.729 0.197
68.8644 4.031 0.205
68.8849 3.802 0.199
68.9053 3.969 0.203
68.9258 3.781 0.198
68.9463 4.010 0.204
68.9667 4.313 0.212
68.9872 4.271 0.211
69.0076 4.365 0.213
69.0281 4.281 0.211
69.0486 4.740 0.222
69.0690 4.115 0.207
69.0895 4.552 0.218
69.1100 4.167 0.208
69.1304 4.792 0.223
69.1509 4.073 0.206
69.1713 4.219 0.210
69.1918 4.229 0.210
69.2123 4.313 0.212
69.2327 4.365 0.213
69.2532 4.729 0.222
69.2737 4.969 0.228
69.2941 4.458 0.216
69.3146 4.240 0.210
69.3350 4.083 0.206
69.3555 4.188 0.209
69.3760 3.698 0.196
69.3964 4.083 0.206
69.4169 3.990 0.204
69.4374 4.094 0.207
69.4578 3.677 0.196
69.4783 3.667 0.195
69.4988 3.896 0.201
69.5192 3.698 0.196
69.5397 3.229 0.183
69.5601 3.792 0.199
69.5806 3.625 0.194
69.6011 3.292 0.185
69.6215 3.188 0.182
69.6420 3.188 0.182
69.6625 3.323 0.186
69.6829 3.125 0.180
69.7034 3.177 0.182
69.7238 3.188 0.182
69.7443 3.021 0.177
69.7648 3.094 0.180
69.7852 3.427 0.189
69.8057 2.760 0.170
69.8262 3.021 0.177
69.8466 3.260 0.184
69.8671 3.510 0.191
69.8875 3.135 0.181
69.9080 3.208 0.183
69.9285 3.250 0.184
69.9489 3.167 0.182
69.9694 3.188 0.182
69.9899 3.260 0.184
70.0103 3.219 0.183
70.0308 3.469 0.190
70.0512 3.323 0.186
70.0717 3.208 0.183
70.0922 3.177 0.182
70.1126 3.438 0.189
70.1331 3.167 0.182
70.1536 3.156 0.181
70.1740 2.958 0.176
70.1945 3.042 0.178
70.2149 3.146 0.181
70.2354 3.198 0.183
70.2559 3.104 0.180
70.2763 3.260 0.184
70.2968 3.115 0.180
70.3173 3.219 0.183
70.3377 3.188 0.182
70.3582 3.250 0.184
70.3787 2.813 0.171
70.3991 3.146 0.181
70.4196 3.208 0.183
70.4400 3.250 0.184
70.4605 3.365 0.187
70.4810 3.063 0.179
70.5014 3.073 0.179
70.5219 3.115 0.180
70.5424 3.031 0.178
70.5628 3.125 0.180
70.5833 3.156 0.181
70.6037 3.052 0.178
70.6242 3.240 0.184
70.6447 2.917 0.174
70.6651 3.094 0.180
70.6856 3.198 0.183
70.7061 3.094 0.180
70.7265 2.958 0.176
70.7470 2.958 0.176
70.7674 3.115 0.180
70.7879 3.010 0.177
70.8084 2.885 0.173
70.8288 2.896 0.174
70.8493 3.083 0.179
70.8698 3.094 0.180
70.8902 3.375 0.188
70.9107 3.146 0.181
70.9311 3.542 0.192
70.9516 3.104 0.180
70.9721 2.969 0.176
70.9925 3.177 0.182
71.0130 3.125 0.180
71.0335 3.063 0.179
71.0539 2.865 0.173
71.0744 3.604 0.194
71.0948 3.542 0.192
71.1153 3.375 0.188
71.1358 3.229 0.183
71.1562 3.115 0.180
71.1767 3.323 0.186
71.1972 3.052 0.178
71.2176 3.250 0.184
71.2381 3.063 0.179
71.2586 3.292 0.185
71.2790 3.229 0.183
71.2995 3.094 0.180
71.3199 3.344 0.187
71.3404 3.281 0.185
71.3609 3.000 0.177
71.3813 2.875 0.173
71.4018 2.854 0.172
71.4223 3.219 0.183
71.4427 2.813 0.171
71.4632 2.906 0.174
71.4836 2.885 0.173
71.5041 3.115 0.180
71.5246 2.802 0.171
71.5450 2.771 0.170
71.5655 2.823 0.171
71.5860 2.958 0.176
71.6064 3.240 0.184
71.6269 2.906 0.174
71.6473 2.729 0.169
71.6678 2.719 0.168
71.6883 2.990 0.176
71.7087 3.063 0.179
71.7292 2.698 0.168
71.7497 2.885 0.173
71.7701 2.625 0.165
71.7906 2.792 0.171
71.8110 2.906 0.174
71.8315 2.979 0.176
71.8520 2.865 0.173
71.8724 2.771 0.170
71.8929 2.813 0.171
71.9134 2.771 0.170
71.9338 2.677 0.167
71.9543 2.781 0.170
71.9747 2.906 0.174
71.9952 2.990 0.176
72.0157 2.958 0.176
72.0361 2.792 0.171
72.0566 3.052 0.178
72.0771 2.792 0.171
72.0975 2.760 0.170
72.1180 2.552 0.163
72.1385 2.688 0.167
72.1589 2.854 0.172
72.1794 2.813 0.171
72.1998 2.729 0.169
72.2203 2.896 0.174
72.2408 2.792 0.171
72.2612 2.708 0.168
72.2817 2.844 0.172
72.3022 2.635 0.166
72.3226 3.031 0.178
72.3431 2.938 0.175
72.3635 2.750 0.169
72.3840 2.750 0.169
72.4045 2.844 0.172
72.4249 2.948 0.175
72.4454 3.010 0.177
72.4659 3.198 0.183
72.4863 2.583 0.164
72.5068 2.844 0.172
72.5272 3.010 0.177
72.5477 2.781 0.170
72.5682 3.115 0.180
72.5886 2.844 0.172
72.6091 3.073 0.179
72.6296 2.990 0.176
72.6500 2.958 0.176
72.6705 2.802 0.171
72.6909 3.010 0.177
72.7114 3.167 0.182
72.7319 3.083 0.179
72.7523 3.396 0.188
72.7728 3.271 0.185
72.7933 3.302 0.185
72.8137 3.146 0.181
72.8342 3.115 0.180
72.8547 3.625 0.194
72.8751 3.552 0.192
72.8956 3.427 0.189
72.9160 2.948 0.175
72.9365 3.094 0.180
72.9570 3.052 0.178
72.9774 2.844 0.172
72.9979 2.969 0.176
73.0184 3.104 0.180
73.0388 3.417 0.189
73.0593 2.917 0.174
73.0797 3.073 0.179
73.1002 2.990 0.176
73.1207 2.865 0.173
73.1411 3.229 0.183
73.1616 2.604 0.165
73.1821 2.854 0.172
73.2025 2.625 0.165
73.2230 2.667 0.167
73.2434 2.583 0.164
73.2639 2.938 0.175
73.2844 2.583 0.164
73.3048 2.656 0.166
73.3253 2.490 0.161
73.3458 2.990 0.176
73.3662 2.542 0.163
73.3867 2.667 0.167
73.4071 3.000 0.177
73.4276 2.760 0.170
73.4481 2.667 0.167
73.4685 2.604 0.165
73.4890 2.573 0.164
73.5095 2.448 0.160
73.5299 2.563 0.163
73.5504 2.594 0.164
73.5708 2.688 0.167
73.5913 2.750 0.169
73.6118 2.354 0.157
73.6322 2.521 0.162
73.6527 2.406 0.158
73.6732 2.396 0.158
73.6936 2.479 0.161
73.7141 2.625 0.165
73.7346 2.417 0.159
73.7550 2.500 0.161
73.7755 2.729 0.169
73.7959 2.927 0.175
73.8164 2.615 0.165
73.8369 2.792 0.171
73.8573 2.833 0.172
73.8778 2.771 0.170
73.8983 2.885 0.173
73.9187 2.635 0.166
73.9392 2.563 0.163
73.9596 2.604 0.165
73.9801 2.625 0.165
74.0006 2.875 0.173
74.0210 2.813 0.171
74.0415 2.792 0.171
74.0620 2.906 0.174
74.0824 2.875 0.173
74.1029 2.813 0.171
74.1233 2.521 0.162
74.1438 2.740 0.169
74.1643 2.688 0.167
74.1847 2.438 0.159
74.2052 2.948 0.175
74.2257 2.698 0.168
74.2461 2.781 0.170
74.2666 2.927 0.175
74.2870 3.031 0.178
74.3075 2.635 0.166
74.3280 2.438 0.159
74.3484 2.656 0.166
74.3689 2.563 0.163
74.3894 2.677 0.167
74.4098 2.813 0.171
74.4303 2.406 0.158
74.4507 2.260 0.153
74.4712 2.625 0.165
74.4917 2.458 0.160
74.5121 2.344 0.156
74.5326 2.385 0.158
74.5531 2.510 0.162
74.5735 2.656 0.166
74.5940 2.729 0.169
74.6145 2.427 0.159
74.6349 2.729 0.169
74.6554 2.656 0.166
74.6758 2.396 0.158
74.6963 2.490 0.161
74.7168 2.771 0.170
74.7372 2.490 0.161
74.7577 2.688 0.167
74.7782 2.750 0.169
74.7986 2.781 0.170
74.8191 2.760 0.170
74.8395 2.469 0.160
74.8600 2.469 0.160
74.8805 2.458 0.160
74.9009 2.281 0.154
74.9214 2.719 0.168
74.9419 2.563 0.163
74.9623 2.365 0.157
74.9828 2.802 0.171
75.0032 2.740 0.169
75.0237 2.521 0.162
75.0442 2.521 0.162
75.0646 2.615 0.165
75.0851 2.688 0.167
75.1056 2.552 0.163
75.1260 2.844 0.172
75.1465 2.375 0.157
75.1669 2.542 0.163
75.1874 2.698 0.168
75.2079 2.563 0.163
75.2283 2.396 0.158
75.2488 2.479 0.161
75.2693 2.438 0.159
75.2897 2.865 0.173
75.3102 2.521 0.162
75.3306 2.875 0.173
75.3511 2.906 0.174
75.3716 2.552 0.163
75.3920 2.323 0.156
75.4125 2.677 0.167
75.4330 2.760 0.170
75.4534 2.552 0.163
75.4739 2.688 0.167
75.4944 2.844 0.172
75.5148 2.542 0.163
75.5353 2.885 0.173
75.5557 2.521 0.162
75.5762 2.844 0.172
75.5967 2.708 0.168
75.6171 3.063 0.179
75.6376 3.115 0.180
75.6581 2.917 0.174
75.6785 3.260 0.184
75.6990 3.125 0.180
75.7194 3.688 0.196
75.7399 3.323 0.186
75.7604 3.229 0.183
75.7808 3.990 0.204
75.8013 3.635 0.195
75.8218 3.958 0.203
75.8422 3.688 0.196
75.8627 3.813 0.199
75.8831 3.823 0.200
75.9036 3.469 0.190
75.9241 3.729 0.197
75.9445 3.646 0.195
75.9650 3.417 0.189
75.9855 3.594 0.193
76.0059 3.417 0.189
76.0264 3.385 0.188
76.0468 3.281 0.185
76.0673 3.385 0.188
76.0878 3.438 0.189
76.1082 3.375 0.188
76.1287 2.844 0.172
76.1492 3.240 0.184
76.1696 2.958 0.176
76.1901 3.104 0.180
76.2105 3.063 0.179
76.2310 2.771 0.170
76.2515 2.865 0.173
76.2719 2.719 0.168
76.2924 2.844 0.172
76.3129 2.781 0.170
76.3333 2.521 0.162
76.3538 2.938 0.175
76.3743 2.917 0.174
76.3947 3.094 0.180
76.4152 2.969 0.176
76.4356 2.760 0.170
76.4561 2.781 0.170
76.4766 2.604 0.165
76.4970 2.385 0.158
76.5175 2.656 0.166
76.5380 2.875 0.173
76.5584 2.823 0.171
76.5789 2.677 0.167
76.5993 2.604 0.165
76.6198 2.698 0.168
76.6403 2.833 0.172
76.6607 2.594 0.164
76.6812 2.938 0.175
76.7017 2.698 0.168
76.7221 2.896 0.174
76.7426 2.677 0.167
76.7630 2.531 0.162
76.7835 2.823 0.171
76.8040 2.510 0.162
76.8244 2.750 0.169
76.8449 2.698 0.168
76.8654 2.635 0.166
76.8858 2.677 0.167
76.9063 2.500 0.161
76.9267 2.302 0.155
76.9472 2.844 0.172
76.9677 2.729 0.169
76.9881 2.646 0.166
77.0086 2.677 0.167
77.0291 2.875 0.173
77.0495 2.354 0.157
77.0700 2.677 0.167
77.0905 2.719 0.168
77.1109 2.708 0.168
77.1314 2.844 0.172
77.1518 2.625 0.165
77.1723 2.604 0.165
77.1928 2.406 0.158
77.2132 2.708 0.168
77.2337 3.323 0.186
77.2542 2.708 0.168
77.2746 2.552 0.163
77.2951 2.917 0.174
77.3155 2.969 0.176
77.3360 2.833 0.172
77.3565 3.302 0.185
77.3769 2.896 0.174
77.3974 2.875 0.173
77.4179 3.063 0.179
77.4383 3.156 0.181
77.4588 3.563 0.193
77.4792 3.010 0.177
77.4997 3.167 0.182
77.5202 3.292 0.185
77.5406 3.469 0.190
77.5611 3.302 0.185
77.5816 3.365 0.187
77.6020 3.031 0.178
77.6225 3.813 0.199
77.6429 3.031 0.178
77.6634 3.490 0.191
77.6839 3.125 0.180
77.7043 3.240 0.184
77.7248 3.594 0.193
77.7453 3.198 0.183
77.7657 3.344 0.187
77.7862 3.250 0.184
77.8066 3.240 0.184
77.8271 3.198 0.183
77.8476 2.990 0.176
77.8680 2.844 0.172
77.8885 3.333 0.186
77.9090 3.115 0.180
77.9294 2.958 0.176
77.9499 2.958 0.176
77.9704 2.833 0.172
77.9908 3.167 0.182
78.0113 3.031 0.178
78.0317 2.896 0.174
78.0522 2.948 0.175
78.0727 2.781 0.170
78.0931 3.135 0.181
78.1136 2.760 0.170
78.1341 2.792 0.171
78.1545 2.844 0.172
78.1750 2.750 0.169
78.1954 2.969 0.176
78.2159 3.000 0.177
78.2364 3.104 0.180
78.2568 3.073 0.179
78.2773 2.885 0.173
78.2978 3.073 0.179
78.3182 3.083 0.179
78.3387 3.000 0.177
78.3591 3.021 0.177
78.3796 3.094 0.180
78.4001 3.135 0.181
78.4205 3.396 0.188
78.4410 3.250 0.184
78.4615 3.219 0.183
78.4819 2.958 0.176
78.5024 2.906 0.174
78.5228 2.875 0.173
78.5433 3.000 0.177
78.5638 2.740 0.169
78.5842 3.417 0.189
78.6047 3.052 0.178
78.6252 2.750 0.169
78.6456 3.000 0.177
78.6661 3.156 0.181
78.6865 2.604 0.165
78.7070 3.031 0.178
78.7275 3.052 0.178
78.7479 3.167 0.182
78.7684 3.073 0.179
78.7889 3.104 0.180
78.8093 2.979 0.176
78.8298 2.823 0.171
78.8503 2.875 0.173
78.8707 3.125 0.180
78.8912 2.885 0.173
78.9116 3.208 0.183
78.9321 2.917 0.174
78.9526 3.073 0.179
78.9730 3.021 0.177
78.9935 3.052 0.178
79.0140 2.813 0.171
79.0344 2.854 0.172
79.0549 2.802 0.171
79.0753 2.896 0.174
79.0958 2.948 0.175
79.1163 2.854 0.172
79.1367 2.823 0.171
79.1572 2.740 0.169
79.1777 2.979 0.176
79.1981 3.031 0.178
79.2186 3.031 0.178
79.2390 2.813 0.171
79.2595 3.042 0.178
79.2800 2.917 0.174
79.3004 2.802 0.171
79.3209 2.990 0.176
79.3414 2.885 0.173
79.3618 3.313 0.186
79.3823 2.865 0.173
79.4027 3.052 0.178
79.4232 3.271 0.185
79.4437 3.115 0.180
79.4641 3.156 0.181
79.4846 2.885 0.173
79.5051 3.375 0.188
79.5255 3.177 0.182
79.5460 3.354 0.187
79.5664 3.313 0.186
79.5869 3.479 0.190
79.6074 3.344 0.187
79.6278 3.688 0.196
79.6483 3.417 0.189
79.6688 3.531 0.192
79.6892 3.427 0.189
79.7097 3.000 0.177
79.7302 2.781 0.170
79.7506 3.229 0.183
79.7711 3.042 0.178
79.7915 2.958 0.176
79.8120 3.167 0.182
79.8325 3.188 0.182
79.8529 2.771 0.170
79.8734 2.708 0.168
79.8939 2.885 0.173
79.9143 2.906 0.174
79.9348 2.708 0.168
79.9552 2.938 0.175
79.9757 2.760 0.170
79.9962 2.990 0.176
