'Id: "" Comment: "" Operator: "Lab Manager" Anode: "Cu" Scantype: "Locked Coupled" TimePerStep: "96" X: "0" Y: "0" Z: "0" 
5.0000 23.938 0.499
5.0205 24.156 0.502
5.0409 23.042 0.490
5.0614 22.417 0.483
5.0819 23.250 0.492
5.1023 23.469 0.494
5.1228 22.854 0.488
5.1432 23.583 0.496
5.1637 22.802 0.487
5.1842 23.615 0.496
5.2046 22.833 0.488
5.2251 23.292 0.493
5.2456 22.969 0.489
5.2660 23.146 0.491
5.2865 23.125 0.491
5.3069 22.271 0.482
5.3274 24.229 0.502
5.3479 22.865 0.488
5.3683 23.333 0.493
5.3888 23.021 0.490
5.4093 22.906 0.488
5.4297 22.583 0.485
5.4502 21.906 0.478
5.4706 22.188 0.481
5.4911 21.385 0.472
5.5116 23.031 0.490
5.5320 21.510 0.473
5.5525 22.531 0.484
5.5730 22.500 0.484
5.5934 21.594 0.474
5.6139 22.573 0.485
5.6343 22.448 0.484
5.6548 21.698 0.475
5.6753 22.635 0.486
5.6957 21.417 0.472
5.7162 21.760 0.476
5.7367 21.583 0.474
5.7571 21.344 0.472
5.7776 21.500 0.473
5.7980 21.188 0.470
5.8185 21.802 0.477
5.8390 20.990 0.468
5.8594 22.219 0.481
5.8799 21.896 0.478
5.9004 21.948 0.478
5.9208 21.385 0.472
5.9413 20.844 0.466
5.9618 22.281 0.482
5.9822 20.906 0.467
6.0027 21.323 0.471
6.0231 20.802 0.465
6.0436 21.958 0.478
6.0641 21.885 0.477
6.0845 21.385 0.472
6.1050 21.271 0.471
6.1255 21.469 0.473
6.1459 20.729 0.465
6.1664 20.323 0.460
6.1868 21.323 0.471
6.2073 21.646 0.475
6.2278 20.833 0.466
6.2482 20.448 0.462
6.2687 21.833 0.477
6.2892 22.313 0.482
6.3096 21.698 0.475
6.3301 20.396 0.461
6.3505 22.333 0.482
6.3710 20.792 0.465
6.3915 20.531 0.462
6.4119 20.354 0.460
6.4324 22.375 0.483
6.4529 21.750 0.476
6.4733 20.885 0.466
6.4938 21.104 0.469
6.5142 20.771 0.465
6.5347 21.250 0.470
6.5552 21.083 0.469
6.5756 20.875 0.466
6.5961 21.104 0.469
6.6166 21.583 0.474
6.6370 22.104 0.480
6.6575 21.250 0.470
6.6779 20.469 0.462
6.6984 20.677 0.464
6.7189 21.865 0.477
6.7393 21.552 0.474
6.7598 20.927 0.467
6.7803 21.156 0.469
6.8007 21.167 0.470
6.8212 21.135 0.469
6.8417 20.469 0.462
6.8621 21.208 0.470
6.8826 20.823 0.466
6.9030 21.823 0.477
6.9235 21.323 0.471
6.9440 22.031 0.479
6.9644 22.958 0.489
6.9849 23.021 0.490
7.0054 22.500 0.484
7.0258 24.292 0.503
7.0463 22.844 0.488
7.0667 24.240 0.502
7.0872 22.948 0.489
7.1077 21.771 0.476
7.1281 22.896 0.488
7.1486 22.156 0.480
7.1691 21.719 0.476
7.1895 22.333 0.482
7.2100 22.333 0.482
7.2304 21.250 0.470
7.2509 22.396 0.483
7.2714 22.854 0.488
7.2918 23.104 0.491
7.3123 21.729 0.476
7.3328 21.625 0.475
7.3532 21.292 0.471
7.3737 21.573 0.474
7.3941 22.115 0.480
7.4146 21.771 0.476
7.4351 22.438 0.483
7.4555 21.896 0.478
7.4760 21.208 0.470
7.4965 21.708 0.476
7.5169 21.719 0.476
7.5374 22.385 0.483
7.5579 21.938 0.478
7.5783 22.094 0.480
7.5988 21.521 0.473
7.6192 20.885 0.466
7.6397 23.042 0.490
7.6602 22.542 0.485
7.6806 22.156 0.480
7.7011 21.500 0.473
7.7216 21.885 0.477
7.7420 21.448 0.473
7.7625 21.646 0.475
7.7829 21.677 0.475
7.8034 22.031 0.479
7.8239 21.948 0.478
7.8443 21.490 0.473
7.8648 22.219 0.481
7.8853 22.073 0.480
7.9057 23.219 0.492
7.9262 22.448 0.484
7.9466 22.896 0.488
7.9671 22.604 0.485
7.9876 22.229 0.481
8.0080 21.938 0.478
8.0285 21.865 0.477
8.0490 22.469 0.484
8.0694 21.792 0.476
8.0899 22.052 0.479
8.1103 22.948 0.489
8.1308 22.542 0.485
8.1513 22.771 0.487
8.1717 22.979 0.489
8.1922 23.740 0.497
8.2127 22.479 0.484
8.2331 23.073 0.490
8.2536 22.896 0.488
8.2740 22.542 0.485
8.2945 23.031 0.490
8.3150 22.458 0.484
8.3354 23.000 0.489
8.3559 22.781 0.487
8.3764 23.792 0.498
8.3968 23.740 0.497
8.4173 22.760 0.487
8.4378 22.844 0.488
8.4582 21.750 0.476
8.4787 23.635 0.496
8.4991 23.156 0.491
8.5196 22.865 0.488
8.5401 23.104 0.491
8.5605 24.010 0.500
8.5810 23.448 0.494
8.6015 23.927 0.499
8.6219 24.344 0.504
8.6424 23.990 0.500
8.6628 24.698 0.507
8.6833 25.500 0.515
8.7038 24.844 0.509
8.7242 24.302 0.503
8.7447 25.146 0.512
8.7652 25.083 0.511
8.7856 25.177 0.512
8.8061 26.260 0.523
8.8265 26.969 0.530
8.8470 28.052 0.541
8.8675 28.823 0.548
8.8879 30.302 0.562
8.9084 31.990 0.577
8.9289 30.396 0.563
8.9493 31.542 0.573
8.9698 31.906 0.577
8.9902 33.146 0.588
9.0107 34.229 0.597
9.0312 38.854 0.636
9.0516 41.646 0.659
9.0721 45.010 0.685
9.0926 47.667 0.705
9.1130 49.927 0.721
9.1335 50.990 0.729
9.1539 58.115 0.778
9.1744 68.844 0.847
9.1949 83.948 0.935
9.2153 107.750 1.059
9.2358 136.094 1.191
9.2563 169.219 1.328
9.2767 178.208 1.362
9.2972 171.490 1.337
9.3177 153.396 1.264
9.3381 136.740 1.193
9.3586 127.719 1.153
9.3790 119.594 1.116
9.3995 114.583 1.093
9.4200 113.490 1.087
9.4404 111.177 1.076
9.4609 114.208 1.091
9.4814 115.323 1.096
9.5018 122.688 1.130
9.5223 132.500 1.175
9.5427 140.063 1.208
9.5632 151.292 1.255
9.5837 159.490 1.289
9.6041 171.448 1.336
9.6246 183.750 1.383
9.6451 197.427 1.434
9.6655 216.146 1.501
9.6860 236.990 1.571
9.7064 270.958 1.680
9.7269 317.052 1.817
9.7474 387.781 2.010
9.7678 518.635 2.324
9.7883 737.000 2.771
9.8088 1089.979 3.370
9.8292 1594.125 4.075
9.8497 2317.240 4.913
9.8701 2617.802 5.222
9.8906 1786.958 4.314
9.9111 826.031 2.933
9.9315 333.000 1.862
9.9520 177.521 1.360
9.9725 129.948 1.163
9.9929 110.719 1.074
10.0134 99.656 1.019
10.0338 91.021 0.974
10.0543 84.427 0.938
10.0748 79.708 0.911
10.0952 70.250 0.855
10.1157 61.646 0.801
10.1362 50.823 0.728
10.1566 45.448 0.688
10.1771 42.448 0.665
10.1976 40.510 0.650
10.2180 38.219 0.631
10.2385 38.365 0.632
10.2589 36.302 0.615
10.2794 34.667 0.601
10.2999 34.760 0.602
10.3203 34.229 0.597
10.3408 34.417 0.599
10.3613 32.615 0.583
10.3817 32.688 0.584
10.4022 32.427 0.581
10.4226 31.198 0.570
10.4431 30.906 0.567
10.4636 30.448 0.563
10.4840 30.875 0.567
10.5045 30.042 0.559
10.5250 29.427 0.554
10.5454 28.854 0.548
10.5659 28.469 0.545
10.5863 29.115 0.551
10.6068 28.396 0.544
10.6273 27.865 0.539
10.6477 28.010 0.540
10.6682 29.417 0.554
10.6887 28.563 0.545
10.7091 26.844 0.529
10.7296 27.719 0.537
10.7500 27.219 0.532
10.7705 27.042 0.531
10.7910 25.740 0.518
10.8114 25.813 0.519
10.8319 26.760 0.528
10.8524 25.458 0.515
10.8728 24.823 0.508
10.8933 25.979 0.520
10.9137 25.833 0.519
10.9342 24.990 0.510
10.9547 24.260 0.503
10.9751 23.438 0.494
10.9956 24.375 0.504
11.0161 24.167 0.502
11.0365 23.250 0.492
11.0570 22.896 0.488
11.0775 22.229 0.481
11.0979 23.958 0.500
11.1184 23.479 0.495
11.1388 23.135 0.491
11.1593 23.063 0.490
11.1798 22.365 0.483
11.2002 22.052 0.479
11.2207 21.844 0.477
11.2412 22.073 0.480
11.2616 21.667 0.475
11.2821 21.760 0.476
11.3025 20.979 0.467
11.3230 20.500 0.462
11.3435 20.448 0.462
11.3639 19.938 0.456
11.3844 20.490 0.462
11.4049 20.438 0.461
11.4253 20.063 0.457
11.4458 19.677 0.453
11.4662 20.354 0.460
11.4867 20.354 0.460
11.5072 19.531 0.451
11.5276 19.552 0.451
11.5481 19.875 0.455
11.5686 19.583 0.452
11.5890 18.542 0.439
11.6095 19.156 0.447
11.6299 18.781 0.442
11.6504 19.104 0.446
11.6709 19.188 0.447
11.6913 18.438 0.438
11.7118 18.792 0.442
11.7323 18.260 0.436
11.7527 18.583 0.440
11.7732 17.604 0.428
11.7937 17.500 0.427
11.8141 17.760 0.430
11.8346 17.010 0.421
11.8550 17.469 0.427
11.8755 17.323 0.425
11.8960 16.854 0.419
11.9164 17.833 0.431
11.9369 17.563 0.428
11.9574 16.469 0.414
11.9778 16.969 0.420
11.9983 16.885 0.419
12.0187 17.031 0.421
12.0392 16.958 0.420
12.0597 16.646 0.416
12.0801 16.625 0.416
12.1006 16.552 0.415
12.1211 16.885 0.419
12.1415 16.156 0.410
12.1620 16.646 0.416
12.1824 15.438 0.401
12.2029 16.615 0.416
12.2234 15.469 0.401
12.2438 15.938 0.407
12.2643 15.750 0.405
12.2848 15.740 0.405
12.3052 16.104 0.410
12.3257 15.906 0.407
12.3461 15.688 0.404
12.3666 15.219 0.398
12.3871 15.094 0.397
12.4075 14.969 0.395
12.4280 15.208 0.398
12.4485 15.167 0.397
12.4689 14.792 0.393
12.4894 15.010 0.395
12.5098 14.292 0.386
12.5303 14.490 0.389
12.5508 14.510 0.389
12.5712 13.635 0.377
12.5917 14.302 0.386
12.6122 14.750 0.392
12.6326 13.729 0.378
12.6531 14.260 0.385
12.6736 14.542 0.389
12.6940 14.302 0.386
12.7145 14.438 0.388
12.7349 14.031 0.382
12.7554 13.979 0.382
12.7759 13.833 0.380
12.7963 13.656 0.377
12.8168 13.458 0.374
12.8373 13.479 0.375
12.8577 13.646 0.377
12.8782 14.219 0.385
12.8986 12.969 0.368
12.9191 13.813 0.379
12.9396 13.073 0.369
12.9600 12.656 0.363
12.9805 13.115 0.370
13.0010 13.073 0.369
13.0214 13.552 0.376
13.0419 12.906 0.367
13.0623 13.083 0.369
13.0828 13.135 0.370
13.1033 13.167 0.370
13.1237 13.135 0.370
13.1442 12.875 0.366
13.1647 12.188 0.356
13.1851 13.010 0.368
13.2056 12.979 0.368
13.2260 12.260 0.357
13.2465 12.656 0.363
13.2670 11.823 0.351
13.2874 12.115 0.355
13.3079 12.292 0.358
13.3284 12.927 0.367
13.3488 12.750 0.364
13.3693 12.323 0.358
13.3897 12.688 0.364
13.4102 12.448 0.360
13.4307 11.823 0.351
13.4511 11.875 0.352
13.4716 12.344 0.359
13.4921 12.385 0.359
13.5125 12.219 0.357
13.5330 12.031 0.354
13.5535 12.344 0.359
13.5739 12.396 0.359
13.5944 11.656 0.348
13.6148 11.208 0.342
13.6353 12.313 0.358
13.6558 12.010 0.354
13.6762 11.948 0.353
13.6967 11.531 0.347
13.7172 11.781 0.350
13.7376 11.469 0.346
13.7581 11.719 0.349
13.7785 12.188 0.356
13.7990 11.854 0.351
13.8195 11.865 0.352
13.8399 10.948 0.338
13.8604 11.344 0.344
13.8809 11.781 0.350
13.9013 11.542 0.347
13.9218 11.188 0.341
13.9422 11.635 0.348
13.9627 11.260 0.342
13.9832 10.990 0.338
14.0036 11.010 0.339
14.0241 11.750 0.350
14.0446 12.240 0.357
14.0650 12.208 0.357
14.0855 12.625 0.363
14.1059 12.396 0.359
14.1264 12.365 0.359
14.1469 11.052 0.339
14.1673 11.417 0.345
14.1878 11.354 0.344
14.2083 11.594 0.348
14.2287 11.500 0.346
14.2492 10.896 0.337
14.2696 10.865 0.336
14.2901 10.406 0.329
14.3106 11.115 0.340
14.3310 10.823 0.336
14.3515 10.490 0.331
14.3720 10.635 0.333
14.3924 10.417 0.329
14.4129 10.896 0.337
14.4334 10.698 0.334
14.4538 10.052 0.324
14.4743 10.677 0.333
14.4947 10.708 0.334
14.5152 10.406 0.329
14.5357 10.417 0.329
14.5561 10.521 0.331
14.5766 10.313 0.328
14.5971 10.760 0.335
14.6175 10.281 0.327
14.6380 10.990 0.338
14.6584 11.135 0.341
14.6789 10.802 0.335
14.6994 11.188 0.341
14.7198 10.833 0.336
14.7403 9.583 0.316
14.7608 9.813 0.320
14.7812 9.958 0.322
14.8017 10.500 0.331
14.8221 10.229 0.326
14.8426 9.927 0.322
14.8631 9.667 0.317
14.8835 9.958 0.322
14.9040 9.396 0.313
14.9245 9.875 0.321
14.9449 10.083 0.324
14.9654 9.917 0.321
14.9858 10.313 0.328
15.0063 10.198 0.326
15.0268 9.802 0.320
15.0472 9.813 0.320
15.0677 9.948 0.322
15.0882 9.688 0.318
15.1086 9.833 0.320
15.1291 9.885 0.321
15.1495 9.531 0.315
15.1700 10.167 0.325
15.1905 9.438 0.314
15.2109 9.771 0.319
15.2314 9.365 0.312
15.2519 9.448 0.314
15.2723 9.469 0.314
15.2928 9.052 0.307
15.3133 9.250 0.310
15.3337 9.469 0.314
15.3542 9.563 0.316
15.3746 9.198 0.310
15.3951 9.813 0.320
15.4156 9.833 0.320
15.4360 9.677 0.317
15.4565 9.531 0.315
15.4770 9.698 0.318
15.4974 9.521 0.315
15.5179 9.271 0.311
15.5383 9.656 0.317
15.5588 9.583 0.316
15.5793 10.365 0.329
15.5997 9.229 0.310
15.6202 9.458 0.314
15.6407 9.531 0.315
15.6611 9.833 0.320
15.6816 10.063 0.324
15.7020 9.885 0.321
15.7225 10.875 0.337
15.7430 11.771 0.350
15.7634 11.969 0.353
15.7839 12.490 0.361
15.8044 11.156 0.341
15.8248 10.115 0.325
15.8453 9.865 0.321
15.8657 9.333 0.312
15.8862 9.865 0.321
15.9067 9.448 0.314
15.9271 8.958 0.305
15.9476 8.979 0.306
15.9681 9.521 0.315
15.9885 9.490 0.314
16.0090 8.958 0.305
16.0295 9.604 0.316
16.0499 9.583 0.316
16.0704 8.990 0.306
16.0908 9.188 0.309
16.1113 9.135 0.308
16.1318 8.563 0.299
16.1522 9.156 0.309
16.1727 8.760 0.302
16.1932 9.073 0.307
16.2136 9.365 0.312
16.2341 8.875 0.304
16.2545 9.427 0.313
16.2750 9.313 0.311
16.2955 8.844 0.304
16.3159 9.313 0.311
16.3364 9.115 0.308
16.3569 9.302 0.311
16.3773 9.427 0.313
16.3978 9.094 0.308
16.4182 9.375 0.313
16.4387 8.823 0.303
16.4592 9.448 0.314
16.4796 9.219 0.310
16.5001 8.854 0.304
16.5206 9.708 0.318
16.5410 8.885 0.304
16.5615 8.740 0.302
16.5819 9.281 0.311
16.6024 8.969 0.306
16.6229 8.896 0.304
16.6433 8.500 0.298
16.6638 8.708 0.301
16.6843 8.802 0.303
16.7047 8.667 0.300
16.7252 9.146 0.309
16.7456 9.188 0.309
16.7661 9.281 0.311
16.7866 8.510 0.298
16.8070 8.604 0.299
16.8275 9.042 0.307
16.8480 9.188 0.309
16.8684 8.792 0.303
16.8889 9.104 0.308
16.9094 8.885 0.304
16.9298 8.688 0.301
16.9503 8.771 0.302
16.9707 8.854 0.304
16.9912 8.958 0.305
17.0117 8.833 0.303
17.0321 8.594 0.299
17.0526 9.271 0.311
17.0731 8.323 0.294
17.0935 8.833 0.303
17.1140 9.083 0.308
17.1344 9.042 0.307
17.1549 9.396 0.313
17.1754 8.958 0.305
17.1958 8.823 0.303
17.2163 9.271 0.311
17.2368 8.479 0.297
17.2572 9.240 0.310
17.2777 9.292 0.311
17.2981 9.750 0.319
17.3186 10.010 0.323
17.3391 9.802 0.320
17.3595 10.719 0.334
17.3800 10.917 0.337
17.4005 11.010 0.339
17.4209 11.542 0.347
17.4414 11.708 0.349
17.4618 11.750 0.350
17.4823 12.271 0.358
17.5028 12.406 0.359
17.5232 12.531 0.361
17.5437 13.219 0.371
17.5642 12.240 0.357
17.5846 11.740 0.350
17.6051 12.167 0.356
17.6255 11.604 0.348
17.6460 11.594 0.348
17.6665 11.156 0.341
17.6869 10.688 0.334
17.7074 10.625 0.333
17.7279 10.865 0.336
17.7483 10.813 0.336
17.7688 11.542 0.347
17.7893 11.573 0.347
17.8097 12.219 0.357
17.8302 12.792 0.365
17.8506 13.615 0.377
17.8711 13.896 0.380
17.8916 13.229 0.371
17.9120 12.813 0.365
17.9325 13.021 0.368
17.9530 13.625 0.377
17.9734 14.490 0.389
17.9939 15.427 0.401
18.0143 17.281 0.424
18.0348 19.125 0.446
18.0553 18.979 0.445
18.0757 19.844 0.455
18.0962 20.292 0.460
18.1167 19.802 0.454
18.1371 22.042 0.479
18.1576 23.521 0.495
18.1780 28.760 0.547
18.1985 35.833 0.611
18.2190 45.844 0.691
18.2394 58.740 0.782
18.2599 77.125 0.896
18.2804 85.083 0.941
18.3008 80.927 0.918
18.3213 68.604 0.845
18.3417 56.281 0.766
18.3622 42.500 0.665
18.3827 36.208 0.614
18.4031 32.042 0.578
18.4236 30.615 0.565
18.4441 28.938 0.549
18.4645 29.573 0.555
18.4850 30.896 0.567
18.5054 32.344 0.580
18.5259 36.969 0.621
18.5464 42.990 0.669
18.5668 50.208 0.723
18.5873 57.823 0.776
18.6078 57.438 0.774
18.6282 56.615 0.768
18.6487 52.094 0.737
18.6692 46.021 0.692
18.6896 43.052 0.670
18.7101 39.188 0.639
18.7305 36.365 0.615
18.7510 36.156 0.614
18.7715 34.708 0.601
18.7919 34.083 0.596
18.8124 33.292 0.589
18.8329 31.802 0.576
18.8533 30.802 0.566
18.8738 28.688 0.547
18.8942 26.271 0.523
18.9147 26.458 0.525
18.9352 24.938 0.510
18.9556 25.604 0.516
18.9761 23.917 0.499
18.9966 24.208 0.502
19.0170 22.875 0.488
19.0375 22.552 0.485
19.0579 23.375 0.493
19.0784 22.688 0.486
19.0989 23.917 0.499
19.1193 23.750 0.497
19.1398 24.427 0.504
19.1603 25.208 0.512
19.1807 24.583 0.506
19.2012 25.510 0.515
19.2216 25.698 0.517
19.2421 25.427 0.515
19.2626 25.063 0.511
19.2830 26.313 0.524
19.3035 26.240 0.523
19.3240 26.271 0.523
19.3444 28.240 0.542
19.3649 27.552 0.536
19.3853 28.531 0.545
19.4058 29.917 0.558
19.4263 32.146 0.579
19.4467 31.604 0.574
19.4672 33.740 0.593
19.4877 35.417 0.607
19.5081 39.083 0.638
19.5286 42.917 0.669
19.5491 45.333 0.687
19.5695 49.208 0.716
19.5900 51.688 0.734
19.6104 57.104 0.771
19.6309 61.083 0.798
19.6514 68.563 0.845
19.6718 77.396 0.898
19.6923 94.042 0.990
19.7128 119.667 1.116
19.7332 168.354 1.324
19.7537 260.896 1.649
19.7741 414.510 2.078
19.7946 643.146 2.588
19.8151 724.927 2.748
19.8355 475.875 2.226
19.8560 399.125 2.039
19.8765 246.385 1.602
19.8969 101.771 1.030
19.9174 60.958 0.797
19.9378 47.677 0.705
19.9583 39.990 0.645
19.9788 35.615 0.609
19.9992 33.427 0.590
20.0197 31.000 0.568
20.0402 28.646 0.546
20.0606 26.365 0.524
20.0811 23.573 0.496
20.1015 23.010 0.490
20.1220 21.958 0.478
20.1425 22.479 0.484
20.1629 22.927 0.489
20.1834 26.083 0.521
20.2039 28.979 0.549
20.2243 34.052 0.596
20.2448 39.021 0.638
20.2653 43.010 0.669
20.2857 43.198 0.671
20.3062 40.177 0.647
20.3266 35.094 0.605
20.3471 30.896 0.567
20.3676 26.656 0.527
20.3880 24.948 0.510
20.4085 24.365 0.504
20.4290 23.698 0.497
20.4494 23.500 0.495
20.4699 25.031 0.511
20.4903 26.198 0.522
20.5108 26.104 0.521
20.5313 26.573 0.526
20.5517 23.052 0.490
20.5722 20.656 0.464
20.5927 19.417 0.450
20.6131 16.729 0.417
20.6336 15.813 0.406
20.6540 14.948 0.395
20.6745 13.948 0.381
20.6950 12.771 0.365
20.7154 12.917 0.367
20.7359 12.594 0.362
20.7564 12.302 0.358
20.7768 12.083 0.355
20.7973 12.010 0.354
20.8177 12.427 0.360
20.8382 11.938 0.353
20.8587 12.000 0.354
20.8791 11.719 0.349
20.8996 12.042 0.354
20.9201 11.583 0.347
20.9405 11.521 0.346
20.9610 10.615 0.333
20.9814 11.542 0.347
21.0019 11.510 0.346
21.0224 10.635 0.333
21.0428 11.906 0.352
21.0633 11.167 0.341
21.0838 12.031 0.354
21.1042 11.792 0.350
21.1247 11.646 0.348
21.1452 11.573 0.347
21.1656 11.740 0.350
21.1861 12.510 0.361
21.2065 12.500 0.361
21.2270 12.260 0.357
21.2475 12.177 0.356
21.2679 11.823 0.351
21.2884 11.698 0.349
21.3089 11.229 0.342
21.3293 11.313 0.343
21.3498 11.396 0.345
21.3702 11.115 0.340
21.3907 11.260 0.342
21.4112 11.365 0.344
21.4316 10.479 0.330
21.4521 11.271 0.343
21.4726 10.990 0.338
21.4930 10.677 0.333
21.5135 11.542 0.347
21.5339 11.052 0.339
21.5544 10.458 0.330
21.5749 10.854 0.336
21.5953 10.906 0.337
21.6158 11.490 0.346
21.6363 10.583 0.332
21.6567 11.000 0.339
21.6772 12.260 0.357
21.6976 11.292 0.343
21.7181 12.250 0.357
21.7386 12.302 0.358
21.7590 12.240 0.357
21.7795 11.177 0.341
21.8000 11.969 0.353
21.8204 11.063 0.339
21.8409 11.344 0.344
21.8613 10.740 0.334
21.8818 10.958 0.338
21.9023 11.354 0.344
21.9227 11.490 0.346
21.9432 11.365 0.344
21.9637 11.875 0.352
21.9841 11.875 0.352
22.0046 11.938 0.353
22.0251 12.833 0.366
22.0455 13.552 0.376
22.0660 15.885 0.407
22.0864 17.813 0.431
22.1069 23.219 0.492
22.1274 32.490 0.582
22.1478 44.531 0.681
22.1683 50.271 0.724
22.1888 45.458 0.688
22.2092 39.708 0.643
22.2297 34.542 0.600
22.2501 26.500 0.525
22.2706 21.219 0.470
22.2911 18.115 0.434
22.3115 16.156 0.410
22.3320 15.010 0.395
22.3525 14.563 0.389
22.3729 12.854 0.366
22.3934 13.479 0.375
22.4138 12.854 0.366
22.4343 11.813 0.351
22.4548 12.854 0.366
22.4752 11.854 0.351
22.4957 11.229 0.342
22.5162 10.917 0.337
22.5366 11.469 0.346
22.5571 11.135 0.341
22.5775 11.188 0.341
22.5980 11.344 0.344
22.6185 10.833 0.336
22.6389 10.927 0.337
22.6594 10.969 0.338
22.6799 10.198 0.326
22.7003 11.396 0.345
22.7208 10.167 0.325
22.7412 10.625 0.333
22.7617 10.323 0.328
22.7822 10.823 0.336
22.8026 10.510 0.331
22.8231 10.490 0.331
22.8436 10.656 0.333
22.8640 11.385 0.344
22.8845 11.000 0.339
22.9050 12.042 0.354
22.9254 11.802 0.351
22.9459 11.344 0.344
22.9663 10.750 0.335
22.9868 10.542 0.331
23.0073 10.656 0.333
23.0277 9.542 0.315
23.0482 9.781 0.319
23.0687 10.365 0.329
23.0891 9.427 0.313
23.1096 9.448 0.314
23.1300 9.156 0.309
23.1505 9.250 0.310
23.1710 9.208 0.310
23.1914 9.458 0.314
23.2119 10.313 0.328
23.2324 9.708 0.318
23.2528 9.458 0.314
23.2733 9.052 0.307
23.2937 9.500 0.315
23.3142 9.958 0.322
23.3347 9.740 0.319
23.3551 9.604 0.316
23.3756 9.333 0.312
23.3961 9.927 0.322
23.4165 9.865 0.321
23.4370 9.885 0.321
23.4574 10.427 0.330
23.4779 10.229 0.326
23.4984 10.500 0.331
23.5188 10.698 0.334
23.5393 10.875 0.337
23.5598 11.615 0.348
23.5802 12.542 0.361
23.6007 13.844 0.380
23.6211 15.156 0.397
23.6416 15.135 0.397
23.6621 14.323 0.386
23.6825 14.021 0.382
23.7030 13.031 0.368
23.7235 12.427 0.360
23.7439 10.333 0.328
23.7644 9.844 0.320
23.7849 9.229 0.310
23.8053 9.083 0.308
23.8258 8.906 0.305
23.8462 8.667 0.300
23.8667 8.229 0.293
23.8872 8.813 0.303
23.9076 8.375 0.295
23.9281 8.375 0.295
23.9486 8.042 0.289
23.9690 8.427 0.296
23.9895 8.208 0.292
24.0099 8.000 0.289
24.0304 8.406 0.296
24.0509 8.281 0.294
24.0713 8.552 0.298
24.0918 8.021 0.289
24.1123 7.615 0.282
24.1327 8.260 0.293
24.1532 8.802 0.303
24.1736 8.719 0.301
24.1941 8.802 0.303
24.2146 8.427 0.296
24.2350 8.792 0.303
24.2555 9.583 0.316
24.2760 9.844 0.320
24.2964 11.344 0.344
24.3169 11.823 0.351
24.3373 10.646 0.333
24.3578 10.469 0.330
24.3783 10.240 0.327
24.3987 9.333 0.312
24.4192 8.073 0.290
24.4397 7.865 0.286
24.4601 8.698 0.301
24.4806 8.354 0.295
24.5011 7.760 0.284
24.5215 7.271 0.275
24.5420 7.417 0.278
24.5624 7.771 0.285
24.5829 7.500 0.280
24.6034 7.823 0.285
24.6238 7.906 0.287
24.6443 7.417 0.278
24.6648 7.521 0.280
24.6852 7.438 0.278
24.7057 7.958 0.288
24.7261 7.427 0.278
24.7466 7.583 0.281
24.7671 7.094 0.272
24.7875 6.948 0.269
24.8080 7.792 0.285
24.8285 7.010 0.270
24.8489 7.302 0.276
24.8694 7.240 0.275
24.8898 7.729 0.284
24.9103 7.083 0.272
24.9308 7.125 0.272
24.9512 7.156 0.273
24.9717 7.115 0.272
24.9922 7.406 0.278
25.0126 7.146 0.273
25.0331 6.740 0.265
25.0535 7.073 0.271
25.0740 6.573 0.262
25.0945 6.823 0.267
25.1149 6.406 0.258
25.1354 7.365 0.277
25.1559 7.000 0.270
25.1763 7.229 0.274
25.1968 7.375 0.277
25.2172 7.281 0.275
25.2377 6.729 0.265
25.2582 6.990 0.270
25.2786 7.042 0.271
25.2991 6.875 0.268
25.3196 7.177 0.273
25.3400 7.448 0.279
25.3605 6.938 0.269
25.3810 6.729 0.265
25.4014 7.323 0.276
25.4219 7.167 0.273
25.4423 6.979 0.270
25.4628 7.104 0.272
25.4833 6.990 0.270
25.5037 7.271 0.275
25.5242 6.979 0.270
25.5447 7.417 0.278
25.5651 7.333 0.276
25.5856 7.688 0.283
25.6060 7.521 0.280
25.6265 7.990 0.288
25.6470 7.552 0.280
25.6674 7.521 0.280
25.6879 7.271 0.275
25.7084 7.000 0.270
25.7288 7.208 0.274
25.7493 7.469 0.279
25.7697 6.760 0.265
25.7902 6.906 0.268
25.8107 6.854 0.267
25.8311 7.083 0.272
25.8516 7.208 0.274
25.8721 6.802 0.266
25.8925 6.938 0.269
25.9130 6.979 0.270
25.9334 7.104 0.272
25.9539 6.979 0.270
25.9744 7.167 0.273
25.9948 6.740 0.265
26.0153 6.708 0.264
26.0358 6.896 0.268
26.0562 7.219 0.274
26.0767 7.208 0.274
26.0971 6.771 0.266
26.1176 7.021 0.270
26.1381 7.010 0.270
26.1585 7.333 0.276
26.1790 7.146 0.273
26.1995 7.281 0.275
26.2199 6.792 0.266
26.2404 7.052 0.271
26.2609 7.240 0.275
26.2813 6.927 0.269
26.3018 7.406 0.278
26.3222 7.198 0.274
26.3427 7.375 0.277
26.3632 7.250 0.275
26.3836 7.958 0.288
26.4041 8.156 0.291
26.4246 8.521 0.298
26.4450 8.896 0.304
26.4655 9.219 0.310
26.4859 8.583 0.299
26.5064 9.146 0.309
26.5269 9.208 0.310
26.5473 9.052 0.307
26.5678 8.750 0.302
26.5883 8.500 0.298
26.6087 8.604 0.299
26.6292 8.240 0.293
26.6496 8.448 0.297
26.6701 8.531 0.298
26.6906 8.417 0.296
26.7110 9.000 0.306
26.7315 8.698 0.301
26.7520 9.510 0.315
26.7724 9.927 0.322
26.7929 10.260 0.327
26.8133 10.729 0.334
26.8338 11.833 0.351
26.8543 11.927 0.352
26.8747 13.167 0.370
26.8952 12.698 0.364
26.9157 11.375 0.344
26.9361 10.729 0.334
26.9566 10.510 0.331
26.9770 9.490 0.314
26.9975 9.365 0.312
27.0180 8.948 0.305
27.0384 9.198 0.310
27.0589 8.427 0.296
27.0794 8.417 0.296
27.0998 8.260 0.293
27.1203 7.885 0.287
27.1408 8.010 0.289
27.1612 8.354 0.295
27.1817 7.656 0.282
27.2021 7.385 0.277
27.2226 7.229 0.274
27.2431 7.260 0.275
27.2635 7.010 0.270
27.2840 7.406 0.278
27.3045 6.771 0.266
27.3249 6.500 0.260
27.3454 7.313 0.276
27.3658 6.854 0.267
27.3863 6.729 0.265
27.4068 6.854 0.267
27.4272 6.760 0.265
27.4477 7.490 0.279
27.4682 7.125 0.272
27.4886 7.406 0.278
27.5091 7.719 0.284
27.5295 7.760 0.284
27.5500 7.427 0.278
27.5705 7.250 0.275
27.5909 7.552 0.280
27.6114 8.146 0.291
27.6319 7.406 0.278
27.6523 7.344 0.277
27.6728 7.667 0.283
27.6932 7.885 0.287
27.7137 7.865 0.286
27.7342 8.417 0.296
27.7546 8.229 0.293
27.7751 8.469 0.297
27.7956 8.500 0.298
27.8160 8.333 0.295
27.8365 8.417 0.296
27.8569 9.271 0.311
27.8774 8.844 0.304
27.8979 8.646 0.300
27.9183 9.156 0.309
27.9388 9.719 0.318
27.9593 9.844 0.320
27.9797 10.781 0.335
28.0002 10.156 0.325
28.0207 10.354 0.328
28.0411 9.406 0.313
28.0616 9.375 0.313
28.0820 9.063 0.307
28.1025 8.760 0.302
28.1230 7.563 0.281
28.1434 7.906 0.287
28.1639 7.729 0.284
28.1844 7.635 0.282
28.2048 7.281 0.275
28.2253 7.031 0.271
28.2457 7.281 0.275
28.2662 6.469 0.260
28.2867 6.844 0.267
28.3071 7.271 0.275
28.3276 6.813 0.266
28.3481 6.656 0.263
28.3685 6.646 0.263
28.3890 6.781 0.266
28.4094 6.896 0.268
28.4299 6.969 0.269
28.4504 6.333 0.257
28.4708 7.031 0.271
28.4913 7.302 0.276
28.5118 7.740 0.284
28.5322 7.177 0.273
28.5527 7.469 0.279
28.5731 7.083 0.272
28.5936 7.458 0.279
28.6141 7.802 0.285
28.6345 8.260 0.293
28.6550 7.917 0.287
28.6755 8.656 0.300
28.6959 8.594 0.299
28.7164 8.927 0.305
28.7368 9.052 0.307
28.7573 9.240 0.310
28.7778 9.208 0.310
28.7982 8.813 0.303
28.8187 8.875 0.304
28.8392 8.500 0.298
28.8596 8.771 0.302
28.8801 8.510 0.298
28.9006 9.063 0.307
28.9210 8.385 0.296
28.9415 8.104 0.291
28.9619 7.885 0.287
28.9824 7.760 0.284
29.0029 7.667 0.283
29.0233 7.292 0.276
29.0438 7.010 0.270
29.0643 6.740 0.265
29.0847 6.458 0.259
29.1052 7.125 0.272
29.1256 7.031 0.271
29.1461 6.406 0.258
29.1666 6.083 0.252
29.1870 6.969 0.269
29.2075 6.917 0.268
29.2280 6.042 0.251
29.2484 6.396 0.258
29.2689 6.635 0.263
29.2893 7.208 0.274
29.3098 7.083 0.272
29.3303 7.240 0.275
29.3507 7.333 0.276
29.3712 7.323 0.276
29.3917 7.563 0.281
29.4121 6.688 0.264
29.4326 6.115 0.252
29.4530 6.594 0.262
29.4735 6.563 0.261
29.4940 6.948 0.269
29.5144 6.406 0.258
29.5349 6.396 0.258
29.5554 6.083 0.252
29.5758 6.281 0.256
29.5963 6.281 0.256
29.6168 6.292 0.256
29.6372 6.594 0.262
29.6577 6.385 0.258
29.6781 6.583 0.262
29.6986 6.146 0.253
29.7191 5.781 0.245
29.7395 6.167 0.253
29.7600 6.073 0.252
29.7805 6.354 0.257
29.8009 6.104 0.252
29.8214 6.031 0.251
29.8418 6.635 0.263
29.8623 6.792 0.266
29.8828 6.896 0.268
29.9032 7.260 0.275
29.9237 6.323 0.257
29.9442 5.979 0.250
29.9646 6.365 0.257
29.9851 6.563 0.261
30.0055 6.500 0.260
30.0260 6.042 0.251
30.0465 6.010 0.250
30.0669 5.969 0.249
30.0874 5.917 0.248
30.1079 5.604 0.242
30.1283 6.021 0.250
30.1488 6.188 0.254
30.1692 5.948 0.249
30.1897 6.010 0.250
30.2102 5.875 0.247
30.2306 6.240 0.255
30.2511 6.281 0.256
30.2716 5.740 0.245
30.2920 5.792 0.246
30.3125 5.604 0.242
30.3329 5.865 0.247
30.3534 6.396 0.258
30.3739 6.198 0.254
30.3943 5.958 0.249
30.4148 6.323 0.257
30.4353 5.938 0.249
30.4557 5.656 0.243
30.4762 6.208 0.254
30.4967 6.208 0.254
30.5171 5.938 0.249
30.5376 6.406 0.258
30.5580 6.375 0.258
30.5785 5.490 0.239
30.5990 6.052 0.251
30.6194 6.521 0.261
30.6399 6.188 0.254
30.6604 6.156 0.253
30.6808 6.333 0.257
30.7013 6.688 0.264
30.7217 6.698 0.264
30.7422 6.708 0.264
30.7627 7.073 0.271
30.7831 6.656 0.263
30.8036 6.813 0.266
30.8241 7.510 0.280
30.8445 8.073 0.290
30.8650 8.656 0.300
30.8854 9.094 0.308
30.9059 11.073 0.340
30.9264 13.031 0.368
30.9468 17.698 0.429
30.9673 29.948 0.559
30.9878 42.813 0.668
31.0082 51.906 0.735
31.0287 51.625 0.733
31.0491 48.240 0.709
31.0696 45.083 0.685
31.0901 37.365 0.624
31.1105 31.833 0.576
31.1310 25.063 0.511
31.1515 18.313 0.437
31.1719 13.427 0.374
31.1924 10.708 0.334
31.2128 8.979 0.306
31.2333 8.177 0.292
31.2538 7.792 0.285
31.2742 7.292 0.276
31.2947 7.115 0.272
31.3152 6.906 0.268
31.3356 6.375 0.258
31.3561 6.521 0.261
31.3766 6.438 0.259
31.3970 5.708 0.244
31.4175 6.000 0.250
31.4379 6.135 0.253
31.4584 6.042 0.251
31.4789 6.260 0.255
31.4993 6.198 0.254
31.5198 6.448 0.259
31.5403 6.281 0.256
31.5607 6.167 0.253
31.5812 6.365 0.257
31.6016 6.188 0.254
31.6221 6.031 0.251
31.6426 5.792 0.246
31.6630 6.094 0.252
31.6835 6.438 0.259
31.7040 6.563 0.261
31.7244 5.792 0.246
31.7449 6.396 0.258
31.7653 6.667 0.264
31.7858 6.438 0.259
31.8063 6.875 0.268
31.8267 6.281 0.256
31.8472 6.469 0.260
31.8677 6.510 0.260
31.8881 6.323 0.257
31.9086 6.198 0.254
31.9290 6.865 0.267
31.9495 7.292 0.276
31.9700 6.521 0.261
31.9904 7.313 0.276
32.0109 7.667 0.283
32.0314 7.875 0.286
32.0518 8.469 0.297
32.0723 9.073 0.307
32.0927 9.229 0.310
32.1132 9.365 0.312
32.1337 9.208 0.310
32.1541 8.906 0.305
32.1746 9.667 0.317
32.1951 10.135 0.325
32.2155 9.969 0.322
32.2360 10.313 0.328
32.2565 10.104 0.324
32.2769 10.104 0.324
32.2974 10.844 0.336
32.3178 10.667 0.333
32.3383 11.083 0.340
32.3588 11.365 0.344
32.3792 10.844 0.336
32.3997 10.750 0.335
32.4202 13.021 0.368
32.4406 13.906 0.381
32.4611 16.521 0.415
32.4815 15.938 0.407
32.5020 16.375 0.413
32.5225 16.979 0.421
32.5429 18.250 0.436
32.5634 20.563 0.463
32.5839 22.594 0.485
32.6043 24.698 0.507
32.6248 20.531 0.462
32.6452 15.635 0.404
32.6657 14.948 0.395
32.6862 15.115 0.397
32.7066 13.031 0.368
32.7271 10.510 0.331
32.7476 8.969 0.306
32.7680 7.552 0.280
32.7885 7.240 0.275
32.8089 6.792 0.266
32.8294 6.729 0.265
32.8499 6.615 0.262
32.8703 6.354 0.257
32.8908 6.573 0.262
32.9113 5.990 0.250
32.9317 6.802 0.266
32.9522 6.490 0.260
32.9726 5.938 0.249
32.9931 6.521 0.261
33.0136 6.417 0.259
33.0340 6.115 0.252
33.0545 6.021 0.250
33.0750 6.000 0.250
33.0954 6.260 0.255
33.1159 6.146 0.253
33.1364 5.938 0.249
33.1568 6.115 0.252
33.1773 6.219 0.255
33.1977 6.385 0.258
33.2182 6.010 0.250
33.2387 6.031 0.251
33.2591 5.885 0.248
33.2796 5.719 0.244
33.3001 6.156 0.253
33.3205 5.802 0.246
33.3410 5.854 0.247
33.3614 5.417 0.238
33.3819 6.083 0.252
33.4024 6.240 0.255
33.4228 5.896 0.248
33.4433 6.104 0.252
33.4638 5.656 0.243
33.4842 5.958 0.249
33.5047 5.896 0.248
33.5251 5.729 0.244
33.5456 5.313 0.235
33.5661 5.583 0.241
33.5865 5.698 0.244
33.6070 6.094 0.252
33.6275 5.510 0.240
33.6479 5.719 0.244
33.6684 5.490 0.239
33.6888 5.896 0.248
33.7093 6.021 0.250
33.7298 5.625 0.242
33.7502 6.125 0.253
33.7707 6.479 0.260
33.7912 6.063 0.251
33.8116 6.063 0.251
33.8321 5.896 0.248
33.8526 6.302 0.256
33.8730 5.833 0.247
33.8935 6.094 0.252
33.9139 5.938 0.249
33.9344 5.990 0.250
33.9549 5.396 0.237
33.9753 5.833 0.247
33.9958 5.469 0.239
34.0163 5.865 0.247
34.0367 5.927 0.248
34.0572 6.354 0.257
34.0776 5.813 0.246
34.0981 5.844 0.247
34.1186 6.198 0.254
34.1390 6.448 0.259
34.1595 6.104 0.252
34.1800 5.625 0.242
34.2004 5.958 0.249
34.2209 5.938 0.249
34.2413 6.625 0.263
34.2618 6.469 0.260
34.2823 6.208 0.254
34.3027 6.656 0.263
34.3232 6.385 0.258
34.3437 6.073 0.252
34.3641 6.021 0.250
34.3846 6.125 0.253
34.4050 6.021 0.250
34.4255 5.677 0.243
34.4460 6.104 0.252
34.4664 5.417 0.238
34.4869 5.469 0.239
34.5074 5.521 0.240
34.5278 5.385 0.237
34.5483 5.656 0.243
34.5687 5.375 0.237
34.5892 5.948 0.249
34.6097 5.750 0.245
34.6301 6.208 0.254
34.6506 5.656 0.243
34.6711 5.302 0.235
34.6915 5.385 0.237
34.7120 5.531 0.240
34.7325 5.573 0.241
34.7529 5.531 0.240
34.7734 5.615 0.242
34.7938 5.688 0.243
34.8143 5.188 0.232
34.8348 5.677 0.243
34.8552 5.573 0.241
34.8757 5.771 0.245
34.8962 5.865 0.247
34.9166 5.792 0.246
34.9371 6.667 0.264
34.9575 6.448 0.259
34.9780 6.458 0.259
34.9985 6.656 0.263
35.0189 6.406 0.258
35.0394 7.000 0.270
35.0599 6.677 0.264
35.0803 6.104 0.252
35.1008 6.479 0.260
35.1212 5.875 0.247
35.1417 5.844 0.247
35.1622 5.823 0.246
35.1826 5.896 0.248
35.2031 5.802 0.246
35.2236 5.979 0.250
35.2440 5.750 0.245
35.2645 6.021 0.250
35.2849 5.844 0.247
35.3054 5.781 0.245
35.3259 5.729 0.244
35.3463 5.958 0.249
35.3668 6.583 0.262
35.3873 5.802 0.246
35.4077 6.823 0.267
35.4282 6.438 0.259
35.4486 6.344 0.257
35.4691 6.375 0.258
35.4896 6.844 0.267
35.5100 6.354 0.257
35.5305 6.896 0.268
35.5510 6.771 0.266
35.5714 6.448 0.259
35.5919 6.469 0.260
35.6124 6.729 0.265
35.6328 6.823 0.267
35.6533 6.385 0.258
35.6737 6.250 0.255
35.6942 6.396 0.258
35.7147 6.813 0.266
35.7351 6.979 0.270
35.7556 6.760 0.265
35.7761 7.333 0.276
35.7965 7.167 0.273
35.8170 6.583 0.262
35.8374 7.177 0.273
35.8579 7.125 0.272
35.8784 7.469 0.279
35.8988 6.948 0.269
35.9193 7.260 0.275
35.9398 8.250 0.293
35.9602 8.479 0.297
35.9807 8.604 0.299
36.0011 9.542 0.315
36.0216 10.063 0.324
36.0421 9.958 0.322
36.0625 10.656 0.333
36.0830 12.479 0.361
36.1035 14.760 0.392
36.1239 16.635 0.416
36.1444 17.927 0.432
36.1648 19.656 0.452
36.1853 16.625 0.416
36.2058 16.688 0.417
36.2262 16.990 0.421
36.2467 16.208 0.411
36.2672 16.521 0.415
36.2876 14.594 0.390
36.3081 15.240 0.398
36.3285 15.417 0.401
36.3490 17.323 0.425
36.3695 17.333 0.425
36.3899 19.396 0.449
36.4104 21.385 0.472
36.4309 23.135 0.491
36.4513 23.948 0.499
36.4718 23.958 0.500
36.4923 24.438 0.505
36.5127 24.927 0.510
36.5332 28.021 0.540
36.5536 29.469 0.554
36.5741 34.771 0.602
36.5946 34.271 0.597
36.6150 27.865 0.539
36.6355 26.250 0.523
36.6560 24.469 0.505
36.6764 25.250 0.513
36.6969 22.729 0.487
36.7173 19.521 0.451
36.7378 16.188 0.411
36.7583 15.615 0.403
36.7787 14.448 0.388
36.7992 14.813 0.393
36.8197 14.042 0.382
36.8401 14.208 0.385
36.8606 14.875 0.394
36.8810 15.646 0.404
36.9015 16.000 0.408
36.9220 16.010 0.408
36.9424 18.229 0.436
36.9629 19.125 0.446
36.9834 22.604 0.485
37.0038 26.969 0.530
37.0243 31.844 0.576
37.0447 38.813 0.636
37.0652 39.927 0.645
37.0857 33.094 0.587
37.1061 27.115 0.531
37.1266 24.219 0.502
37.1471 25.156 0.512
37.1675 22.354 0.483
37.1880 18.260 0.436
37.2084 13.344 0.373
37.2289 11.802 0.351
37.2494 10.385 0.329
37.2698 10.438 0.330
37.2903 9.552 0.315
37.3108 9.510 0.315
37.3312 9.156 0.309
37.3517 9.156 0.309
37.3722 9.406 0.313
37.3926 9.448 0.314
37.4131 9.677 0.317
37.4335 8.625 0.300
37.4540 9.104 0.308
37.4745 9.594 0.316
37.4949 9.833 0.320
37.5154 10.302 0.328
37.5359 10.938 0.338
37.5563 11.896 0.352
37.5768 12.354 0.359
37.5972 13.552 0.376
37.6177 14.250 0.385
37.6382 15.083 0.396
37.6586 15.500 0.402
37.6791 15.417 0.401
37.6996 14.354 0.387
37.7200 13.490 0.375
37.7405 13.667 0.377
37.7609 12.865 0.366
37.7814 12.781 0.365
37.8019 11.313 0.343
37.8223 11.583 0.347
37.8428 10.188 0.326
37.8633 10.323 0.328
37.8837 10.802 0.335
37.9042 10.625 0.333
37.9246 10.781 0.335
37.9451 12.979 0.368
37.9656 15.021 0.396
37.9860 17.885 0.432
38.0065 19.740 0.453
38.0270 19.281 0.448
38.0474 15.646 0.404
38.0679 16.521 0.415
38.0884 16.229 0.411
38.1088 16.281 0.412
38.1293 15.677 0.404
38.1497 13.531 0.375
38.1702 13.979 0.382
38.1907 13.583 0.376
38.2111 13.583 0.376
38.2316 13.448 0.374
38.2521 12.302 0.358
38.2725 11.896 0.352
38.2930 11.688 0.349
38.3134 11.708 0.349
38.3339 11.552 0.347
38.3544 10.844 0.336
38.3748 11.156 0.341
38.3953 11.531 0.347
38.4158 13.042 0.369
38.4362 14.292 0.386
38.4567 14.510 0.389
38.4771 12.948 0.367
38.4976 12.167 0.356
38.5181 12.385 0.359
38.5385 11.500 0.346
38.5590 12.073 0.355
38.5795 11.000 0.339
38.5999 9.354 0.312
38.6204 9.531 0.315
38.6408 8.844 0.304
38.6613 8.823 0.303
38.6818 8.500 0.298
38.7022 8.396 0.296
38.7227 8.479 0.297
38.7432 8.667 0.300
38.7636 8.125 0.291
38.7841 7.958 0.288
38.8045 8.823 0.303
38.8250 8.208 0.292
38.8455 8.708 0.301
38.8659 7.865 0.286
38.8864 8.583 0.299
38.9069 9.021 0.307
38.9273 9.135 0.308
38.9478 9.417 0.313
38.9683 9.302 0.311
38.9887 9.594 0.316
39.0092 10.229 0.326
39.0296 9.427 0.313
39.0501 8.823 0.303
39.0706 8.885 0.304
39.0910 9.479 0.314
39.1115 9.052 0.307
39.1320 9.021 0.307
39.1524 9.188 0.309
39.1729 8.240 0.293
39.1933 8.521 0.298
39.2138 8.979 0.306
39.2343 8.552 0.298
39.2547 9.281 0.311
39.2752 8.958 0.305
39.2957 8.948 0.305
39.3161 9.563 0.316
39.3366 9.083 0.308
39.3570 9.958 0.322
39.3775 10.365 0.329
39.3980 9.823 0.320
39.4184 10.271 0.327
39.4389 9.750 0.319
39.4594 9.573 0.316
39.4798 9.688 0.318
39.5003 9.135 0.308
39.5207 9.760 0.319
39.5412 9.260 0.311
39.5617 8.490 0.297
39.5821 8.458 0.297
39.6026 9.250 0.310
39.6231 9.281 0.311
39.6435 8.781 0.302
39.6640 9.063 0.307
39.6844 8.948 0.305
39.7049 9.250 0.310
39.7254 10.229 0.326
39.7458 10.958 0.338
39.7663 12.521 0.361
39.7868 12.927 0.367
39.8072 12.802 0.365
39.8277 11.094 0.340
39.8482 11.542 0.347
39.8686 12.115 0.355
39.8891 11.719 0.349
39.9095 11.031 0.339
39.9300 10.344 0.328
39.9505 11.167 0.341
39.9709 10.740 0.334
39.9914 10.833 0.336
40.0119 11.010 0.339
40.0323 11.156 0.341
40.0528 11.375 0.344
40.0732 11.458 0.345
40.0937 11.625 0.348
40.1142 11.302 0.343
40.1346 12.417 0.360
40.1551 12.688 0.364
40.1756 12.792 0.365
40.1960 14.708 0.391
40.2165 18.219 0.436
40.2369 24.979 0.510
40.2574 30.125 0.560
40.2779 21.833 0.477
40.2983 16.104 0.410
40.3188 15.156 0.397
40.3393 17.115 0.422
40.3597 19.802 0.454
40.3802 14.760 0.392
40.4006 12.260 0.357
40.4211 11.552 0.347
40.4416 10.448 0.330
40.4620 10.083 0.324
40.4825 9.646 0.317
40.5030 9.490 0.314
40.5234 9.833 0.320
40.5439 9.906 0.321
40.5643 10.063 0.324
40.5848 9.500 0.315
40.6053 9.167 0.309
40.6257 9.510 0.315
40.6462 9.260 0.311
40.6667 9.323 0.312
40.6871 8.792 0.303
40.7076 8.729 0.302
40.7281 8.396 0.296
40.7485 7.813 0.285
40.7690 7.813 0.285
40.7894 8.510 0.298
40.8099 8.073 0.290
40.8304 8.167 0.292
40.8508 8.052 0.290
40.8713 8.188 0.292
40.8918 7.938 0.288
40.9122 7.875 0.286
40.9327 7.844 0.286
40.9531 8.427 0.296
40.9736 8.229 0.293
40.9941 8.740 0.302
41.0145 9.010 0.306
41.0350 9.510 0.315
41.0555 10.948 0.338
41.0759 13.260 0.372
41.0964 16.625 0.416
41.1168 15.802 0.406
41.1373 14.292 0.386
41.1578 11.646 0.348
41.1782 11.521 0.346
41.1987 12.229 0.357
41.2192 12.375 0.359
41.2396 10.552 0.332
41.2601 8.979 0.306
41.2805 8.615 0.300
41.3010 8.792 0.303
41.3215 7.958 0.288
41.3419 7.250 0.275
41.3624 7.708 0.283
41.3829 7.719 0.284
41.4033 7.781 0.285
41.4238 6.927 0.269
41.4442 6.906 0.268
41.4647 7.010 0.270
41.4852 7.208 0.274
41.5056 6.969 0.269
41.5261 7.271 0.275
41.5466 7.573 0.281
41.5670 7.500 0.280
41.5875 7.906 0.287
41.6080 8.125 0.291
41.6284 8.990 0.306
41.6489 8.458 0.297
41.6693 9.229 0.310
41.6898 8.688 0.301
41.7103 8.542 0.298
41.7307 8.490 0.297
41.7512 7.990 0.288
41.7717 7.990 0.288
41.7921 7.563 0.281
41.8126 7.438 0.278
41.8330 7.698 0.283
41.8535 7.896 0.287
41.8740 6.969 0.269
41.8944 7.052 0.271
41.9149 6.802 0.266
41.9354 7.354 0.277
41.9558 7.198 0.274
41.9763 6.969 0.269
41.9967 6.865 0.267
42.0172 6.573 0.262
42.0377 6.479 0.260
42.0581 6.719 0.265
42.0786 6.396 0.258
42.0991 6.135 0.253
42.1195 7.063 0.271
42.1400 6.938 0.269
42.1604 7.031 0.271
42.1809 7.510 0.280
42.2014 6.771 0.266
42.2218 8.688 0.301
42.2423 8.250 0.293
42.2628 9.188 0.309
42.2832 9.208 0.310
42.3037 10.323 0.328
42.3242 11.010 0.339
42.3446 11.510 0.346
42.3651 12.365 0.359
42.3855 10.583 0.332
42.4060 11.177 0.341
42.4265 10.656 0.333
42.4469 10.927 0.337
42.4674 10.823 0.336
42.4879 10.250 0.327
42.5083 10.229 0.326
42.5288 10.031 0.323
42.5492 9.385 0.313
42.5697 9.219 0.310
42.5902 8.844 0.304
42.6106 8.771 0.302
42.6311 8.510 0.298
42.6516 8.229 0.293
42.6720 8.604 0.299
42.6925 7.833 0.286
42.7129 8.563 0.299
42.7334 7.552 0.280
42.7539 7.844 0.286
42.7743 6.917 0.268
42.7948 7.677 0.283
42.8153 7.250 0.275
42.8357 7.104 0.272
42.8562 7.031 0.271
42.8766 7.104 0.272
42.8971 7.448 0.279
42.9176 7.219 0.274
42.9380 6.969 0.269
42.9585 6.948 0.269
42.9790 7.260 0.275
42.9994 7.135 0.273
43.0199 6.938 0.269
43.0403 6.542 0.261
43.0608 6.833 0.267
43.0813 7.396 0.278
43.1017 7.563 0.281
43.1222 7.823 0.285
43.1427 7.854 0.286
43.1631 8.385 0.296
43.1836 8.750 0.302
43.2041 9.313 0.311
43.2245 9.583 0.316
43.2450 8.969 0.306
43.2654 9.052 0.307
43.2859 8.885 0.304
43.3064 9.417 0.313
43.3268 9.010 0.306
43.3473 9.240 0.310
43.3678 9.729 0.318
43.3882 9.563 0.316
43.4087 9.438 0.314
43.4291 9.458 0.314
43.4496 10.385 0.329
43.4701 10.542 0.331
43.4905 10.990 0.338
43.5110 12.438 0.360
43.5315 14.125 0.384
43.5519 16.000 0.408
43.5724 18.240 0.436
43.5928 22.125 0.480
43.6133 21.635 0.475
43.6338 20.292 0.460
43.6542 16.906 0.420
43.6747 15.750 0.405
43.6952 15.094 0.397
43.7156 15.719 0.405
43.7361 14.969 0.395
43.7565 12.354 0.359
43.7770 10.240 0.327
43.7975 8.896 0.304
43.8179 8.875 0.304
43.8384 7.583 0.281
43.8589 7.583 0.281
43.8793 7.604 0.281
43.8998 7.719 0.284
43.9202 8.188 0.292
43.9407 8.094 0.290
43.9612 7.135 0.273
43.9816 7.677 0.283
44.0021 7.969 0.288
44.0226 8.646 0.300
44.0430 8.896 0.304
44.0635 9.063 0.307
44.0840 9.104 0.308
44.1044 10.042 0.323
44.1249 11.010 0.339
44.1453 10.583 0.332
44.1658 10.427 0.330
44.1863 10.542 0.331
44.2067 10.583 0.332
44.2272 10.615 0.333
44.2477 10.542 0.331
44.2681 9.490 0.314
44.2886 9.990 0.323
44.3090 8.521 0.298
44.3295 8.375 0.295
44.3500 8.000 0.289
44.3704 8.333 0.295
44.3909 7.302 0.276
44.4114 7.354 0.277
44.4318 7.406 0.278
44.4523 7.021 0.270
44.4727 6.573 0.262
44.4932 7.042 0.271
44.5137 6.688 0.264
44.5341 6.927 0.269
44.5546 6.885 0.268
44.5751 6.500 0.260
44.5955 7.167 0.273
44.6160 6.813 0.266
44.6364 7.177 0.273
44.6569 6.500 0.260
44.6774 6.531 0.261
44.6978 6.604 0.262
44.7183 6.719 0.265
44.7388 6.927 0.269
44.7592 7.167 0.273
44.7797 6.573 0.262
44.8001 7.146 0.273
44.8206 7.021 0.270
44.8411 6.958 0.269
44.8615 7.333 0.276
44.8820 7.781 0.285
44.9025 7.677 0.283
44.9229 7.667 0.283
44.9434 8.260 0.293
44.9639 8.135 0.291
44.9843 8.688 0.301
45.0048 8.490 0.297
45.0252 8.292 0.294
45.0457 8.615 0.300
45.0662 8.594 0.299
45.0866 8.813 0.303
45.1071 8.875 0.304
45.1276 9.010 0.306
45.1480 9.563 0.316
45.1685 10.208 0.326
45.1889 10.646 0.333
45.2094 11.885 0.352
45.2299 12.604 0.362
45.2503 11.792 0.350
45.2708 10.865 0.336
45.2913 10.344 0.328
45.3117 10.323 0.328
45.3322 10.688 0.334
45.3526 11.646 0.348
45.3731 11.458 0.345
45.3936 10.448 0.330
45.4140 10.042 0.323
45.4345 10.292 0.327
45.4550 9.656 0.317
45.4754 9.323 0.312
45.4959 8.698 0.301
45.5163 8.292 0.294
45.5368 8.375 0.295
45.5573 7.604 0.281
45.5777 7.438 0.278
45.5982 7.146 0.273
45.6187 6.771 0.266
45.6391 6.542 0.261
45.6596 6.250 0.255
45.6800 6.146 0.253
45.7005 6.073 0.252
45.7210 6.479 0.260
45.7414 6.292 0.256
45.7619 5.635 0.242
45.7824 5.281 0.235
45.8028 5.781 0.245
45.8233 5.677 0.243
45.8438 5.729 0.244
45.8642 5.406 0.237
45.8847 5.781 0.245
45.9051 5.479 0.239
45.9256 5.271 0.234
45.9461 5.635 0.242
45.9665 5.563 0.241
45.9870 5.458 0.238
46.0075 5.344 0.236
46.0279 5.406 0.237
46.0484 5.646 0.243
46.0688 5.281 0.235
46.0893 5.417 0.238
46.1098 5.479 0.239
46.1302 5.594 0.241
46.1507 5.646 0.243
46.1712 5.375 0.237
46.1916 5.573 0.241
46.2121 6.146 0.253
46.2325 5.438 0.238
46.2530 5.531 0.240
46.2735 5.563 0.241
46.2939 5.344 0.236
46.3144 5.115 0.231
46.3349 5.396 0.237
46.3553 5.063 0.230
46.3758 4.948 0.227
46.3962 5.000 0.228
46.4167 4.917 0.226
46.4372 4.969 0.228
46.4576 4.802 0.224
46.4781 4.927 0.227
46.4986 4.802 0.224
46.5190 4.927 0.227
46.5395 4.594 0.219
46.5600 5.146 0.232
46.5804 4.854 0.225
46.6009 4.927 0.227
46.6213 4.917 0.226
46.6418 5.000 0.228
46.6623 4.896 0.226
46.6827 4.417 0.214
46.7032 4.667 0.220
46.7237 4.708 0.221
46.7441 4.594 0.219
46.7646 5.177 0.232
46.7850 4.844 0.225
46.8055 4.760 0.223
46.8260 4.896 0.226
46.8464 4.740 0.222
46.8669 5.094 0.230
46.8874 5.135 0.231
46.9078 4.865 0.225
46.9283 4.896 0.226
46.9487 4.760 0.223
46.9692 4.719 0.222
46.9897 4.896 0.226
47.0101 4.969 0.228
47.0306 4.823 0.224
47.0511 5.125 0.231
47.0715 5.354 0.236
47.0920 5.000 0.228
47.1124 5.708 0.244
47.1329 5.281 0.235
47.1534 5.990 0.250
47.1738 5.396 0.237
47.1943 5.667 0.243
47.2148 5.917 0.248
47.2352 6.177 0.254
47.2557 6.542 0.261
47.2761 6.688 0.264
47.2966 6.958 0.269
47.3171 6.885 0.268
47.3375 7.375 0.277
47.3580 7.594 0.281
47.3785 7.573 0.281
47.3989 7.552 0.280
47.4194 7.417 0.278
47.4399 7.281 0.275
47.4603 7.490 0.279
47.4808 7.875 0.286
47.5012 8.115 0.291
47.5217 9.417 0.313
47.5422 10.365 0.329
47.5626 12.417 0.360
47.5831 14.292 0.386
47.6036 13.625 0.377
47.6240 12.010 0.354
47.6445 10.604 0.332
47.6649 10.760 0.335
47.6854 10.854 0.336
47.7059 11.323 0.343
47.7263 11.115 0.340
47.7468 9.094 0.308
47.7673 8.958 0.305
47.7877 7.906 0.287
47.8082 7.854 0.286
47.8286 7.240 0.275
47.8491 7.042 0.271
47.8696 7.052 0.271
47.8900 6.948 0.269
47.9105 7.000 0.270
47.9310 7.167 0.273
47.9514 6.948 0.269
47.9719 6.667 0.264
47.9923 7.333 0.276
48.0128 7.073 0.271
48.0333 7.375 0.277
48.0537 6.969 0.269
48.0742 7.688 0.283
48.0947 7.135 0.273
48.1151 6.708 0.264
48.1356 6.333 0.257
48.1560 6.396 0.258
48.1765 7.250 0.275
48.1970 6.667 0.264
48.2174 6.010 0.250
48.2379 6.188 0.254
48.2584 6.281 0.256
48.2788 6.531 0.261
48.2993 7.083 0.272
48.3198 6.938 0.269
48.3402 6.958 0.269
48.3607 7.104 0.272
48.3811 7.635 0.282
48.4016 7.229 0.274
48.4221 7.313 0.276
48.4425 7.177 0.273
48.4630 6.990 0.270
48.4835 6.469 0.260
48.5039 6.833 0.267
48.5244 6.604 0.262
48.5448 5.719 0.244
48.5653 6.365 0.257
48.5858 5.833 0.247
48.6062 6.125 0.253
48.6267 5.865 0.247
48.6472 6.438 0.259
48.6676 6.646 0.263
48.6881 6.625 0.263
48.7085 6.813 0.266
48.7290 6.229 0.255
48.7495 6.323 0.257
48.7699 5.740 0.245
48.7904 5.375 0.237
48.8109 5.583 0.241
48.8313 5.708 0.244
48.8518 5.365 0.236
48.8722 5.531 0.240
48.8927 5.083 0.230
48.9132 4.823 0.224
48.9336 5.010 0.228
48.9541 4.958 0.227
48.9746 4.438 0.215
48.9950 4.625 0.219
49.0155 4.354 0.213
49.0359 4.521 0.217
49.0564 5.104 0.231
49.0769 4.719 0.222
49.0973 4.729 0.222
49.1178 4.500 0.217
49.1383 4.677 0.221
49.1587 4.635 0.220
49.1792 4.875 0.225
49.1997 4.594 0.219
49.2201 4.688 0.221
49.2406 5.104 0.231
49.2610 5.208 0.233
49.2815 4.760 0.223
49.3020 5.188 0.232
49.3224 5.146 0.232
49.3429 5.021 0.229
49.3634 4.677 0.221
49.3838 5.063 0.230
49.4043 5.063 0.230
49.4247 4.854 0.225
49.4452 5.396 0.237
49.4657 5.438 0.238
49.4861 5.771 0.245
49.5066 6.042 0.251
49.5271 6.510 0.260
49.5475 5.573 0.241
49.5680 6.031 0.251
49.5884 6.698 0.264
49.6089 6.552 0.261
49.6294 6.750 0.265
49.6498 6.490 0.260
49.6703 6.802 0.266
49.6908 7.354 0.277
49.7112 7.750 0.284
49.7317 8.469 0.297
49.7521 9.688 0.318
49.7726 10.479 0.330
49.7931 12.438 0.360
49.8135 15.458 0.401
49.8340 16.104 0.410
49.8545 14.854 0.393
49.8749 13.719 0.378
49.8954 12.177 0.356
49.9158 12.375 0.359
49.9363 12.448 0.360
49.9568 12.677 0.363
49.9772 12.708 0.364
49.9977 11.896 0.352
50.0182 10.615 0.333
50.0386 9.458 0.314
50.0591 9.219 0.310
50.0796 9.208 0.310
50.1000 8.604 0.299
50.1205 8.583 0.299
50.1409 9.146 0.309
50.1614 9.323 0.312
50.1819 9.927 0.322
50.2023 9.604 0.316
50.2228 8.594 0.299
50.2433 8.521 0.298
50.2637 8.406 0.296
50.2842 8.438 0.296
50.3046 9.063 0.307
50.3251 9.729 0.318
50.3456 8.115 0.291
50.3660 7.688 0.283
50.3865 8.667 0.300
50.4070 8.250 0.293
50.4274 8.688 0.301
50.4479 9.010 0.306
50.4683 10.208 0.326
50.4888 9.333 0.312
50.5093 10.365 0.329
50.5297 9.865 0.321
50.5502 10.000 0.323
50.5707 9.667 0.317
50.5911 9.115 0.308
50.6116 9.990 0.323
50.6320 10.219 0.326
50.6525 10.271 0.327
50.6730 10.406 0.329
50.6934 10.063 0.324
50.7139 9.438 0.314
50.7344 8.729 0.302
50.7548 8.083 0.290
50.7753 8.396 0.296
50.7958 8.115 0.291
50.8162 8.250 0.293
50.8367 8.240 0.293
50.8571 8.073 0.290
50.8776 8.615 0.300
50.8981 8.615 0.300
50.9185 9.917 0.321
50.9390 12.719 0.364
50.9595 13.750 0.378
50.9799 11.135 0.341
51.0004 9.250 0.310
51.0208 7.885 0.287
51.0413 7.823 0.285
51.0618 8.750 0.302
51.0822 9.667 0.317
51.1027 9.000 0.306
51.1232 7.385 0.277
51.1436 6.927 0.269
51.1641 6.604 0.262
51.1845 6.240 0.255
51.2050 5.781 0.245
51.2255 5.833 0.247
51.2459 6.021 0.250
51.2664 6.083 0.252
51.2869 6.583 0.262
51.3073 6.469 0.260
51.3278 5.885 0.248
51.3482 5.927 0.248
51.3687 5.625 0.242
51.3892 5.646 0.243
51.4096 5.594 0.241
51.4301 5.594 0.241
51.4506 5.594 0.241
51.4710 5.375 0.237
51.4915 4.917 0.226
51.5119 5.250 0.234
51.5324 4.917 0.226
51.5529 5.063 0.230
51.5733 5.458 0.238
51.5938 5.615 0.242
51.6143 5.979 0.250
51.6347 6.469 0.260
51.6552 6.521 0.261
51.6757 6.000 0.250
51.6961 6.135 0.253
51.7166 5.521 0.240
51.7370 5.490 0.239
51.7575 5.146 0.232
51.7780 5.865 0.247
51.7984 5.490 0.239
51.8189 5.448 0.238
51.8394 5.427 0.238
51.8598 5.156 0.232
51.8803 5.135 0.231
51.9007 4.979 0.228
51.9212 5.125 0.231
51.9417 5.063 0.230
51.9621 4.927 0.227
51.9826 5.354 0.236
52.0031 5.333 0.236
52.0235 5.844 0.247
52.0440 6.104 0.252
52.0644 6.229 0.255
52.0849 6.115 0.252
52.1054 6.885 0.268
52.1258 6.823 0.267
52.1463 7.521 0.280
52.1668 6.792 0.266
52.1872 7.458 0.279
52.2077 6.948 0.269
52.2281 6.677 0.264
52.2486 6.583 0.262
52.2691 6.792 0.266
52.2895 6.375 0.258
52.3100 6.813 0.266
52.3305 6.073 0.252
52.3509 6.438 0.259
52.3714 6.646 0.263
52.3918 6.625 0.263
52.4123 5.594 0.241
52.4328 6.073 0.252
52.4532 5.094 0.230
52.4737 5.125 0.231
52.4942 5.094 0.230
52.5146 5.427 0.238
52.5351 5.031 0.229
52.5556 4.406 0.214
52.5760 5.146 0.232
52.5965 4.656 0.220
52.6169 4.438 0.215
52.6374 4.594 0.219
52.6579 4.844 0.225
52.6783 4.563 0.218
52.6988 4.583 0.219
52.7193 4.750 0.222
52.7397 4.490 0.216
52.7602 4.823 0.224
52.7806 4.510 0.217
52.8011 4.708 0.221
52.8216 4.771 0.223
52.8420 4.583 0.219
52.8625 4.760 0.223
52.8830 4.458 0.216
52.9034 4.542 0.218
52.9239 4.771 0.223
52.9443 4.771 0.223
52.9648 4.563 0.218
52.9853 5.292 0.235
53.0057 5.156 0.232
53.0262 4.958 0.227
53.0467 5.281 0.235
53.0671 5.740 0.245
53.0876 5.260 0.234
53.1080 5.615 0.242
53.1285 5.156 0.232
53.1490 5.500 0.239
53.1694 5.646 0.243
53.1899 5.292 0.235
53.2104 5.417 0.238
53.2308 5.500 0.239
53.2513 5.740 0.245
53.2717 5.833 0.247
53.2922 5.448 0.238
53.3127 5.156 0.232
53.3331 4.906 0.226
53.3536 5.427 0.238
53.3741 5.094 0.230
53.3945 4.969 0.228
53.4150 5.021 0.229
53.4355 5.156 0.232
53.4559 5.365 0.236
53.4764 4.948 0.227
53.4968 4.906 0.226
53.5173 5.208 0.233
53.5378 4.885 0.226
53.5582 5.042 0.229
53.5787 4.563 0.218
53.5992 4.469 0.216
53.6196 4.938 0.227
53.6401 4.448 0.215
53.6605 5.021 0.229
53.6810 5.031 0.229
53.7015 4.708 0.221
53.7219 4.792 0.223
53.7424 4.667 0.220
53.7629 4.552 0.218
53.7833 4.271 0.211
53.8038 4.438 0.215
53.8242 4.313 0.212
53.8447 4.604 0.219
53.8652 4.510 0.217
53.8856 4.823 0.224
53.9061 4.521 0.217
53.9266 5.104 0.231
53.9470 4.677 0.221
53.9675 4.792 0.223
53.9879 4.979 0.228
54.0084 4.865 0.225
54.0289 4.813 0.224
54.0493 4.781 0.223
54.0698 4.896 0.226
54.0903 5.104 0.231
54.1107 5.510 0.240
54.1312 5.510 0.240
54.1516 5.646 0.243
54.1721 5.188 0.232
54.1926 5.490 0.239
54.2130 5.760 0.245
54.2335 5.510 0.240
54.2540 5.854 0.247
54.2744 6.094 0.252
54.2949 6.271 0.256
54.3154 6.052 0.251
54.3358 6.563 0.261
54.3563 6.719 0.265
54.3767 6.927 0.269
54.3972 6.792 0.266
54.4177 7.271 0.275
54.4381 6.969 0.269
54.4586 6.427 0.259
54.4791 6.490 0.260
54.4995 5.979 0.250
54.5200 6.292 0.256
54.5404 6.135 0.253
54.5609 5.667 0.243
54.5814 5.875 0.247
54.6018 5.969 0.249
54.6223 5.406 0.237
54.6428 5.396 0.237
54.6632 5.448 0.238
54.6837 5.042 0.229
54.7041 4.906 0.226
54.7246 5.000 0.228
54.7451 4.458 0.216
54.7655 4.552 0.218
54.7860 4.708 0.221
54.8065 4.479 0.216
54.8269 4.531 0.217
54.8474 4.198 0.209
54.8678 4.406 0.214
54.8883 4.438 0.215
54.9088 4.833 0.224
54.9292 5.219 0.233
54.9497 4.917 0.226
54.9702 4.896 0.226
54.9906 5.333 0.236
55.0111 5.719 0.244
55.0316 5.969 0.249
55.0520 6.865 0.267
55.0725 6.802 0.266
55.0929 8.604 0.299
55.1134 9.823 0.320
55.1339 13.135 0.370
55.1543 15.219 0.398
55.1748 15.396 0.400
55.1953 14.448 0.388
55.2157 14.125 0.384
55.2362 13.396 0.374
55.2566 13.771 0.379
55.2771 13.813 0.379
55.2976 12.729 0.364
55.3180 12.927 0.367
55.3385 12.469 0.360
55.3590 11.375 0.344
55.3794 10.146 0.325
55.3999 10.375 0.329
55.4203 8.938 0.305
55.4408 8.615 0.300
55.4613 7.167 0.273
55.4817 6.510 0.260
55.5022 6.146 0.253
55.5227 5.854 0.247
55.5431 6.073 0.252
55.5636 5.313 0.235
55.5840 5.948 0.249
55.6045 5.635 0.242
55.6250 5.000 0.228
55.6454 5.292 0.235
55.6659 5.604 0.242
55.6864 5.250 0.234
55.7068 5.354 0.236
55.7273 5.448 0.238
55.7477 5.552 0.240
55.7682 5.844 0.247
55.7887 5.625 0.242
55.8091 5.781 0.245
55.8296 6.125 0.253
55.8501 6.135 0.253
55.8705 5.938 0.249
55.8910 5.385 0.237
55.9115 5.854 0.247
55.9319 5.438 0.238
55.9524 5.885 0.248
55.9728 5.990 0.250
55.9933 5.823 0.246
56.0138 5.958 0.249
56.0342 6.292 0.256
56.0547 6.635 0.263
56.0752 6.615 0.262
56.0956 7.917 0.287
56.1161 8.958 0.305
56.1365 11.281 0.343
56.1570 12.385 0.359
56.1775 13.781 0.379
56.1979 12.458 0.360
56.2184 10.677 0.333
56.2389 8.990 0.306
56.2593 8.219 0.293
56.2798 8.438 0.296
56.3002 8.719 0.301
56.3207 9.427 0.313
56.3412 8.615 0.300
56.3616 7.750 0.284
56.3821 6.167 0.253
56.4026 5.448 0.238
56.4230 4.854 0.225
56.4435 4.563 0.218
56.4639 4.021 0.205
56.4844 4.302 0.212
56.5049 4.177 0.209
56.5253 4.094 0.207
56.5458 4.115 0.207
56.5663 3.896 0.201
56.5867 3.875 0.201
56.6072 3.479 0.190
56.6276 3.479 0.190
56.6481 3.792 0.199
56.6686 3.521 0.192
56.6890 3.458 0.190
56.7095 3.740 0.197
56.7300 3.875 0.201
56.7504 3.719 0.197
56.7709 3.938 0.203
56.7914 3.708 0.197
56.8118 3.823 0.200
56.8323 3.479 0.190
56.8527 3.740 0.197
56.8732 3.552 0.192
56.8937 3.615 0.194
56.9141 3.271 0.185
56.9346 3.698 0.196
56.9551 3.177 0.182
56.9755 3.500 0.191
56.9960 3.573 0.193
57.0164 3.656 0.195
57.0369 3.521 0.192
57.0574 3.583 0.193
57.0778 3.729 0.197
57.0983 3.573 0.193
57.1188 3.781 0.198
57.1392 3.375 0.188
57.1597 3.667 0.195
57.1801 3.583 0.193
57.2006 3.615 0.194
57.2211 3.521 0.192
57.2415 3.531 0.192
57.2620 3.531 0.192
57.2825 4.177 0.209
57.3029 4.104 0.207
57.3234 3.677 0.196
57.3438 3.958 0.203
57.3643 4.042 0.205
57.3848 3.885 0.201
57.4052 3.677 0.196
57.4257 4.083 0.206
57.4462 4.156 0.208
57.4666 3.646 0.195
57.4871 3.760 0.198
57.5075 4.188 0.209
57.5280 3.854 0.200
57.5485 3.708 0.197
57.5689 3.990 0.204
57.5894 3.708 0.197
57.6099 4.135 0.208
57.6303 4.677 0.221
57.6508 4.521 0.217
57.6713 4.229 0.210
57.6917 4.781 0.223
57.7122 4.927 0.227
57.7326 5.135 0.231
57.7531 5.208 0.233
57.7736 5.969 0.249
57.7940 6.458 0.259
57.8145 6.604 0.262
57.8350 8.156 0.291
57.8554 9.375 0.313
57.8759 10.792 0.335
57.8963 11.688 0.349
57.9168 10.083 0.324
57.9373 9.188 0.309
57.9577 7.958 0.288
57.9782 7.365 0.277
57.9987 7.083 0.272
58.0191 8.208 0.292
58.0396 8.688 0.301
58.0600 8.250 0.293
58.0805 7.667 0.283
58.1010 6.875 0.268
58.1214 6.448 0.259
58.1419 5.781 0.245
58.1624 6.052 0.251
58.1828 5.531 0.240
58.2033 5.396 0.237
58.2237 5.104 0.231
58.2442 5.094 0.230
58.2647 5.208 0.233
58.2851 4.885 0.226
58.3056 5.323 0.235
58.3261 5.354 0.236
58.3465 5.031 0.229
58.3670 5.115 0.231
58.3874 5.073 0.230
58.4079 4.917 0.226
58.4284 4.979 0.228
58.4488 4.865 0.225
58.4693 4.958 0.227
58.4898 5.344 0.236
58.5102 5.167 0.232
58.5307 5.104 0.231
58.5512 5.281 0.235
58.5716 5.365 0.236
58.5921 5.552 0.240
58.6125 5.271 0.234
58.6330 5.031 0.229
58.6535 5.010 0.228
58.6739 5.344 0.236
58.6944 5.260 0.234
58.7149 5.125 0.231
58.7353 5.188 0.232
58.7558 5.552 0.240
58.7762 5.448 0.238
58.7967 5.250 0.234
58.8172 5.646 0.243
58.8376 5.604 0.242
58.8581 5.427 0.238
58.8786 5.208 0.233
58.8990 5.240 0.234
58.9195 5.292 0.235
58.9399 5.292 0.235
58.9604 5.177 0.232
58.9809 5.250 0.234
59.0013 5.552 0.240
59.0218 5.635 0.242
59.0423 5.365 0.236
59.0627 5.510 0.240
59.0832 5.031 0.229
59.1036 5.563 0.241
59.1241 5.719 0.244
59.1446 5.906 0.248
59.1650 7.240 0.275
59.1855 6.969 0.269
59.2060 7.667 0.283
59.2264 6.688 0.264
59.2469 5.917 0.248
59.2674 5.250 0.234
59.2878 5.406 0.237
59.3083 5.427 0.238
59.3287 4.906 0.226
59.3492 5.885 0.248
59.3697 5.000 0.228
59.3901 5.146 0.232
59.4106 5.031 0.229
59.4311 4.563 0.218
59.4515 4.490 0.216
59.4720 4.510 0.217
59.4924 4.427 0.215
59.5129 3.990 0.204
59.5334 4.135 0.208
59.5538 4.177 0.209
59.5743 3.844 0.200
59.5948 3.875 0.201
59.6152 4.302 0.212
59.6357 4.073 0.206
59.6561 4.490 0.216
59.6766 4.073 0.206
59.6971 3.813 0.199
59.7175 3.865 0.201
59.7380 3.969 0.203
59.7585 4.271 0.211
59.7789 4.854 0.225
59.7994 4.760 0.223
59.8198 5.438 0.238
59.8403 6.135 0.253
59.8608 6.333 0.257
59.8812 6.292 0.256
59.9017 5.875 0.247
59.9222 5.406 0.237
59.9426 5.281 0.235
59.9631 5.313 0.235
59.9835 5.250 0.234
60.0040 5.229 0.233
60.0245 5.760 0.245
60.0449 5.354 0.236
60.0654 5.104 0.231
60.0859 4.563 0.218
60.1063 4.396 0.214
60.1268 4.698 0.221
60.1473 4.469 0.216
60.1677 3.750 0.198
60.1882 4.010 0.204
60.2086 3.927 0.202
60.2291 4.052 0.205
60.2496 3.979 0.204
60.2700 4.281 0.211
60.2905 4.031 0.205
60.3110 3.854 0.200
60.3314 4.000 0.204
60.3519 3.938 0.203
60.3723 3.646 0.195
60.3928 3.542 0.192
60.4133 4.052 0.205
60.4337 4.115 0.207
60.4542 3.969 0.203
60.4747 3.708 0.197
60.4951 3.781 0.198
60.5156 4.198 0.209
60.5360 4.177 0.209
60.5565 3.667 0.195
60.5770 4.010 0.204
60.5974 4.375 0.213
60.6179 4.260 0.211
60.6384 4.490 0.216
60.6588 4.167 0.208
60.6793 4.365 0.213
60.6997 4.438 0.215
60.7202 3.854 0.200
60.7407 3.917 0.202
60.7611 3.969 0.203
60.7816 4.208 0.209
60.8021 4.188 0.209
60.8225 3.719 0.197
60.8430 4.146 0.208
60.8634 3.844 0.200
60.8839 4.115 0.207
60.9044 3.625 0.194
60.9248 3.854 0.200
60.9453 3.646 0.195
60.9658 3.646 0.195
60.9862 3.448 0.190
61.0067 3.500 0.191
61.0272 3.469 0.190
61.0476 3.688 0.196
61.0681 3.667 0.195
61.0885 3.354 0.187
61.1090 3.479 0.190
61.1295 3.531 0.192
61.1499 3.135 0.181
61.1704 3.167 0.182
61.1909 3.292 0.185
61.2113 3.396 0.188
61.2318 3.469 0.190
61.2522 3.573 0.193
61.2727 3.177 0.182
61.2932 3.448 0.190
61.3136 3.198 0.183
61.3341 3.406 0.188
61.3546 3.458 0.190
61.3750 3.563 0.193
61.3955 3.500 0.191
61.4159 3.594 0.193
61.4364 3.969 0.203
61.4569 3.573 0.193
61.4773 3.573 0.193
61.4978 3.542 0.192
61.5183 3.500 0.191
61.5387 3.677 0.196
61.5592 3.698 0.196
61.5796 3.500 0.191
61.6001 3.063 0.179
61.6206 3.219 0.183
61.6410 3.198 0.183
61.6615 3.469 0.190
61.6820 3.313 0.186
61.7024 3.271 0.185
61.7229 3.260 0.184
61.7433 3.052 0.178
61.7638 3.031 0.178
61.7843 3.375 0.188
61.8047 3.000 0.177
61.8252 3.313 0.186
61.8457 3.344 0.187
61.8661 2.760 0.170
61.8866 3.177 0.182
61.9071 3.208 0.183
61.9275 3.292 0.185
61.9480 3.552 0.192
61.9684 3.302 0.185
61.9889 3.490 0.191
62.0094 3.604 0.194
62.0298 3.677 0.196
62.0503 3.917 0.202
62.0708 4.292 0.211
62.0912 4.323 0.212
62.1117 4.771 0.223
62.1321 4.677 0.221
62.1526 4.802 0.224
62.1731 4.490 0.216
62.1935 4.146 0.208
62.2140 3.813 0.199
62.2345 4.083 0.206
62.2549 4.115 0.207
62.2754 4.208 0.209
62.2958 3.958 0.203
62.3163 3.688 0.196
62.3368 3.990 0.204
62.3572 3.490 0.191
62.3777 3.583 0.193
62.3982 3.448 0.190
62.4186 3.698 0.196
62.4391 3.552 0.192
62.4595 3.427 0.189
62.4800 3.219 0.183
62.5005 3.354 0.187
62.5209 3.063 0.179
62.5414 3.813 0.199
62.5619 3.646 0.195
62.5823 3.135 0.181
62.6028 3.115 0.180
62.6232 3.208 0.183
62.6437 3.479 0.190
62.6642 3.250 0.184
62.6846 2.865 0.173
62.7051 3.021 0.177
62.7256 2.844 0.172
62.7460 3.104 0.180
62.7665 3.052 0.178
62.7870 2.927 0.175
62.8074 3.021 0.177
62.8279 3.167 0.182
62.8483 3.052 0.178
62.8688 2.792 0.171
62.8893 2.958 0.176
62.9097 3.229 0.183
62.9302 2.615 0.165
62.9507 3.344 0.187
62.9711 3.063 0.179
62.9916 3.333 0.186
63.0120 3.240 0.184
63.0325 2.969 0.176
63.0530 3.229 0.183
63.0734 3.396 0.188
63.0939 3.073 0.179
63.1144 3.385 0.188
63.1348 3.083 0.179
63.1553 3.010 0.177
63.1757 3.240 0.184
63.1962 3.167 0.182
63.2167 3.229 0.183
63.2371 3.240 0.184
63.2576 3.438 0.189
63.2781 3.208 0.183
63.2985 3.406 0.188
63.3190 3.188 0.182
63.3394 3.292 0.185
63.3599 3.250 0.184
63.3804 3.531 0.192
63.4008 3.177 0.182
63.4213 3.490 0.191
63.4418 3.219 0.183
63.4622 3.333 0.186
63.4827 3.521 0.192
63.5032 3.531 0.192
63.5236 3.167 0.182
63.5441 3.156 0.181
63.5645 3.708 0.197
63.5850 3.760 0.198
63.6055 3.875 0.201
63.6259 4.333 0.212
63.6464 4.906 0.226
63.6669 4.802 0.224
63.6873 5.167 0.232
63.7078 5.865 0.247
63.7282 5.833 0.247
63.7487 6.260 0.255
63.7692 6.406 0.258
63.7896 6.781 0.266
63.8101 5.385 0.237
63.8306 5.542 0.240
63.8510 5.323 0.235
63.8715 5.271 0.234
63.8919 5.365 0.236
63.9124 5.438 0.238
63.9329 5.427 0.238
63.9533 5.385 0.237
63.9738 5.406 0.237
63.9943 4.927 0.227
64.0147 5.042 0.229
64.0352 4.656 0.220
64.0556 4.333 0.212
64.0761 4.448 0.215
64.0966 4.021 0.205
64.1170 3.635 0.195
64.1375 3.844 0.200
64.1580 4.104 0.207
64.1784 3.708 0.197
64.1989 3.958 0.203
64.2193 3.792 0.199
64.2398 3.844 0.200
64.2603 3.771 0.198
64.2807 3.760 0.198
64.3012 3.646 0.195
64.3217 3.938 0.203
64.3421 3.458 0.190
64.3626 3.573 0.193
64.3831 4.188 0.209
64.4035 3.917 0.202
64.4240 3.729 0.197
64.4444 3.813 0.199
64.4649 4.302 0.212
64.4854 4.281 0.211
64.5058 4.448 0.215
64.5263 4.677 0.221
64.5468 5.219 0.233
64.5672 5.698 0.244
64.5877 6.125 0.253
64.6081 7.385 0.277
64.6286 8.208 0.292
64.6491 8.146 0.291
64.6695 7.990 0.288
64.6900 6.917 0.268
64.7105 6.813 0.266
64.7309 6.302 0.256
64.7514 6.521 0.261
64.7718 6.469 0.260
64.7923 6.688 0.264
64.8128 6.792 0.266
64.8332 5.865 0.247
64.8537 5.448 0.238
64.8742 5.094 0.230
64.8946 4.583 0.219
64.9151 4.594 0.219
64.9355 4.729 0.222
64.9560 4.458 0.216
64.9765 4.250 0.210
64.9969 4.083 0.206
65.0174 3.396 0.188
65.0379 3.677 0.196
65.0583 3.271 0.185
65.0788 3.563 0.193
65.0992 3.583 0.193
65.1197 3.135 0.181
65.1402 2.979 0.176
65.1606 3.229 0.183
65.1811 3.760 0.198
65.2016 3.354 0.187
65.2220 3.354 0.187
65.2425 3.354 0.187
65.2630 2.740 0.169
65.2834 3.021 0.177
65.3039 3.229 0.183
65.3243 3.385 0.188
65.3448 2.969 0.176
65.3653 3.292 0.185
65.3857 3.323 0.186
65.4062 3.198 0.183
65.4267 3.375 0.188
65.4471 3.635 0.195
65.4676 3.667 0.195
65.4880 3.938 0.203
65.5085 4.229 0.210
65.5290 4.708 0.221
65.5494 4.490 0.216
65.5699 5.219 0.233
65.5904 4.979 0.228
65.6108 4.542 0.218
65.6313 4.427 0.215
65.6517 4.031 0.205
65.6722 3.833 0.200
65.6927 3.875 0.201
65.7131 4.219 0.210
65.7336 3.760 0.198
65.7541 4.438 0.215
65.7745 4.333 0.212
65.7950 3.927 0.202
65.8154 3.490 0.191
65.8359 3.583 0.193
65.8564 3.396 0.188
65.8768 3.552 0.192
65.8973 3.760 0.198
65.9178 3.344 0.187
65.9382 2.979 0.176
65.9587 3.583 0.193
65.9791 3.958 0.203
65.9996 3.958 0.203
66.0201 3.781 0.198
66.0405 4.260 0.211
66.0610 4.333 0.212
66.0815 4.438 0.215
66.1019 4.656 0.220
66.1224 4.365 0.213
66.1429 4.302 0.212
66.1633 3.969 0.203
66.1838 3.896 0.201
66.2042 4.542 0.218
66.2247 4.250 0.210
66.2452 3.969 0.203
66.2656 3.823 0.200
66.2861 4.219 0.210
66.3066 4.042 0.205
66.3270 4.146 0.208
66.3475 4.000 0.204
66.3679 3.938 0.203
66.3884 3.823 0.200
66.4089 3.729 0.197
66.4293 3.927 0.202
66.4498 3.740 0.197
66.4703 3.844 0.200
66.4907 3.438 0.189
66.5112 3.521 0.192
66.5316 3.635 0.195
66.5521 3.813 0.199
66.5726 3.552 0.192
66.5930 4.073 0.206
66.6135 4.167 0.208
66.6340 4.292 0.211
66.6544 4.083 0.206
66.6749 3.677 0.196
66.6953 3.698 0.196
66.7158 3.948 0.203
66.7363 4.208 0.209
66.7567 3.667 0.195
66.7772 3.792 0.199
66.7977 4.177 0.209
66.8181 3.948 0.203
66.8386 3.906 0.202
66.8590 4.010 0.204
66.8795 3.927 0.202
66.9000 4.094 0.207
66.9204 3.875 0.201
66.9409 4.104 0.207
66.9614 4.719 0.222
66.9818 4.833 0.224
67.0023 5.063 0.230
67.0228 5.646 0.243
67.0432 5.458 0.238
67.0637 6.573 0.262
67.0841 7.302 0.276
67.1046 8.583 0.299
67.1251 9.010 0.306
67.1455 8.948 0.305
67.1660 8.167 0.292
67.1865 7.729 0.284
67.2069 6.406 0.258
67.2274 6.552 0.261
67.2478 5.823 0.246
67.2683 6.729 0.265
67.2888 6.698 0.264
67.3092 6.958 0.269
67.3297 6.750 0.265
67.3502 6.375 0.258
67.3706 5.688 0.243
67.3911 5.323 0.235
67.4115 5.104 0.231
67.4320 5.135 0.231
67.4525 4.615 0.219
67.4729 4.510 0.217
67.4934 4.479 0.216
67.5139 4.531 0.217
67.5343 4.177 0.209
67.5548 4.667 0.220
67.5752 4.448 0.215
67.5957 4.500 0.217
67.6162 4.448 0.215
67.6366 4.646 0.220
67.6571 4.448 0.215
67.6776 4.354 0.213
67.6980 4.667 0.220
67.7185 4.625 0.219
67.7389 5.104 0.231
67.7594 4.510 0.217
67.7799 4.719 0.222
67.8003 4.510 0.217
67.8208 4.438 0.215
67.8413 4.000 0.204
67.8617 4.385 0.214
67.8822 4.063 0.206
67.9027 4.760 0.223
67.9231 4.115 0.207
67.9436 4.677 0.221
67.9640 5.135 0.231
67.9845 5.063 0.230
68.0050 4.281 0.211
68.0254 4.396 0.214
68.0459 4.688 0.221
68.0664 4.740 0.222
68.0868 4.573 0.218
68.1073 4.385 0.214
68.1277 4.688 0.221
68.1482 4.583 0.219
68.1687 4.427 0.215
68.1891 4.198 0.209
68.2096 4.646 0.220
68.2301 4.354 0.213
68.2505 4.646 0.220
68.2710 4.719 0.222
68.2914 4.938 0.227
68.3119 4.802 0.224
68.3324 5.188 0.232
68.3528 4.969 0.228
68.3733 4.292 0.211
68.3938 4.135 0.208
68.4142 4.313 0.212
68.4347 4.094 0.207
68.4551 3.813 0.199
68.4756 4.240 0.210
68.4961 3.938 0.203
68.5165 4.292 0.211
68.5370 4.156 0.208
68.5575 3.531 0.192
68.5779 3.698 0.196
68.5984 3.490 0.191
68.6189 3.344 0.187
68.6393 3.490 0.191
68.6598 3.458 0.190
68.6802 3.823 0.200
68.7007 3.521 0.192
68.7212 3.396 0.188
68.7416 3.708 0.197
68.7621 4.063 0.206
68.7826 3.823 0.200
68.8030 4.042 0.205
68.8235 4.135 0.208
68.8439 4.250 0.210
68.8644 4.260 0.211
68.8849 4.073 0.206
68.9053 4.313 0.212
68.9258 4.615 0.219
68.9463 5.083 0.230
68.9667 5.521 0.240
68.9872 5.240 0.234
69.0076 4.833 0.224
69.0281 4.604 0.219
69.0486 4.635 0.220
69.0690 4.198 0.209
69.0895 4.177 0.209
69.1100 4.083 0.206
69.1304 4.177 0.209
69.1509 4.250 0.210
69.1713 4.448 0.215
69.1918 4.563 0.218
69.2123 4.583 0.219
69.2327 4.229 0.210
69.2532 4.021 0.205
69.2737 4.073 0.206
69.2941 4.167 0.208
69.3146 3.490 0.191
69.3350 3.448 0.190
69.3555 3.552 0.192
69.3760 3.594 0.193
69.3964 3.531 0.192
69.4169 3.625 0.194
69.4374 3.760 0.198
69.4578 3.854 0.200
69.4783 3.646 0.195
69.4988 3.469 0.190
69.5192 2.979 0.176
69.5397 3.083 0.179
69.5601 3.208 0.183
69.5806 3.219 0.183
69.6011 3.302 0.185
69.6215 3.031 0.178
69.6420 3.063 0.179
69.6625 2.844 0.172
69.6829 2.958 0.176
69.7034 3.073 0.179
69.7238 3.354 0.187
69.7443 2.885 0.173
69.7648 2.708 0.168
69.7852 3.208 0.183
69.8057 3.073 0.179
69.8262 3.208 0.183
69.8466 2.823 0.171
69.8671 2.917 0.174
69.8875 2.917 0.174
69.9080 2.844 0.172
69.9285 2.844 0.172
69.9489 3.063 0.179
69.9694 3.281 0.185
69.9899 3.135 0.181
70.0103 3.167 0.182
70.0308 3.135 0.181
70.0512 3.125 0.180
70.0717 3.021 0.177
70.0922 3.073 0.179
70.1126 2.833 0.172
70.1331 2.969 0.176
70.1536 3.094 0.180
70.1740 2.750 0.169
70.1945 2.771 0.170
70.2149 3.115 0.180
70.2354 3.198 0.183
70.2559 3.188 0.182
70.2763 2.781 0.170
70.2968 2.938 0.175
70.3173 2.823 0.171
70.3377 3.021 0.177
70.3582 2.885 0.173
70.3787 3.010 0.177
70.3991 2.771 0.170
70.4196 2.885 0.173
70.4400 2.896 0.174
70.4605 2.833 0.172
70.4810 3.167 0.182
70.5014 3.156 0.181
70.5219 2.792 0.171
70.5424 2.938 0.175
70.5628 3.552 0.192
70.5833 3.198 0.183
70.6037 3.240 0.184
70.6242 3.052 0.178
70.6447 3.552 0.192
70.6651 3.417 0.189
70.6856 3.365 0.187
70.7061 3.365 0.187
70.7265 3.333 0.186
70.7470 3.469 0.190
70.7674 3.021 0.177
70.7879 3.021 0.177
70.8084 2.990 0.176
70.8288 3.406 0.188
70.8493 3.208 0.183
70.8698 2.979 0.176
70.8902 3.031 0.178
70.9107 3.083 0.179
70.9311 3.042 0.178
70.9516 3.031 0.178
70.9721 3.083 0.179
70.9925 3.125 0.180
71.0130 3.094 0.180
71.0335 3.563 0.193
71.0539 3.156 0.181
71.0744 3.427 0.189
71.0948 3.063 0.179
71.1153 3.250 0.184
71.1358 2.979 0.176
71.1562 3.104 0.180
71.1767 2.833 0.172
71.1972 3.302 0.185
71.2176 2.865 0.173
71.2381 3.333 0.186
71.2586 3.104 0.180
71.2790 3.073 0.179
71.2995 3.104 0.180
71.3199 3.042 0.178
71.3404 2.802 0.171
71.3609 3.083 0.179
71.3813 2.781 0.170
71.4018 3.240 0.184
71.4223 2.865 0.173
71.4427 2.813 0.171
71.4632 2.729 0.169
71.4836 3.406 0.188
71.5041 2.865 0.173
71.5246 2.979 0.176
71.5450 3.521 0.192
71.5655 3.063 0.179
71.5860 2.927 0.175
71.6064 3.010 0.177
71.6269 2.833 0.172
71.6473 2.833 0.172
71.6678 3.000 0.177
71.6883 2.781 0.170
71.7087 2.750 0.169
71.7292 3.198 0.183
71.7497 3.000 0.177
71.7701 2.854 0.172
71.7906 2.771 0.170
71.8110 2.917 0.174
71.8315 2.740 0.169
71.8520 2.552 0.163
71.8724 2.677 0.167
71.8929 2.813 0.171
71.9134 2.719 0.168
71.9338 2.854 0.172
71.9543 2.740 0.169
71.9747 2.573 0.164
71.9952 2.594 0.164
72.0157 2.479 0.161
72.0361 2.844 0.172
72.0566 2.698 0.168
72.0771 2.469 0.160
72.0975 2.719 0.168
72.1180 2.646 0.166
72.1385 2.594 0.164
72.1589 2.667 0.167
72.1794 2.583 0.164
72.1998 2.552 0.163
72.2203 2.719 0.168
72.2408 2.729 0.169
72.2612 2.792 0.171
72.2817 2.823 0.171
72.3022 2.396 0.158
72.3226 2.813 0.171
72.3431 2.563 0.163
72.3635 2.719 0.168
72.3840 2.510 0.162
72.4045 2.500 0.161
72.4249 2.833 0.172
72.4454 2.458 0.160
72.4659 2.510 0.162
72.4863 2.510 0.162
72.5068 2.667 0.167
72.5272 2.615 0.165
72.5477 2.604 0.165
72.5682 2.646 0.166
72.5886 2.479 0.161
72.6091 2.688 0.167
72.6296 2.656 0.166
72.6500 2.823 0.171
72.6705 2.667 0.167
72.6909 2.719 0.168
72.7114 2.771 0.170
72.7319 2.698 0.168
72.7523 2.833 0.172
72.7728 3.083 0.179
72.7933 3.104 0.180
72.8137 3.042 0.178
72.8342 2.760 0.170
72.8547 2.813 0.171
72.8751 2.948 0.175
72.8956 2.625 0.165
72.9160 2.688 0.167
72.9365 2.594 0.164
72.9570 2.792 0.171
72.9774 2.896 0.174
72.9979 2.594 0.164
73.0184 2.708 0.168
73.0388 2.677 0.167
73.0593 2.927 0.175
73.0797 2.469 0.160
73.1002 2.333 0.156
73.1207 2.563 0.163
73.1411 2.344 0.156
73.1616 2.427 0.159
73.1821 2.406 0.158
73.2025 2.500 0.161
73.2230 2.281 0.154
73.2434 2.104 0.148
73.2639 2.198 0.151
73.2844 2.250 0.153
73.3048 2.438 0.159
73.3253 2.344 0.156
73.3458 2.323 0.156
73.3662 2.250 0.153
73.3867 2.167 0.150
73.4071 2.385 0.158
73.4276 2.531 0.162
73.4481 2.521 0.162
73.4685 2.438 0.159
73.4890 2.260 0.153
73.5095 2.333 0.156
73.5299 2.323 0.156
73.5504 2.344 0.156
73.5708 2.385 0.158
73.5913 2.313 0.155
73.6118 2.167 0.150
73.6322 2.365 0.157
73.6527 2.240 0.153
73.6732 2.208 0.152
73.6936 2.198 0.151
73.7141 2.094 0.148
73.7346 2.052 0.146
73.7550 2.396 0.158
73.7755 2.417 0.159
73.7959 2.260 0.153
73.8164 2.438 0.159
73.8369 2.417 0.159
73.8573 2.677 0.167
73.8778 2.135 0.149
73.8983 2.323 0.156
73.9187 2.271 0.154
73.9392 2.688 0.167
73.9596 2.563 0.163
73.9801 2.625 0.165
74.0006 2.396 0.158
74.0210 2.781 0.170
74.0415 2.896 0.174
74.0620 2.823 0.171
74.0824 2.792 0.171
74.1029 2.854 0.172
74.1233 2.677 0.167
74.1438 2.667 0.167
74.1643 2.438 0.159
74.1847 2.448 0.160
74.2052 2.677 0.167
74.2257 2.688 0.167
74.2461 2.677 0.167
74.2666 2.385 0.158
74.2870 2.604 0.165
74.3075 2.760 0.170
74.3280 2.375 0.157
74.3484 2.490 0.161
74.3689 2.615 0.165
74.3894 2.302 0.155
74.4098 2.188 0.151
74.4303 2.500 0.161
74.4507 2.344 0.156
74.4712 2.354 0.157
74.4917 2.302 0.155
74.5121 2.344 0.156
74.5326 2.073 0.147
74.5531 2.417 0.159
74.5735 2.240 0.153
74.5940 2.469 0.160
74.6145 2.365 0.157
74.6349 2.406 0.158
74.6554 2.604 0.165
74.6758 2.385 0.158
74.6963 2.469 0.160
74.7168 2.375 0.157
74.7372 2.365 0.157
74.7577 2.375 0.157
74.7782 2.354 0.157
74.7986 2.500 0.161
74.8191 2.073 0.147
74.8395 2.167 0.150
74.8600 1.990 0.144
74.8805 2.250 0.153
74.9009 2.313 0.155
74.9214 2.063 0.147
74.9419 2.333 0.156
74.9623 2.323 0.156
74.9828 2.229 0.152
75.0032 2.177 0.151
75.0237 2.313 0.155
75.0442 2.240 0.153
75.0646 2.323 0.156
75.0851 2.271 0.154
75.1056 2.323 0.156
75.1260 2.375 0.157
75.1465 2.417 0.159
75.1669 2.208 0.152
75.1874 1.979 0.144
75.2079 2.323 0.156
75.2283 2.260 0.153
75.2488 2.354 0.157
75.2693 2.365 0.157
75.2897 2.458 0.160
75.3102 2.458 0.160
75.3306 2.365 0.157
75.3511 2.313 0.155
75.3716 2.177 0.151
75.3920 2.302 0.155
75.4125 2.604 0.165
75.4330 2.583 0.164
75.4534 2.323 0.156
75.4739 2.625 0.165
75.4944 2.531 0.162
75.5148 2.771 0.170
75.5353 2.573 0.164
75.5557 2.896 0.174
75.5762 3.010 0.177
75.5967 2.771 0.170
75.6171 2.969 0.176
75.6376 3.656 0.195
75.6581 3.313 0.186
75.6785 3.573 0.193
75.6990 3.792 0.199
75.7194 4.344 0.213
75.7399 4.458 0.216
75.7604 4.969 0.228
75.7808 4.948 0.227
75.8013 4.719 0.222
75.8218 4.531 0.217
75.8422 4.125 0.207
75.8627 4.135 0.208
75.8831 3.792 0.199
75.9036 3.948 0.203
75.9241 3.823 0.200
75.9445 3.740 0.197
75.9650 3.615 0.194
75.9855 4.010 0.204
76.0059 3.927 0.202
76.0264 3.833 0.200
76.0468 3.958 0.203
76.0673 3.188 0.182
76.0878 3.156 0.181
76.1082 3.250 0.184
76.1287 3.271 0.185
76.1492 2.927 0.175
76.1696 3.146 0.181
76.1901 3.031 0.178
76.2105 2.844 0.172
76.2310 3.115 0.180
76.2515 2.844 0.172
76.2719 3.010 0.177
76.2924 2.750 0.169
76.3129 2.594 0.164
76.3333 2.823 0.171
76.3538 2.844 0.172
76.3743 2.802 0.171
76.3947 2.771 0.170
76.4152 2.802 0.171
76.4356 2.677 0.167
76.4561 2.719 0.168
76.4766 2.667 0.167
76.4970 2.906 0.174
76.5175 2.833 0.172
76.5380 2.552 0.163
76.5584 2.458 0.160
76.5789 2.490 0.161
76.5993 2.479 0.161
76.6198 2.719 0.168
76.6403 2.615 0.165
76.6607 2.760 0.170
76.6812 2.427 0.159
76.7017 2.542 0.163
76.7221 2.667 0.167
76.7426 2.573 0.164
76.7630 2.594 0.164
76.7835 2.615 0.165
76.8040 2.719 0.168
76.8244 2.615 0.165
76.8449 2.323 0.156
76.8654 2.823 0.171
76.8858 2.573 0.164
76.9063 2.469 0.160
76.9267 2.427 0.159
76.9472 2.552 0.163
76.9677 2.542 0.163
76.9881 2.375 0.157
77.0086 2.260 0.153
77.0291 2.063 0.147
77.0495 2.104 0.148
77.0700 2.229 0.152
77.0905 2.438 0.159
77.1109 2.396 0.158
77.1314 2.344 0.156
77.1518 2.469 0.160
77.1723 2.760 0.170
77.1928 2.583 0.164
77.2132 2.698 0.168
77.2337 2.531 0.162
77.2542 2.552 0.163
77.2746 2.594 0.164
77.2951 2.677 0.167
77.3155 2.688 0.167
77.3360 2.792 0.171
77.3565 2.448 0.160
77.3769 3.042 0.178
77.3974 2.771 0.170
77.4179 2.760 0.170
77.4383 2.750 0.169
77.4588 2.844 0.172
77.4792 3.354 0.187
77.4997 3.198 0.183
77.5202 3.344 0.187
77.5406 3.052 0.178
77.5611 3.021 0.177
77.5816 3.302 0.185
77.6020 2.969 0.176
77.6225 3.125 0.180
77.6429 2.823 0.171
77.6634 3.188 0.182
77.6839 2.833 0.172
77.7043 3.052 0.178
77.7248 2.958 0.176
77.7453 3.292 0.185
77.7657 2.979 0.176
77.7862 3.542 0.192
77.8066 3.146 0.181
77.8271 2.792 0.171
77.8476 2.990 0.176
77.8680 2.760 0.170
77.8885 3.052 0.178
77.9090 2.469 0.160
77.9294 2.708 0.168
77.9499 2.594 0.164
77.9704 2.677 0.167
77.9908 3.094 0.180
78.0113 2.667 0.167
78.0317 3.083 0.179
78.0522 2.656 0.166
78.0727 2.635 0.166
78.0931 2.792 0.171
78.1136 2.792 0.171
78.1341 2.656 0.166
78.1545 2.719 0.168
78.1750 2.479 0.161
78.1954 2.521 0.162
78.2159 2.677 0.167
78.2364 2.563 0.163
78.2568 2.729 0.169
78.2773 2.552 0.163
78.2978 2.896 0.174
78.3182 2.865 0.173
78.3387 3.000 0.177
78.3591 2.917 0.174
78.3796 3.063 0.179
78.4001 2.365 0.157
78.4205 2.823 0.171
78.4410 3.031 0.178
78.4615 2.781 0.170
78.4819 2.833 0.172
78.5024 2.906 0.174
78.5228 3.229 0.183
78.5433 3.031 0.178
78.5638 3.042 0.178
78.5842 3.292 0.185
78.6047 2.781 0.170
78.6252 3.167 0.182
78.6456 2.781 0.170
78.6661 3.104 0.180
78.6865 2.833 0.172
78.7070 3.115 0.180
78.7275 2.844 0.172
78.7479 2.698 0.168
78.7684 2.958 0.176
78.7889 2.896 0.174
78.8093 2.958 0.176
78.8298 3.240 0.184
78.8503 3.302 0.185
78.8707 2.781 0.170
78.8912 3.167 0.182
78.9116 3.208 0.183
78.9321 3.385 0.188
78.9526 3.010 0.177
78.9730 2.917 0.174
78.9935 3.094 0.180
79.0140 3.125 0.180
79.0344 3.063 0.179
79.0549 2.729 0.169
79.0753 2.698 0.168
79.0958 2.781 0.170
79.1163 2.844 0.172
79.1367 3.146 0.181
79.1572 2.958 0.176
79.1777 2.833 0.172
79.1981 2.688 0.167
79.2186 2.854 0.172
79.2390 2.740 0.169
79.2595 2.760 0.170
79.2800 2.781 0.170
79.3004 2.771 0.170
79.3209 2.781 0.170
79.3414 2.448 0.160
79.3618 2.646 0.166
79.3823 2.615 0.165
79.4027 2.667 0.167
79.4232 2.948 0.175
79.4437 2.500 0.161
79.4641 2.719 0.168
79.4846 2.906 0.174
79.5051 3.271 0.185
79.5255 3.021 0.177
79.5460 2.865 0.173
79.5664 2.760 0.170
79.5869 2.802 0.171
79.6074 2.708 0.168
79.6278 3.052 0.178
79.6483 2.563 0.163
79.6688 2.656 0.166
79.6892 2.625 0.165
79.7097 2.365 0.157
79.7302 2.792 0.171
79.7506 2.531 0.162
79.7711 2.740 0.169
79.7915 2.813 0.171
79.8120 2.573 0.164
79.8325 2.563 0.163
79.8529 2.417 0.159
79.8734 2.521 0.162
79.8939 2.969 0.176
79.9143 2.583 0.164
79.9348 2.469 0.160
79.9552 2.667 0.167
79.9757 2.479 0.161
79.9962 2.594 0.164
