5.02 214
5.04 230
5.06 195
5.08 219
5.1 184
5.12 211
5.14 205
5.16 200
5.18 217
5.2 220
5.22 196
5.24 207
5.26 195
5.28 193
5.3 193
5.32 193
5.34 225
5.36 200
5.38 189
5.4 223
5.42 221
5.44 184
5.46 204
5.48 189
5.5 216
5.52 209
5.54 189
5.56 172
5.58 202
5.6 162
5.62 198
5.64 186
5.66 179
5.68 175
5.7 187
5.72 178
5.74 191
5.76 186
5.78 209
5.8 177
5.82 175
5.84 162
5.86 200
5.88 179
5.9 172
5.92 191
5.94 184
5.96 173
5.98 197
6 166
6.02 178
6.04 181
6.06 157
6.08 168
6.1 163
6.12 164
6.14 195
6.16 192
6.18 170
6.2 173
6.22 161
6.24 193
6.26 164
6.28 181
6.3 171
6.32 187
6.34 156
6.36 172
6.38 163
6.4 166
6.42 178
6.44 157
6.46 184
6.48 187
6.5 166
6.52 177
6.54 180
6.56 153
6.58 144
6.6 169
6.62 180
6.64 159
6.66 155
6.68 165
6.7 157
6.72 185
6.74 163
6.76 147
6.78 180
6.8 171
6.82 155
6.84 168
6.86 151
6.88 148
6.9 154
6.92 145
6.94 138
6.96 148
6.98 142
7 166
7.02 149
7.04 162
7.06 173
7.08 160
7.1 158
7.12 154
7.14 156
7.16 195
7.18 151
7.2 178
7.22 160
7.24 154
7.26 164
7.28 153
7.3 183
7.32 155
7.34 151
7.36 164
7.38 128
7.4 139
7.42 133
7.44 143
7.46 138
7.48 139
7.5 146
7.52 146
7.54 155
7.56 169
7.58 162
7.6 144
7.62 129
7.64 153
7.66 149
7.68 123
7.7 154
7.72 144
7.74 136
7.76 162
7.78 162
7.8 163
7.82 152
7.84 149
7.86 147
7.88 153
7.9 139
7.92 136
7.94 159
7.96 136
7.98 153
8 150
8.02 168
8.04 135
8.06 138
8.08 136
8.1 169
8.12 139
8.14 127
8.16 140
8.18 150
8.2 159
8.22 143
8.24 133
8.26 131
8.28 148
8.3 138
8.32 164
8.34 147
8.36 126
8.38 144
8.4 119
8.42 110
8.44 140
8.46 133
8.48 142
8.5 135
8.52 116
8.54 177
8.56 138
8.58 117
8.6 127
8.62 136
8.64 134
8.66 151
8.68 149
8.7 147
8.72 128
8.74 145
8.76 147
8.78 138
8.8 151
8.82 148
8.84 129
8.86 137
8.88 126
8.9 154
8.92 150
8.94 143
8.96 143
8.98 119
9 141
9.02 131
9.04 145
9.06 121
9.08 121
9.1 139
9.12 122
9.14 122
9.16 134
9.18 149
9.2 136
9.22 125
9.24 145
9.26 126
9.28 155
9.3 118
9.32 127
9.34 121
9.36 122
9.38 132
9.4 122
9.42 126
9.44 123
9.46 109
9.48 121
9.5 128
9.52 129
9.54 104
9.56 142
9.58 111
9.6 101
9.62 123
9.64 129
9.66 139
9.68 124
9.7 138
9.72 139
9.74 134
9.76 127
9.78 120
9.8 130
9.82 111
9.84 123
9.86 118
9.88 108
9.9 126
9.92 134
9.94 124
9.96 108
9.98 121
10 136
10.02 120
10.04 120
10.06 137
10.08 130
10.1 118
10.12 139
10.14 129
10.16 109
10.18 128
10.2 117
10.22 114
10.24 113
10.26 120
10.28 132
10.3 100
10.32 112
10.34 129
10.36 121
10.38 118
10.4 121
10.42 118
10.44 149
10.46 116
10.48 129
10.5 106
10.52 121
10.54 115
10.56 111
10.58 104
10.6 123
10.62 123
10.64 119
10.66 115
10.68 121
10.7 109
10.72 123
10.74 121
10.76 138
10.78 116
10.8 118
10.82 132
10.84 97
10.86 99
10.88 137
10.9 111
10.92 116
10.94 148
10.96 110
10.98 116
11 107
11.02 134
11.04 115
11.06 131
11.08 115
11.1 119
11.12 119
11.14 127
11.16 126
11.18 125
11.2 127
11.22 121
11.24 131
11.26 116
11.28 122
11.3 153
11.32 169
11.34 157
11.36 181
11.38 183
11.4 174
11.42 197
11.44 206
11.46 261
11.48 286
11.5 307
11.52 348
11.54 405
11.56 406
11.58 378
11.6 440
11.62 410
11.64 408
11.66 376
11.68 336
11.7 337
11.72 239
11.74 241
11.76 223
11.78 191
11.8 160
11.82 143
11.84 149
11.86 138
11.88 156
11.9 154
11.92 159
11.94 140
11.96 197
11.98 186
12 167
12.02 188
12.04 222
12.06 223
12.08 194
12.1 185
12.12 217
12.14 183
12.16 202
12.18 178
12.2 163
12.22 135
12.24 153
12.26 131
12.28 128
12.3 126
12.32 99
12.34 110
12.36 121
12.38 123
12.4 109
12.42 132
12.44 99
12.46 105
12.48 93
12.5 108
12.52 99
12.54 118
12.56 105
12.58 103
12.6 116
12.62 104
12.64 141
12.66 106
12.68 104
12.7 113
12.72 106
12.74 113
12.76 120
12.78 128
12.8 108
12.82 97
12.84 127
12.86 116
12.88 125
12.9 101
12.92 114
12.94 112
12.96 121
12.98 96
13 115
13.02 110
13.04 96
13.06 122
13.08 106
13.1 106
13.12 117
13.14 108
13.16 129
13.18 119
13.2 105
13.22 122
13.24 83
13.26 101
13.28 114
13.3 78
13.32 100
13.34 104
13.36 91
13.38 102
13.4 92
13.42 113
13.44 106
13.46 90
13.48 103
13.5 97
13.52 83
13.54 114
13.56 113
13.58 120
13.6 109
13.62 115
13.64 113
13.66 106
13.68 104
13.7 98
13.72 94
13.74 103
13.76 109
13.78 91
13.8 104
13.82 120
13.84 105
13.86 110
13.88 108
13.9 109
13.92 103
13.94 102
13.96 110
13.98 98
14 115
14.02 101
14.04 85
14.06 108
14.08 97
14.1 96
14.12 101
14.14 105
14.16 106
14.18 83
14.2 83
14.22 113
14.24 123
14.26 95
14.28 105
14.3 113
14.32 84
14.34 101
14.36 106
14.38 104
14.4 86
14.42 101
14.44 105
14.46 109
14.48 117
14.5 131
14.52 113
14.54 138
14.56 118
14.58 159
14.6 141
14.62 164
14.64 159
14.66 184
14.68 153
14.7 202
14.72 197
14.74 228
14.76 215
14.78 209
14.8 169
14.82 213
14.84 210
14.86 213
14.88 194
14.9 179
14.92 197
14.94 156
14.96 154
14.98 151
15 142
15.02 123
15.04 114
15.06 106
15.08 106
15.1 111
15.12 121
15.14 94
15.16 106
15.18 105
15.2 104
15.22 84
15.24 127
15.26 81
15.28 99
15.3 109
15.32 98
15.34 111
15.36 99
15.38 93
15.4 105
15.42 98
15.44 96
15.46 80
15.48 115
15.5 103
15.52 97
15.54 93
15.56 101
15.58 94
15.6 83
15.62 97
15.64 80
15.66 89
15.68 105
15.7 109
15.72 91
15.74 112
15.76 87
15.78 100
15.8 121
15.82 97
15.84 82
15.86 91
15.88 108
15.9 92
15.92 101
15.94 110
15.96 100
15.98 117
16 112
16.02 108
16.04 119
16.06 103
16.08 120
16.1 132
16.12 117
16.14 106
16.16 95
16.18 107
16.2 105
16.22 103
16.24 107
16.26 80
16.28 99
16.3 93
16.32 97
16.34 80
16.36 103
16.38 97
16.4 91
16.42 77
16.44 73
16.46 87
16.48 85
16.5 92
16.52 84
16.54 87
16.56 92
16.58 89
16.6 98
16.62 87
16.64 92
16.66 89
16.68 102
16.7 91
16.72 80
16.74 83
16.76 115
16.78 102
16.8 88
16.82 90
16.84 99
16.86 101
16.88 95
16.9 92
16.92 100
16.94 83
16.96 90
16.98 112
17 90
17.02 99
17.04 73
17.06 96
17.08 88
17.1 108
17.12 83
17.14 113
17.16 114
17.18 90
17.2 90
17.22 114
17.24 94
17.26 105
17.28 82
17.3 99
17.32 93
17.34 89
17.36 85
17.38 93
17.4 108
17.42 94
17.44 112
17.46 102
17.48 99
17.5 89
17.52 105
17.54 92
17.56 106
17.58 102
17.6 97
17.62 107
17.64 96
17.66 102
17.68 107
17.7 111
17.72 112
17.74 104
17.76 101
17.78 104
17.8 96
17.82 109
17.84 94
17.86 89
17.88 107
17.9 109
17.92 118
17.94 117
17.96 123
17.98 132
18 110
18.02 147
18.04 143
18.06 135
18.08 126
18.1 123
18.12 100
18.14 110
18.16 103
18.18 80
18.2 109
18.22 101
18.24 100
18.26 96
18.28 90
18.3 91
18.32 92
18.34 94
18.36 81
18.38 94
18.4 103
18.42 90
18.44 90
18.46 78
18.48 93
18.5 96
18.52 98
18.54 83
18.56 77
18.58 84
18.6 86
18.62 82
18.64 76
18.66 101
18.68 87
18.7 101
18.72 76
18.74 86
18.76 102
18.78 98
18.8 96
18.82 105
18.84 91
18.86 104
18.88 83
18.9 125
18.92 109
18.94 117
18.96 98
18.98 83
19 90
19.02 116
19.04 98
19.06 108
19.08 91
19.1 112
19.12 103
19.14 82
19.16 86
19.18 92
19.2 85
19.22 85
19.24 85
19.26 97
19.28 79
19.3 90
19.32 88
19.34 87
19.36 109
19.38 81
19.4 99
19.42 81
19.44 85
19.46 86
19.48 98
19.5 89
19.52 91
19.54 96
19.56 80
19.58 87
19.6 79
19.62 91
19.64 93
19.66 75
19.68 88
19.7 91
19.72 92
19.74 84
19.76 88
19.78 100
19.8 70
19.82 93
19.84 80
19.86 83
19.88 93
19.9 83
19.92 91
19.94 98
19.96 94
19.98 84
20 92
20.02 87
20.04 66
20.06 80
20.08 87
20.1 86
20.12 91
20.14 105
20.16 84
20.18 94
20.2 91
20.22 106
20.24 103
20.26 115
20.28 105
20.3 97
20.32 106
20.34 69
20.36 103
20.38 106
20.4 85
20.42 77
20.44 92
20.46 96
20.48 94
20.5 88
20.52 94
20.54 108
20.56 95
20.58 90
20.6 112
20.62 131
20.64 129
20.66 125
20.68 113
20.7 121
20.72 126
20.74 121
20.76 124
20.78 102
20.8 110
20.82 108
20.84 113
20.86 120
20.88 103
20.9 107
20.92 117
20.94 97
20.96 116
20.98 90
21 109
21.02 108
21.04 105
21.06 121
21.08 122
21.1 109
21.12 112
21.14 113
21.16 98
21.18 92
21.2 104
21.22 100
21.24 83
21.26 84
21.28 85
21.3 101
21.32 97
21.34 89
21.36 97
21.38 115
21.4 91
21.42 91
21.44 115
21.46 77
21.48 83
21.5 94
21.52 87
21.54 81
21.56 105
21.58 100
21.6 102
21.62 101
21.64 114
21.66 107
21.68 107
21.7 103
21.72 109
21.74 114
21.76 142
21.78 123
21.8 103
21.82 106
21.84 110
21.86 104
21.88 117
21.9 104
21.92 96
21.94 100
21.96 100
21.98 81
22 99
22.02 78
22.04 100
22.06 84
22.08 102
22.1 101
22.12 102
22.14 87
22.16 83
22.18 85
22.2 85
22.22 69
22.24 93
22.26 91
22.28 92
22.3 91
22.32 86
22.34 96
22.36 85
22.38 95
22.4 91
22.42 103
22.44 81
22.46 71
22.48 83
22.5 99
22.52 85
22.54 85
22.56 81
22.58 112
22.6 110
22.62 71
22.64 74
22.66 96
22.68 94
22.7 109
22.72 124
22.74 122
22.76 133
22.78 132
22.8 143
22.82 127
22.84 162
22.86 150
22.88 177
22.9 192
22.92 180
22.94 196
22.96 201
22.98 196
23 163
23.02 158
23.04 165
23.06 128
23.08 161
23.1 119
23.12 114
23.14 112
23.16 117
23.18 130
23.2 111
23.22 112
23.24 117
23.26 100
23.28 132
23.3 134
23.32 131
23.34 146
23.36 143
23.38 126
23.4 150
23.42 129
23.44 147
23.46 142
23.48 117
23.5 105
23.52 94
23.54 91
23.56 91
23.58 106
23.6 84
23.62 101
23.64 106
23.66 98
23.68 95
23.7 95
23.72 96
23.74 75
23.76 88
23.78 84
23.8 96
23.82 75
23.84 88
23.86 99
23.88 96
23.9 84
23.92 94
23.94 83
23.96 87
23.98 94
24 87
24.02 80
24.04 90
24.06 104
24.08 108
24.1 112
24.12 120
24.14 132
24.16 99
24.18 103
24.2 122
24.22 129
24.24 128
24.26 139
24.28 150
24.3 134
24.32 134
24.34 132
24.36 144
24.38 128
24.4 125
24.42 112
24.44 128
24.46 101
24.48 102
24.5 124
24.52 110
24.54 100
24.56 84
24.58 93
24.6 94
24.62 96
24.64 87
24.66 101
24.68 96
24.7 98
24.72 90
24.74 80
24.76 80
24.78 96
24.8 90
24.82 90
24.84 95
24.86 109
24.88 96
24.9 125
24.92 99
24.94 105
24.96 91
24.98 121
25 100
25.02 114
25.04 118
25.06 115
25.08 142
25.1 110
25.12 127
25.14 132
25.16 146
25.18 150
25.2 116
25.22 144
25.24 164
25.26 129
25.28 148
25.3 138
25.32 128
25.34 149
25.36 119
25.38 139
25.4 118
25.42 128
25.44 135
25.46 131
25.48 142
25.5 126
25.52 125
25.54 126
25.56 120
25.58 116
25.6 132
25.62 127
25.64 124
25.66 133
25.68 114
25.7 127
25.72 134
25.74 133
25.76 119
25.78 127
25.8 106
25.82 105
25.84 107
25.86 105
25.88 103
25.9 101
25.92 101
25.94 99
25.96 89
25.98 94
26 111
26.02 87
26.04 94
26.06 95
26.08 98
26.1 100
26.12 106
26.14 86
26.16 113
26.18 97
26.2 126
26.22 113
26.24 127
26.26 113
26.28 111
26.3 108
26.32 119
26.34 100
26.36 113
26.38 122
26.4 98
26.42 95
26.44 99
26.46 95
26.48 105
26.5 108
26.52 89
26.54 95
26.56 94
26.58 94
26.6 95
26.62 88
26.64 102
26.66 96
26.68 102
26.7 90
26.72 95
26.74 105
26.76 106
26.78 96
26.8 106
26.82 111
26.84 109
26.86 87
26.88 96
26.9 99
26.92 81
26.94 100
26.96 107
26.98 77
27 100
27.02 98
27.04 91
27.06 76
27.08 90
27.1 70
27.12 93
27.14 99
27.16 108
27.18 96
27.2 115
27.22 81
27.24 93
27.26 93
27.28 99
27.3 120
27.32 97
27.34 123
27.36 106
27.38 106
27.4 113
27.42 106
27.44 97
27.46 111
27.48 114
27.5 96
27.52 116
27.54 98
27.56 111
27.58 104
27.6 105
27.62 119
27.64 112
27.66 105
27.68 105
27.7 117
27.72 105
27.74 108
27.76 110
27.78 110
27.8 126
27.82 114
27.84 114
27.86 122
27.88 138
27.9 144
27.92 126
27.94 151
27.96 140
27.98 130
28 120
28.02 137
28.04 129
28.06 125
28.08 116
28.1 124
28.12 111
28.14 130
28.16 114
28.18 108
28.2 124
28.22 121
28.24 122
28.26 122
28.28 108
28.3 108
28.32 111
28.34 120
28.36 112
28.38 115
28.4 119
28.42 100
28.44 110
28.46 116
28.48 94
28.5 108
28.52 101
28.54 117
28.56 99
28.58 120
28.6 111
28.62 108
28.64 106
28.66 127
28.68 87
28.7 105
28.72 110
28.74 121
28.76 108
28.78 123
28.8 120
28.82 129
28.84 111
28.86 138
28.88 140
28.9 122
28.92 146
28.94 121
28.96 142
28.98 137
29 166
29.02 165
29.04 178
29.06 185
29.08 202
29.1 213
29.12 239
29.14 263
29.16 368
29.18 435
29.2 625
29.22 657
29.24 867
29.26 979
29.28 1202
29.3 1255
29.32 1381
29.34 1448
29.36 1522
29.38 1583
29.4 1491
29.42 1401
29.44 1300
29.46 1136
29.48 953
29.5 836
29.52 664
29.54 610
29.56 419
29.58 394
29.6 339
29.62 279
29.64 262
29.66 243
29.68 205
29.7 221
29.72 203
29.74 194
29.76 203
29.78 187
29.8 198
29.82 195
29.84 192
29.86 207
29.88 235
29.9 249
29.92 239
29.94 250
29.96 302
29.98 293
30 331
30.02 292
30.04 315
30.06 321
30.08 301
30.1 296
30.12 257
30.14 238
30.16 237
30.18 206
30.2 174
30.22 167
30.24 135
30.26 135
30.28 132
30.3 127
30.32 136
30.34 116
30.36 118
30.38 138
30.4 110
30.42 114
30.44 124
30.46 119
30.48 107
30.5 134
30.52 102
30.54 110
30.56 101
30.58 126
30.6 114
30.62 109
30.64 105
30.66 102
30.68 104
30.7 108
30.72 97
30.74 96
30.76 107
30.78 99
30.8 115
30.82 123
30.84 120
30.86 120
30.88 130
30.9 124
30.92 120
30.94 143
30.96 116
30.98 161
31 140
31.02 153
31.04 133
31.06 128
31.08 124
31.1 120
31.12 144
31.14 138
31.16 95
31.18 132
31.2 111
31.22 117
31.24 125
31.26 103
31.28 121
31.3 112
31.32 122
31.34 86
31.36 109
31.38 131
31.4 121
31.42 144
31.44 134
31.46 139
31.48 145
31.5 155
31.52 147
31.54 160
31.56 162
31.58 163
31.6 159
31.62 166
31.64 143
31.66 188
31.68 162
31.7 145
31.72 171
31.74 195
31.76 228
31.78 206
31.8 196
31.82 231
31.84 244
31.86 264
31.88 280
31.9 271
31.92 313
31.94 412
31.96 457
31.98 556
32 616
32.02 765
32.04 902
32.06 1169
32.08 1360
32.1 1600
32.12 1775
32.14 1988
32.16 2080
32.18 2219
32.2 2087
32.22 2019
32.24 1905
32.26 1716
32.28 1518
32.3 1345
32.32 1189
32.34 1098
32.36 995
32.38 925
32.4 898
32.42 904
32.44 920
32.46 1069
32.48 1144
32.5 1197
32.52 1251
32.54 1290
32.56 1214
32.58 1249
32.6 1107
32.62 1056
32.64 918
32.66 803
32.68 692
32.7 609
32.72 505
32.74 461
32.76 394
32.78 362
32.8 303
32.82 286
32.84 276
32.86 249
32.88 245
32.9 234
32.92 288
32.94 244
32.96 275
32.98 271
33 261
33.02 289
33.04 305
33.06 321
33.08 332
33.1 363
33.12 394
33.14 423
33.16 434
33.18 440
33.2 429
33.22 481
33.24 494
33.26 489
33.28 472
33.3 477
33.32 447
33.34 400
33.36 433
33.38 350
33.4 348
33.42 344
33.44 351
33.46 285
33.48 275
33.5 298
33.52 291
33.54 316
33.56 295
33.58 255
33.6 288
33.62 285
33.64 300
33.66 310
33.68 354
33.7 334
33.72 347
33.74 357
33.76 430
33.78 403
33.8 417
33.82 408
33.84 379
33.86 399
33.88 385
33.9 381
33.92 362
33.94 351
33.96 315
33.98 296
34 327
34.02 295
34.04 314
34.06 297
34.08 347
34.1 383
34.12 423
34.14 474
34.16 589
34.18 700
34.2 904
34.22 877
34.24 1021
34.26 1025
34.28 1097
34.3 1081
34.32 1015
34.34 1071
34.36 993
34.38 899
34.4 821
34.42 659
34.44 593
34.46 465
34.48 409
34.5 331
34.52 278
34.54 268
34.56 181
34.58 165
34.6 188
34.62 170
34.64 153
34.66 150
34.68 137
34.7 135
34.72 128
34.74 149
34.76 150
34.78 139
34.8 120
34.82 141
34.84 143
34.86 136
34.88 127
34.9 122
34.92 143
34.94 122
34.96 118
34.98 115
35 112
35.02 118
35.04 108
35.06 102
35.08 116
35.1 115
35.12 117
35.14 129
35.16 121
35.18 143
35.2 116
35.22 120
35.24 117
35.26 98
35.28 113
35.3 118
35.32 112
35.34 108
35.36 116
35.38 98
35.4 102
35.42 98
35.44 100
35.46 137
35.48 93
35.5 112
35.52 122
35.54 137
35.56 101
35.58 110
35.6 121
35.62 116
35.64 97
35.66 95
35.68 106
35.7 124
35.72 118
35.74 128
35.76 122
35.78 134
35.8 121
35.82 125
35.84 118
35.86 141
35.88 133
35.9 135
35.92 129
35.94 132
35.96 135
35.98 146
36 162
36.02 137
36.04 123
36.06 135
36.08 129
36.1 110
36.12 144
36.14 112
36.16 142
36.18 112
36.2 131
36.22 130
36.24 136
36.26 136
36.28 143
36.3 116
36.32 162
36.34 117
36.36 142
36.38 149
36.4 156
36.42 138
36.44 148
36.46 151
36.48 164
36.5 164
36.52 179
36.54 184
36.56 190
36.58 205
36.6 222
36.62 234
36.64 263
36.66 261
36.68 305
36.7 272
36.72 223
36.74 261
36.76 250
36.78 214
36.8 192
36.82 210
36.84 176
36.86 156
36.88 144
36.9 175
36.92 149
36.94 135
36.96 132
36.98 122
37 131
37.02 130
37.04 122
37.06 122
37.08 122
37.1 133
37.12 120
37.14 116
37.16 134
37.18 134
37.2 115
37.22 143
37.24 135
37.26 128
37.28 133
37.3 125
37.32 121
37.34 123
37.36 144
37.38 130
37.4 130
37.42 123
37.44 107
37.46 121
37.48 115
37.5 113
37.52 123
37.54 120
37.56 124
37.58 111
37.6 129
37.62 119
37.64 118
37.66 118
37.68 125
37.7 139
37.72 130
37.74 138
37.76 134
37.78 138
37.8 149
37.82 130
37.84 133
37.86 135
37.88 136
37.9 136
37.92 123
37.94 111
37.96 117
37.98 121
38 133
38.02 119
38.04 122
38.06 122
38.08 107
38.1 105
38.12 105
38.14 115
38.16 122
38.18 114
38.2 107
38.22 128
38.24 102
38.26 115
38.28 118
38.3 124
38.32 114
38.34 112
38.36 103
38.38 103
38.4 144
38.42 136
38.44 125
38.46 126
38.48 138
38.5 165
38.52 193
38.54 207
38.56 268
38.58 264
38.6 304
38.62 295
38.64 346
38.66 367
38.68 364
38.7 339
38.72 352
38.74 340
38.76 340
38.78 316
38.8 285
38.82 282
38.84 279
38.86 211
38.88 215
38.9 227
38.92 177
38.94 182
38.96 188
38.98 173
39 155
39.02 163
39.04 163
39.06 176
39.08 135
39.1 133
39.12 167
39.14 160
39.16 148
39.18 136
39.2 162
39.22 160
39.24 173
39.26 173
39.28 169
39.3 141
39.32 163
39.34 170
39.36 166
39.38 180
39.4 168
39.42 173
39.44 164
39.46 190
39.48 165
39.5 183
39.52 173
39.54 178
39.56 153
39.58 137
39.6 151
39.62 173
39.64 136
39.66 133
39.68 128
39.7 143
39.72 137
39.74 139
39.76 137
39.78 136
39.8 132
39.82 116
39.84 112
39.86 124
39.88 112
39.9 96
39.92 103
39.94 141
39.96 108
39.98 131
40 118
40.02 113
40.04 117
40.06 106
40.08 117
40.1 102
40.12 115
40.14 111
40.16 110
40.18 112
40.2 107
40.22 118
40.24 106
40.26 117
40.28 110
40.3 127
40.32 106
40.34 92
40.36 101
40.38 102
40.4 109
40.42 124
40.44 99
40.46 112
40.48 117
40.5 128
40.52 90
40.54 120
40.56 125
40.58 108
40.6 111
40.62 119
40.64 139
40.66 155
40.68 145
40.7 119
40.72 129
40.74 128
40.76 134
40.78 168
40.8 142
40.82 147
40.84 165
40.86 177
40.88 183
40.9 190
40.92 203
40.94 223
40.96 220
40.98 220
41 233
41.02 272
41.04 314
41.06 350
41.08 380
41.1 456
41.12 478
41.14 553
41.16 544
41.18 645
41.2 697
41.22 721
41.24 703
41.26 700
41.28 678
41.3 652
41.32 581
41.34 609
41.36 500
41.38 459
41.4 417
41.42 379
41.44 335
41.46 328
41.48 299
41.5 285
41.52 261
41.54 237
41.56 281
41.58 249
41.6 277
41.62 252
41.64 240
41.66 242
41.68 217
41.7 207
41.72 185
41.74 175
41.76 179
41.78 149
41.8 165
41.82 152
41.84 154
41.86 141
41.88 144
41.9 151
41.92 127
41.94 139
41.96 145
41.98 138
42 124
42.02 146
42.04 134
42.06 113
42.08 114
42.1 140
42.12 142
42.14 128
42.16 129
42.18 115
42.2 147
42.22 140
42.24 155
42.26 140
42.28 102
42.3 122
42.32 142
42.34 107
42.36 119
42.38 120
42.4 121
42.42 116
42.44 138
42.46 101
42.48 130
42.5 108
42.52 119
42.54 116
42.56 96
42.58 99
42.6 111
42.62 109
42.64 115
42.66 106
42.68 121
42.7 98
42.72 112
42.74 124
42.76 109
42.78 120
42.8 121
42.82 108
42.84 116
42.86 138
42.88 121
42.9 133
42.92 156
42.94 133
42.96 126
42.98 153
43 152
43.02 169
43.04 169
43.06 177
43.08 161
43.1 166
43.12 176
43.14 168
43.16 184
43.18 172
43.2 164
43.22 154
43.24 145
43.26 153
43.28 142
43.3 145
43.32 157
43.34 140
43.36 125
43.38 112
43.4 116
43.42 133
43.44 115
43.46 113
43.48 125
43.5 98
43.52 130
43.54 122
43.56 112
43.58 131
43.6 123
43.62 111
43.64 113
43.66 127
43.68 137
43.7 124
43.72 126
43.74 122
43.76 120
43.78 127
43.8 116
43.82 122
43.84 136
43.86 142
43.88 132
43.9 146
43.92 158
43.94 156
43.96 160
43.98 135
44 174
44.02 139
44.04 184
44.06 156
44.08 144
44.1 183
44.12 148
44.14 149
44.16 162
44.18 145
44.2 151
44.22 165
44.24 147
44.26 146
44.28 138
44.3 151
44.32 138
44.34 133
44.36 135
44.38 141
44.4 136
44.42 140
44.44 130
44.46 140
44.48 136
44.5 140
44.52 136
44.54 137
44.56 125
44.58 151
44.6 118
44.62 143
44.64 141
44.66 145
44.68 130
44.7 120
44.72 110
44.74 115
44.76 131
44.78 118
44.8 118
44.82 111
44.84 106
44.86 121
44.88 96
44.9 100
44.92 111
44.94 100
44.96 103
44.98 93
45 91
45.02 96
45.04 96
45.06 107
45.08 104
45.1 97
45.12 94
45.14 103
45.16 108
45.18 117
45.2 105
45.22 120
45.24 124
45.26 130
45.28 83
45.3 102
45.32 140
45.34 99
45.36 130
45.38 117
45.4 113
45.42 115
45.44 119
45.46 141
45.48 122
45.5 116
45.52 132
45.54 147
45.56 164
45.58 127
45.6 163
45.62 192
45.64 184
45.66 160
45.68 202
45.7 202
45.72 224
45.74 227
45.76 217
45.78 246
45.8 215
45.82 211
45.84 205
45.86 215
45.88 202
45.9 182
45.92 164
45.94 160
45.96 140
45.98 143
46 131
46.02 116
46.04 135
46.06 123
46.08 114
46.1 120
46.12 103
46.14 110
46.16 101
46.18 108
46.2 107
46.22 118
46.24 102
46.26 105
46.28 121
46.3 106
46.32 115
46.34 102
46.36 109
46.38 86
46.4 107
46.42 108
46.44 110
46.46 134
46.48 113
46.5 111
46.52 137
46.54 130
46.56 113
46.58 113
46.6 138
46.62 116
46.64 126
46.66 167
46.68 205
46.7 215
46.72 207
46.74 232
46.76 260
46.78 299
46.8 305
46.82 308
46.84 343
46.86 315
46.88 329
46.9 331
46.92 308
46.94 277
46.96 284
46.98 277
47 240
47.02 262
47.04 222
47.06 214
47.08 206
47.1 247
47.12 215
47.14 201
47.16 205
47.18 221
47.2 215
47.22 222
47.24 183
47.26 212
47.28 211
47.3 216
47.32 226
47.34 240
47.36 220
47.38 243
47.4 216
47.42 203
47.44 207
47.46 243
47.48 224
47.5 246
47.52 211
47.54 204
47.56 195
47.58 229
47.6 224
47.62 198
47.64 224
47.66 225
47.68 211
47.7 212
47.72 238
47.74 187
47.76 207
47.78 199
47.8 209
47.82 197
47.84 185
47.86 177
47.88 166
47.9 137
47.92 131
47.94 138
47.96 166
47.98 124
48 138
48.02 135
48.04 131
48.06 123
48.08 141
48.1 135
48.12 154
48.14 115
48.16 124
48.18 107
48.2 107
48.22 120
48.24 125
48.26 121
48.28 128
48.3 109
48.32 110
48.34 142
48.36 116
48.38 121
48.4 113
48.42 121
48.44 120
48.46 126
48.48 112
48.5 132
48.52 128
48.54 117
48.56 104
48.58 117
48.6 123
48.62 135
48.64 119
48.66 106
48.68 108
48.7 117
48.72 125
48.74 133
48.76 110
48.78 117
48.8 119
48.82 102
48.84 128
48.86 112
48.88 109
48.9 113
48.92 138
48.94 127
48.96 123
48.98 115
49 118
49.02 135
49.04 121
49.06 132
49.08 137
49.1 128
49.12 132
49.14 126
49.16 105
49.18 116
49.2 126
49.22 110
49.24 159
49.26 121
49.28 129
49.3 136
49.32 152
49.34 153
49.36 143
49.38 128
49.4 145
49.42 132
49.44 134
49.46 139
49.48 146
49.5 132
49.52 178
49.54 160
49.56 161
49.58 164
49.6 163
49.62 162
49.64 150
49.66 173
49.68 175
49.7 218
49.72 195
49.74 165
49.76 193
49.78 200
49.8 185
49.82 211
49.84 180
49.86 180
49.88 168
49.9 156
49.92 194
49.94 206
49.96 166
49.98 198
50 182
50.02 143
50.04 159
50.06 152
50.08 155
50.1 153
50.12 155
50.14 128
50.16 137
50.18 131
50.2 146
50.22 124
50.24 127
50.26 125
50.28 136
50.3 117
50.32 116
50.34 127
50.36 123
50.38 121
50.4 116
50.42 129
50.44 130
50.46 108
50.48 110
50.5 102
50.52 127
50.54 119
50.56 122
50.58 124
50.6 119
50.62 124
50.64 141
50.66 143
50.68 129
50.7 109
50.72 134
50.74 131
50.76 126
50.78 143
50.8 157
50.82 123
50.84 140
50.86 118
50.88 110
50.9 113
50.92 140
50.94 128
50.96 127
50.98 120
51 126
51.02 106
51.04 128
51.06 104
51.08 114
51.1 110
51.12 93
51.14 127
51.16 132
51.18 112
51.2 108
51.22 110
51.24 109
51.26 114
51.28 128
51.3 100
51.32 134
51.34 123
51.36 149
51.38 155
51.4 155
51.42 153
51.44 153
51.46 178
51.48 219
51.5 268
51.52 323
51.54 460
51.56 667
51.58 868
51.6 1005
51.62 1131
51.64 1054
51.66 1001
51.68 1039
51.7 978
51.72 999
51.74 972
51.76 894
51.78 771
51.8 699
51.82 603
51.84 550
51.86 458
51.88 419
51.9 370
51.92 295
51.94 257
51.96 237
51.98 202
52 189
52.02 172
52.04 147
52.06 139
52.08 123
52.1 137
52.12 109
52.14 107
52.16 117
52.18 106
52.2 121
52.22 111
52.24 118
52.26 105
52.28 112
52.3 97
52.32 121
52.34 97
52.36 95
52.38 110
52.4 99
52.42 93
52.44 97
52.46 102
52.48 116
52.5 100
52.52 103
52.54 101
52.56 104
52.58 98
52.6 116
52.62 96
52.64 102
52.66 89
52.68 104
52.7 95
52.72 87
52.74 90
52.76 115
52.78 98
52.8 99
52.82 107
52.84 116
52.86 108
52.88 116
52.9 107
52.92 109
52.94 112
52.96 122
52.98 109
53 113
53.02 150
53.04 124
53.06 137
53.08 111
53.1 109
53.12 134
53.14 123
53.16 123
53.18 118
53.2 108
53.22 115
53.24 129
53.26 137
53.28 103
53.3 120
53.32 121
53.34 103
53.36 103
53.38 105
53.4 126
53.42 110
53.44 108
53.46 122
53.48 100
53.5 94
53.52 135
53.54 109
53.56 121
53.58 117
53.6 100
53.62 113
53.64 94
53.66 97
53.68 100
53.7 105
53.72 109
53.74 103
53.76 121
53.78 113
53.8 109
53.82 125
53.84 91
53.86 118
53.88 122
53.9 124
53.92 106
53.94 116
53.96 115
53.98 108
54 122
54.02 129
54.04 117
54.06 126
54.08 119
54.1 134
54.12 137
54.14 104
54.16 118
54.18 112
54.2 123
54.22 138
54.24 133
54.26 124
54.28 123
54.3 101
54.32 127
54.34 113
54.36 105
54.38 109
54.4 105
54.42 108
54.44 133
54.46 112
54.48 121
54.5 130
54.52 94
54.54 116
54.56 96
54.58 92
54.6 108
54.62 111
54.64 103
54.66 84
54.68 97
54.7 113
54.72 89
54.74 100
54.76 114
54.78 95
54.8 102
54.82 115
54.84 115
54.86 106
54.88 98
54.9 102
54.92 108
54.94 104
54.96 123
54.98 88
55 124
55.02 114
55.04 110
55.06 106
55.08 107
55.1 107
55.12 123
55.14 99
55.16 108
55.18 115
55.2 102
55.22 94
55.24 111
55.26 110
55.28 94
55.3 114
55.32 97
55.34 109
55.36 90
55.38 105
55.4 83
55.42 110
55.44 112
55.46 108
55.48 81
55.5 101
55.52 109
55.54 103
55.56 99
55.58 118
55.6 107
55.62 100
55.64 111
55.66 112
55.68 120
55.7 149
55.72 122
55.74 128
55.76 147
55.78 163
55.8 154
55.82 165
55.84 169
55.86 153
55.88 187
55.9 160
55.92 172
55.94 173
55.96 176
55.98 137
56 141
56.02 186
56.04 175
56.06 157
56.08 150
56.1 126
56.12 150
56.14 128
56.16 152
56.18 167
56.2 160
56.22 196
56.24 210
56.26 232
56.28 241
56.3 279
56.32 290
56.34 355
56.36 343
56.38 347
56.4 430
56.42 379
56.44 428
56.46 410
56.48 411
56.5 383
56.52 400
56.54 348
56.56 361
56.58 300
56.6 330
56.62 278
56.64 247
56.66 229
56.68 213
56.7 211
56.72 192
56.74 175
56.76 187
56.78 155
56.8 117
56.82 119
56.84 151
56.86 112
56.88 112
56.9 108
56.92 117
56.94 101
56.96 103
56.98 135
57 127
57.02 129
57.04 124
57.06 117
57.08 110
57.1 118
57.12 112
57.14 113
57.16 121
57.18 128
57.2 117
57.22 92
57.24 118
57.26 124
57.28 133
57.3 123
57.32 116
57.34 98
57.36 117
57.38 133
57.4 130
57.42 126
57.44 129
57.46 136
57.48 117
57.5 119
57.52 117
57.54 115
57.56 126
57.58 111
57.6 97
57.62 101
57.64 134
57.66 111
57.68 106
57.7 107
57.72 104
57.74 94
57.76 127
57.78 95
57.8 102
57.82 116
57.84 115
57.86 91
57.88 104
57.9 106
57.92 105
57.94 102
57.96 103
57.98 112
58 107
58.02 113
58.04 115
58.06 118
58.08 111
58.1 112
58.12 123
58.14 117
58.16 116
58.18 105
58.2 114
58.22 116
58.24 113
58.26 118
58.28 109
58.3 125
58.32 128
58.34 105
58.36 130
58.38 134
58.4 141
58.42 114
58.44 115
58.46 107
58.48 108
58.5 136
58.52 127
58.54 137
58.56 140
58.58 125
58.6 126
58.62 124
58.64 120
58.66 154
58.68 129
58.7 128
58.72 121
58.74 126
58.76 113
58.78 117
58.8 134
58.82 125
58.84 123
58.86 135
58.88 124
58.9 131
58.92 108
58.94 121
58.96 106
58.98 130
59 130
59.02 119
59.04 112
59.06 117
59.08 137
59.1 164
59.12 137
59.14 146
59.16 116
59.18 158
59.2 117
59.22 155
59.24 144
59.26 150
59.28 144
59.3 156
59.32 167
59.34 166
59.36 164
59.38 170
59.4 158
59.42 170
59.44 144
59.46 157
59.48 138
59.5 170
59.52 152
59.54 174
59.56 143
59.58 155
59.6 161
59.62 167
59.64 165
59.66 196
59.68 203
59.7 209
59.72 273
59.74 242
59.76 278
59.78 282
59.8 294
59.82 299
59.84 299
59.86 271
59.88 334
59.9 313
59.92 313
59.94 304
59.96 277
59.98 270
60 283
60.02 239
60.04 207
60.06 202
60.08 214
60.1 177
60.12 190
60.14 169
60.16 169
60.18 176
60.2 149
60.22 144
60.24 164
60.26 122
60.28 134
60.3 138
60.32 137
60.34 127
60.36 117
60.38 170
60.4 141
60.42 130
60.44 118
60.46 131
60.48 136
60.5 135
60.52 147
60.54 158
60.56 146
60.58 156
60.6 162
60.62 152
60.64 160
60.66 148
60.68 155
60.7 152
60.72 167
60.74 175
60.76 159
60.78 160
60.8 148
60.82 160
60.84 152
60.86 140
60.88 142
60.9 159
60.92 147
60.94 131
60.96 166
60.98 139
61 141
61.02 141
61.04 140
61.06 112
61.08 129
61.1 115
61.12 109
61.14 130
61.16 102
61.18 137
61.2 107
61.22 107
61.24 119
61.26 127
61.28 122
61.3 102
61.32 106
61.34 128
61.36 117
61.38 102
61.4 105
61.42 101
61.44 123
61.46 115
61.48 114
61.5 120
61.52 98
61.54 121
61.56 107
61.58 104
61.6 101
61.62 105
61.64 113
61.66 110
61.68 117
61.7 135
61.72 143
61.74 117
61.76 101
61.78 116
61.8 95
61.82 133
61.84 115
61.86 122
61.88 124
61.9 126
61.92 148
61.94 149
61.96 148
61.98 196
62 192
62.02 203
62.04 217
62.06 250
62.08 239
62.1 275
62.12 281
62.14 311
62.16 342
62.18 365
62.2 403
62.22 405
62.24 418
62.26 420
62.28 390
62.3 449
62.32 418
62.34 407
62.36 388
62.38 393
62.4 369
62.42 391
62.44 342
62.46 351
62.48 327
62.5 293
62.52 280
62.54 279
62.56 267
62.58 217
62.6 219
62.62 213
62.64 222
62.66 166
62.68 182
62.7 160
62.72 137
62.74 126
62.76 125
62.78 136
62.8 104
62.82 137
62.84 117
62.86 124
62.88 135
62.9 133
62.92 124
62.94 118
62.96 111
62.98 125
63 107
63.02 147
63.04 108
63.06 109
63.08 98
63.1 112
63.12 90
63.14 101
63.16 106
63.18 110
63.2 109
63.22 116
63.24 121
63.26 136
63.28 112
63.3 142
63.32 146
63.34 145
63.36 153
63.38 163
63.4 158
63.42 158
63.44 179
63.46 186
63.48 187
63.5 164
63.52 183
63.54 160
63.56 189
63.58 193
63.6 173
63.62 151
63.64 186
63.66 179
63.68 173
63.7 164
63.72 136
63.74 153
63.76 150
63.78 137
63.8 135
63.82 133
63.84 113
63.86 112
63.88 133
63.9 113
63.92 141
63.94 118
63.96 106
63.98 97
64 98
64.02 101
64.04 113
64.06 102
64.08 109
64.1 115
64.12 101
64.14 124
64.16 93
64.18 107
64.2 106
64.22 104
64.24 127
64.26 105
64.28 103
64.3 103
64.32 99
64.34 82
64.36 96
64.38 85
64.4 111
64.42 95
64.44 101
64.46 98
64.48 90
64.5 90
64.52 91
64.54 101
64.56 111
64.58 93
64.6 122
64.62 106
64.64 91
64.66 101
64.68 121
64.7 86
64.72 107
64.74 107
64.76 96
64.78 105
64.8 104
64.82 101
64.84 83
64.86 97
64.88 97
64.9 104
64.92 96
64.94 111
64.96 117
64.98 111
65 121
65.02 88
65.04 101
65.06 114
65.08 107
65.1 100
65.12 126
65.14 111
65.16 120
65.18 112
65.2 105
65.22 101
65.24 110
65.26 128
65.28 110
65.3 114
65.32 132
65.34 101
65.36 94
65.38 107
65.4 97
65.42 116
65.44 107
65.46 101
65.48 93
65.5 88
65.52 105
65.54 95
65.56 105
65.58 87
65.6 88
65.62 101
65.64 94
65.66 99
65.68 82
65.7 104
65.72 81
65.74 100
65.76 106
65.78 104
65.8 132
65.82 91
65.84 115
65.86 114
65.88 90
65.9 93
65.92 108
65.94 110
65.96 107
65.98 119
66 102
66.02 109
66.04 112
66.06 81
66.08 102
66.1 110
66.12 104
66.14 106
66.16 107
66.18 112
66.2 91
66.22 106
66.24 112
66.26 106
66.28 76
66.3 102
66.32 111
66.34 93
66.36 101
66.38 98
66.4 88
66.42 107
66.44 114
66.46 106
66.48 77
66.5 97
66.52 103
66.54 125
66.56 107
66.58 105
66.6 110
66.62 95
66.64 122
66.66 102
66.68 98
66.7 110
66.72 80
66.74 111
66.76 99
66.78 97
66.8 106
66.82 101
66.84 90
66.86 108
66.88 85
66.9 100
66.92 72
66.94 102
66.96 92
66.98 110
67 102
67.02 124
67.04 94
67.06 78
67.08 102
67.1 110
67.12 119
67.14 126
67.16 137
67.18 134
67.2 141
67.22 152
67.24 143
67.26 167
67.28 147
67.3 186
67.32 144
67.34 169
67.36 167
67.38 162
67.4 167
67.42 149
67.44 161
67.46 152
67.48 153
67.5 119
67.52 124
67.54 135
67.56 122
67.58 110
67.6 94
67.62 102
67.64 100
67.66 96
67.68 89
67.7 117
67.72 99
67.74 103
67.76 71
67.78 99
67.8 90
67.82 109
67.84 104
67.86 93
67.88 104
67.9 96
67.92 110
67.94 97
67.96 88
67.98 85
68 84
68.02 104
68.04 100
68.06 93
68.08 89
68.1 102
68.12 121
68.14 112
68.16 109
68.18 99
68.2 114
68.22 111
68.24 129
68.26 125
68.28 114
68.3 133
68.32 123
68.34 111
68.36 118
68.38 121
68.4 111
68.42 117
68.44 94
68.46 118
68.48 119
68.5 97
68.52 118
68.54 92
68.56 100
68.58 92
68.6 107
68.62 119
68.64 116
68.66 85
68.68 93
68.7 91
68.72 106
68.74 115
68.76 93
68.78 90
68.8 121
68.82 94
68.84 99
68.86 94
68.88 102
68.9 96
68.92 101
68.94 102
68.96 95
68.98 89
69 104
69.02 95
69.04 103
69.06 104
69.08 106
69.1 99
69.12 103
69.14 109
69.16 101
69.18 108
69.2 85
69.22 94
69.24 113
69.26 108
69.28 88
69.3 93
69.32 97
69.34 108
69.36 113
69.38 112
69.4 75
69.42 113
69.44 109
69.46 104
69.48 114
69.5 101
69.52 102
69.54 94
69.56 95
69.58 95
69.6 88
69.62 106
69.64 94
69.66 112
69.68 94
69.7 116
69.72 116
69.74 107
69.76 117
69.78 111
69.8 127
69.82 99
69.84 97
69.86 96
69.88 113
69.9 112
69.92 114
69.94 111
69.96 123
69.98 100
70 88
70.02 105
70.04 115
70.06 105
70.08 92
70.1 120
70.12 92
70.14 107
70.16 82
70.18 107
70.2 106
70.22 102
70.24 101
70.26 104
70.28 82
70.3 87
70.32 75
70.34 94
70.36 89
70.38 90
70.4 92
70.42 91
70.44 101
70.46 92
70.48 98
70.5 114
70.52 92
70.54 89
70.56 92
70.58 106
70.6 86
70.62 105
70.64 100
70.66 78
70.68 78
70.7 106
70.72 81
70.74 96
70.76 100
70.78 105
70.8 103
70.82 77
70.84 98
70.86 113
70.88 74
70.9 99
70.92 90
70.94 95
70.96 122
70.98 115
71 111
71.02 107
71.04 107
71.06 98
71.08 91
71.1 95
71.12 115
71.14 106
71.16 100
71.18 96
71.2 117
71.22 106
71.24 115
71.26 108
71.28 129
71.3 99
71.32 109
71.34 110
71.36 119
71.38 118
71.4 110
71.42 115
71.44 116
71.46 114
71.48 104
71.5 123
71.52 104
71.54 94
71.56 102
71.58 105
71.6 111
71.62 110
71.64 107
71.66 112
71.68 91
71.7 103
71.72 100
71.74 80
71.76 91
71.78 98
71.8 103
71.82 98
71.84 93
71.86 71
71.88 81
71.9 95
71.92 99
71.94 95
71.96 95
71.98 79
72 102
72.02 97
72.04 93
72.06 93
72.08 87
72.1 85
72.12 90
72.14 103
72.16 86
72.18 97
72.2 114
72.22 97
72.24 89
72.26 115
72.28 115
72.3 93
72.32 88
72.34 114
72.36 107
72.38 93
72.4 88
72.42 108
72.44 99
72.46 95
72.48 102
72.5 88
72.52 100
72.54 107
72.56 104
72.58 89
72.6 105
72.62 102
72.64 95
72.66 92
72.68 91
72.7 99
72.72 96
72.74 98
72.76 80
72.78 98
72.8 70
72.82 88
72.84 83
72.86 97
72.88 93
72.9 98
72.92 79
72.94 101
72.96 89
72.98 83
73 88
73.02 84
73.04 85
73.06 89
73.08 86
73.1 89
73.12 87
73.14 82
73.16 80
73.18 103
73.2 86
73.22 73
73.24 96
73.26 85
73.28 85
73.3 89
73.32 83
73.34 86
73.36 88
73.38 85
73.4 100
73.42 80
73.44 111
73.46 102
73.48 87
73.5 105
73.52 61
73.54 89
73.56 104
73.58 101
73.6 91
73.62 71
73.64 83
73.66 89
73.68 94
73.7 97
73.72 76
73.74 76
73.76 94
73.78 80
73.8 83
73.82 62
73.84 85
73.86 86
73.88 81
73.9 91
73.92 76
73.94 84
73.96 79
73.98 79
74 91
74.02 81
74.04 78
74.06 67
74.08 80
74.1 78
74.12 88
74.14 90
74.16 90
74.18 103
74.2 100
74.22 75
74.24 84
74.26 91
74.28 95
74.3 83
74.32 95
74.34 91
74.36 76
74.38 69
74.4 62
74.42 88
74.44 82
74.46 92
74.48 93
74.5 84
74.52 104
74.54 91
74.56 88
74.58 99
74.6 91
74.62 116
74.64 93
74.66 99
74.68 103
74.7 82
74.72 101
74.74 89
74.76 89
74.78 72
74.8 86
74.82 80
74.84 79
74.86 94
74.88 91
74.9 68
74.92 90
74.94 82
74.96 89
74.98 80
75 86
75.02 85
75.04 81
75.06 74
75.08 83
75.1 74
75.12 66
75.14 74
75.16 74
75.18 74
75.2 79
75.22 88
75.24 71
75.26 68
75.28 77
75.3 79
75.32 97
75.34 67
75.36 75
75.38 81
75.4 87
75.42 91
75.44 67
75.46 80
75.48 92
75.5 77
75.52 89
75.54 75
75.56 72
75.58 97
75.6 84
75.62 77
75.64 85
75.66 90
75.68 69
75.7 85
75.72 77
75.74 81
75.76 81
75.78 83
75.8 74
75.82 79
75.84 76
75.86 89
75.88 85
75.9 86
75.92 78
75.94 78
75.96 47
75.98 71
76 84
76.02 81
76.04 76
76.06 94
76.08 75
76.1 84
76.12 91
76.14 63
76.16 89
76.18 82
76.2 95
76.22 101
76.24 82
76.26 95
76.28 83
76.3 80
76.32 88
76.34 74
76.36 60
76.38 72
76.4 79
76.42 82
76.44 88
76.46 82
76.48 85
76.5 73
76.52 91
76.54 76
76.56 86
76.58 81
76.6 85
76.62 81
76.64 73
76.66 83
76.68 94
76.7 87
76.72 92
76.74 85
76.76 81
76.78 78
76.8 93
76.82 88
76.84 75
76.86 81
76.88 90
76.9 82
76.92 79
76.94 85
76.96 88
76.98 90
77 89
77.02 94
77.04 94
77.06 90
77.08 78
77.1 75
77.12 83
77.14 82
77.16 94
77.18 79
77.2 73
77.22 80
77.24 79
77.26 84
77.28 85
77.3 88
77.32 86
77.34 75
77.36 85
77.38 76
77.4 78
77.42 77
77.44 79
77.46 104
77.48 86
77.5 79
77.52 71
77.54 91
77.56 74
77.58 76
77.6 90
77.62 85
77.64 70
77.66 96
77.68 86
77.7 78
77.72 83
77.74 61
77.76 98
77.78 74
77.8 79
77.82 82
77.84 86
77.86 90
77.88 97
77.9 74
77.92 90
77.94 76
77.96 87
77.98 105
78 79
78.02 83
78.04 93
78.06 87
78.08 79
78.1 81
78.12 99
78.14 88
78.16 78
78.18 90
78.2 78
78.22 84
78.24 74
78.26 92
78.28 96
78.3 77
78.32 85
78.34 77
78.36 82
78.38 83
78.4 78
78.42 84
78.44 92
78.46 83
78.48 93
78.5 104
78.52 80
78.54 89
78.56 81
78.58 97
78.6 89
78.62 78
78.64 93
78.66 81
78.68 94
78.7 89
78.72 111
78.74 89
78.76 81
78.78 89
78.8 90
78.82 97
78.84 85
78.86 104
78.88 92
78.9 88
78.92 107
78.94 114
78.96 96
78.98 93
79 104
79.02 85
79.04 108
79.06 104
79.08 89
79.1 107
79.12 90
79.14 108
79.16 116
79.18 118
79.2 116
79.22 98
79.24 117
79.26 97
79.28 123
79.3 91
79.32 103
79.34 94
79.36 96
79.38 104
79.4 93
79.42 107
79.44 106
79.46 113
79.48 108
79.5 119
79.52 93
79.54 115
79.56 102
79.58 115
79.6 99
79.62 110
79.64 85
79.66 91
79.68 108
79.7 106
79.72 92
79.74 96
79.76 84
79.78 105
79.8 99
79.82 85
79.84 95
79.86 105
79.88 120
79.9 108
79.92 127
79.94 112
79.96 101
79.98 123
