'Id: "" Comment: "Single 30 min qual/quant raw material scan" Operator: "Paul  Stutzman" Anode: "Cu" Scantype: "Locked Coupled" TimePerStep: "175.496" X: "0" Y: "0" Z: "0" 
20.0000 3.835 0.148
20.0156 3.624 0.144
20.0312 3.869 0.148
20.0468 3.635 0.144
20.0625 3.584 0.143
20.0781 3.749 0.146
20.0937 3.789 0.147
20.1093 3.607 0.143
20.1249 4.040 0.152
20.1405 3.943 0.150
20.1562 3.983 0.151
20.1718 3.949 0.150
20.1874 3.915 0.149
20.2030 3.983 0.151
20.2186 4.051 0.152
20.2342 4.313 0.157
20.2498 4.302 0.157
20.2655 3.983 0.151
20.2811 4.023 0.151
20.2967 4.188 0.154
20.3123 4.342 0.157
20.3279 4.228 0.155
20.3435 4.370 0.158
20.3591 4.274 0.156
20.3748 4.473 0.160
20.3904 4.125 0.153
20.4060 4.342 0.157
20.4216 4.137 0.154
20.4372 4.331 0.157
20.4528 4.672 0.163
20.4685 4.764 0.165
20.4841 4.496 0.160
20.4997 4.393 0.158
20.5153 4.439 0.159
20.5309 4.855 0.166
20.5465 4.917 0.167
20.5621 4.986 0.169
20.5778 5.049 0.170
20.5934 5.402 0.175
20.6090 5.088 0.170
20.6246 5.396 0.175
20.6402 5.675 0.180
20.6558 5.670 0.180
20.6714 5.892 0.183
20.6871 5.789 0.182
20.7027 6.598 0.194
20.7183 6.536 0.193
20.7339 6.804 0.197
20.7495 7.282 0.204
20.7651 8.473 0.220
20.7808 8.844 0.224
20.7964 10.023 0.239
20.8120 12.086 0.262
20.8276 14.154 0.284
20.8432 16.758 0.309
20.8588 21.624 0.351
20.8744 26.485 0.388
20.8901 34.588 0.444
20.9057 45.898 0.511
20.9213 60.793 0.589
20.9369 74.891 0.653
20.9525 81.649 0.682
20.9681 72.628 0.643
20.9838 58.343 0.577
20.9994 48.212 0.524
21.0150 38.360 0.468
21.0306 25.784 0.383
21.0462 16.080 0.303
21.0618 11.334 0.254
21.0774 9.185 0.229
21.0931 7.972 0.213
21.1087 7.596 0.208
21.1243 6.838 0.197
21.1399 6.416 0.191
21.1555 6.222 0.188
21.1711 6.114 0.187
21.1867 5.653 0.179
21.2024 5.254 0.173
21.2180 5.305 0.174
21.2336 5.037 0.169
21.2492 4.883 0.167
21.2648 4.758 0.165
21.2804 4.576 0.161
21.2961 4.291 0.156
21.3117 4.610 0.162
21.3273 4.496 0.160
21.3429 4.103 0.153
21.3585 4.154 0.154
21.3741 4.177 0.154
21.3897 4.011 0.151
21.4054 4.091 0.153
21.4210 4.125 0.153
21.4366 4.080 0.152
21.4522 4.051 0.152
21.4678 4.262 0.156
21.4834 4.239 0.155
21.4990 3.829 0.148
21.5147 3.858 0.148
21.5303 4.114 0.153
21.5459 3.960 0.150
21.5615 4.046 0.152
21.5771 3.977 0.151
21.5927 4.000 0.151
21.6084 3.869 0.148
21.6240 3.607 0.143
21.6396 3.863 0.148
21.6552 3.744 0.146
21.6708 3.647 0.144
21.6864 3.892 0.149
21.7020 3.709 0.145
21.7177 3.698 0.145
21.7333 3.550 0.142
21.7489 3.823 0.148
21.7645 3.841 0.148
21.7801 3.709 0.145
21.7957 3.521 0.142
21.8114 3.732 0.146
21.8270 3.493 0.141
21.8426 3.601 0.143
21.8582 3.664 0.144
21.8738 3.692 0.145
21.8894 3.578 0.143
21.9050 3.333 0.138
21.9207 3.516 0.142
21.9363 3.584 0.143
21.9519 3.590 0.143
21.9675 3.533 0.142
21.9831 3.561 0.142
21.9987 3.624 0.144
22.0143 3.635 0.144
22.0300 3.841 0.148
22.0456 3.339 0.138
22.0612 3.635 0.144
22.0768 3.590 0.143
22.0924 3.687 0.145
22.1080 3.590 0.143
22.1237 3.721 0.146
22.1393 3.516 0.142
22.1549 3.704 0.145
22.1705 3.670 0.145
22.1861 3.385 0.139
22.2017 3.419 0.140
22.2173 3.578 0.143
22.2330 3.578 0.143
22.2486 3.362 0.138
22.2642 3.425 0.140
22.2798 3.784 0.147
22.2954 3.504 0.141
22.3110 3.487 0.141
22.3266 3.516 0.142
22.3423 3.829 0.148
22.3579 3.806 0.147
22.3735 3.869 0.148
22.3891 3.926 0.150
22.4047 3.744 0.146
22.4203 3.613 0.143
22.4360 3.470 0.141
22.4516 3.539 0.142
22.4672 3.732 0.146
22.4828 3.749 0.146
22.4984 3.698 0.145
22.5140 3.311 0.137
22.5296 3.476 0.141
22.5453 3.749 0.146
22.5609 3.499 0.141
22.5765 3.613 0.143
22.5921 3.983 0.151
22.6077 3.436 0.140
22.6233 3.755 0.146
22.6390 3.664 0.144
22.6546 3.487 0.141
22.6702 3.521 0.142
22.6858 3.413 0.139
22.7014 3.573 0.143
22.7170 3.299 0.137
22.7326 3.447 0.140
22.7483 3.601 0.143
22.7639 3.784 0.147
22.7795 3.812 0.147
22.7951 3.709 0.145
22.8107 3.994 0.151
22.8263 3.863 0.148
22.8419 3.789 0.147
22.8576 4.108 0.153
22.8732 3.721 0.146
22.8888 4.046 0.152
22.9044 4.057 0.152
22.9200 4.308 0.157
22.9356 4.325 0.157
22.9513 3.983 0.151
22.9669 4.445 0.159
22.9825 4.553 0.161
22.9981 5.185 0.172
23.0137 5.544 0.178
23.0293 6.564 0.193
23.0449 7.658 0.209
23.0606 9.214 0.229
23.0762 10.792 0.248
23.0918 14.388 0.286
23.1074 18.018 0.320
23.1230 23.921 0.369
23.1386 28.764 0.405
23.1543 29.670 0.411
23.1699 25.596 0.382
23.1855 21.248 0.348
23.2011 17.898 0.319
23.2167 15.601 0.298
23.2323 11.373 0.255
23.2479 7.875 0.212
23.2636 6.080 0.186
23.2792 4.724 0.164
23.2948 4.895 0.167
23.3104 4.427 0.159
23.3260 3.955 0.150
23.3416 4.091 0.153
23.3572 4.194 0.155
23.3729 4.103 0.153
23.3885 3.755 0.146
23.4041 3.784 0.147
23.4197 3.664 0.144
23.4353 3.823 0.148
23.4509 3.920 0.149
23.4666 3.789 0.147
23.4822 3.442 0.140
23.4978 3.407 0.139
23.5134 3.664 0.144
23.5290 3.322 0.138
23.5446 3.590 0.143
23.5602 3.339 0.138
23.5759 3.510 0.141
23.5915 3.607 0.143
23.6071 3.675 0.145
23.6227 3.618 0.144
23.6383 3.402 0.139
23.6539 3.259 0.136
23.6695 3.544 0.142
23.6852 3.653 0.144
23.7008 3.516 0.142
23.7164 3.510 0.141
23.7320 3.385 0.139
23.7476 3.493 0.141
23.7632 3.487 0.141
23.7789 3.311 0.137
23.7945 3.305 0.137
23.8101 3.225 0.136
23.8257 3.510 0.141
23.8413 3.191 0.135
23.8569 3.311 0.137
23.8725 3.396 0.139
23.8882 3.191 0.135
23.9038 3.550 0.142
23.9194 3.493 0.141
23.9350 3.516 0.142
23.9506 3.476 0.141
23.9662 3.436 0.140
23.9819 3.385 0.139
23.9975 3.624 0.144
24.0131 3.185 0.135
24.0287 3.447 0.140
24.0443 3.476 0.141
24.0599 3.744 0.146
24.0755 3.932 0.150
24.0912 4.245 0.156
24.1068 3.818 0.147
24.1224 4.268 0.156
24.1380 3.880 0.149
24.1536 3.732 0.146
24.1692 3.732 0.146
24.1848 3.242 0.136
24.2005 3.567 0.143
24.2161 3.311 0.137
24.2317 3.351 0.138
24.2473 3.026 0.131
24.2629 3.351 0.138
24.2785 3.174 0.134
24.2942 3.140 0.134
24.3098 3.259 0.136
24.3254 3.402 0.139
24.3410 3.339 0.138
24.3566 3.231 0.136
24.3722 3.134 0.134
24.3878 3.567 0.143
24.4035 3.333 0.138
24.4191 3.328 0.138
24.4347 3.390 0.139
24.4503 3.533 0.142
24.4659 3.390 0.139
24.4815 3.402 0.139
24.4971 3.533 0.142
24.5128 3.066 0.132
24.5284 3.516 0.142
24.5440 3.356 0.138
24.5596 3.447 0.140
24.5752 3.373 0.139
24.5908 3.385 0.139
24.6065 3.561 0.142
24.6221 3.185 0.135
24.6377 3.402 0.139
24.6533 3.316 0.137
24.6689 3.185 0.135
24.6845 3.066 0.132
24.7001 3.311 0.137
24.7158 3.020 0.131
24.7314 3.316 0.137
24.7470 3.339 0.138
24.7626 3.351 0.138
24.7782 3.390 0.139
24.7938 3.271 0.137
24.8095 3.470 0.141
24.8251 3.060 0.132
24.8407 3.311 0.137
24.8563 3.333 0.138
24.8719 3.151 0.134
24.8875 3.339 0.138
24.9031 3.237 0.136
24.9188 3.487 0.141
24.9344 3.351 0.138
24.9500 3.345 0.138
24.9656 3.453 0.140
24.9812 3.248 0.136
24.9968 3.510 0.141
25.0124 3.487 0.141
25.0281 3.539 0.142
25.0437 3.373 0.139
25.0593 3.111 0.133
25.0749 3.385 0.139
25.0905 3.499 0.141
25.1061 3.533 0.142
25.1218 3.425 0.140
25.1374 3.259 0.136
25.1530 3.499 0.141
25.1686 3.516 0.142
25.1842 3.539 0.142
25.1998 3.402 0.139
25.2154 3.596 0.143
25.2311 3.482 0.141
25.2467 3.316 0.137
25.2623 3.379 0.139
25.2779 3.596 0.143
25.2935 3.578 0.143
25.3091 3.732 0.146
25.3247 3.470 0.141
25.3404 3.704 0.145
25.3560 3.516 0.142
25.3716 3.578 0.143
25.3872 3.425 0.140
25.4028 3.761 0.146
25.4184 3.482 0.141
25.4341 3.658 0.144
25.4497 3.464 0.141
25.4653 3.675 0.145
25.4809 3.744 0.146
25.4965 3.385 0.139
25.5121 3.892 0.149
25.5277 3.818 0.147
25.5434 3.983 0.151
25.5590 3.607 0.143
25.5746 3.909 0.149
25.5902 4.331 0.157
25.6058 4.188 0.154
25.6214 4.120 0.153
25.6371 4.148 0.154
25.6527 4.125 0.153
25.6683 4.376 0.158
25.6839 4.496 0.160
25.6995 4.439 0.159
25.7151 4.388 0.158
25.7307 4.040 0.152
25.7464 4.388 0.158
25.7620 4.530 0.161
25.7776 4.741 0.164
25.7932 5.060 0.170
25.8088 5.117 0.171
25.8244 5.373 0.175
25.8400 5.493 0.177
25.8557 5.812 0.182
25.8713 5.242 0.173
25.8869 5.664 0.180
25.9025 5.670 0.180
25.9181 5.356 0.175
25.9337 5.544 0.178
25.9494 5.806 0.182
25.9650 5.846 0.183
25.9806 5.487 0.177
25.9962 5.749 0.181
26.0118 5.721 0.181
26.0274 5.863 0.183
26.0430 5.692 0.180
26.0587 5.744 0.181
26.0743 6.302 0.190
26.0899 6.371 0.191
26.1055 5.955 0.184
26.1211 6.342 0.190
26.1367 6.519 0.193
26.1523 6.376 0.191
26.1680 6.855 0.198
26.1836 6.570 0.193
26.1992 7.316 0.204
26.2148 7.425 0.206
26.2304 7.499 0.207
26.2460 8.291 0.217
26.2617 8.023 0.214
26.2773 8.610 0.221
26.2929 9.339 0.231
26.3085 9.630 0.234
26.3241 10.291 0.242
26.3397 10.849 0.249
26.3553 11.277 0.253
26.3710 11.299 0.254
26.3866 12.422 0.266
26.4022 12.804 0.270
26.4178 13.459 0.277
26.4334 13.789 0.280
26.4490 14.963 0.292
26.4647 15.898 0.301
26.4803 16.445 0.306
26.4959 18.035 0.321
26.5115 18.929 0.328
26.5271 20.855 0.345
26.5427 23.881 0.369
26.5583 27.311 0.394
26.5740 31.659 0.425
26.5896 39.545 0.475
26.6052 48.691 0.527
26.6208 59.409 0.582
26.6364 78.480 0.669
26.6520 103.319 0.767
26.6676 141.143 0.897
26.6833 196.284 1.058
26.6989 272.149 1.245
26.7145 347.569 1.407
26.7301 386.624 1.484
26.7457 351.165 1.415
26.7613 274.069 1.250
26.7770 228.524 1.141
26.7926 209.891 1.094
26.8082 175.810 1.001
26.8238 121.974 0.834
26.8394 70.611 0.634
26.8550 44.240 0.502
26.8706 33.249 0.435
26.8863 26.946 0.392
26.9019 23.186 0.363
26.9175 20.377 0.341
26.9331 18.245 0.322
26.9487 16.439 0.306
26.9643 15.299 0.295
26.9799 13.784 0.280
26.9956 12.485 0.267
27.0112 11.505 0.256
27.0268 10.530 0.245
27.0424 9.977 0.238
27.0580 9.220 0.229
27.0736 9.089 0.228
27.0893 8.701 0.223
27.1049 8.336 0.218
27.1205 8.103 0.215
27.1361 7.647 0.209
27.1517 7.379 0.205
27.1673 7.094 0.201
27.1829 6.849 0.198
27.1986 6.678 0.195
27.2142 6.997 0.200
27.2298 6.211 0.188
27.2454 6.559 0.193
27.2610 6.467 0.192
27.2766 6.519 0.193
27.2923 6.541 0.193
27.3079 6.006 0.185
27.3235 6.205 0.188
27.3391 6.382 0.191
27.3547 5.943 0.184
27.3703 5.858 0.183
27.3859 5.653 0.179
27.4016 5.544 0.178
27.4172 5.413 0.176
27.4328 5.390 0.175
27.4484 5.259 0.173
27.4640 5.259 0.173
27.4796 5.550 0.178
27.4952 5.202 0.172
27.5109 5.219 0.172
27.5265 5.060 0.170
27.5421 4.838 0.166
27.5577 4.786 0.165
27.5733 4.889 0.167
27.5889 4.661 0.163
27.6046 4.861 0.166
27.6202 4.798 0.165
27.6358 4.621 0.162
27.6514 4.627 0.162
27.6670 4.843 0.166
27.6826 4.752 0.165
27.6982 4.257 0.156
27.7139 4.336 0.157
27.7295 4.165 0.154
27.7451 4.114 0.153
27.7607 4.405 0.158
27.7763 4.331 0.157
27.7919 4.257 0.156
27.8076 4.257 0.156
27.8232 4.000 0.151
27.8388 4.410 0.159
27.8544 4.445 0.159
27.8700 4.342 0.157
27.8856 4.234 0.155
27.9012 4.097 0.153
27.9169 4.313 0.157
27.9325 4.068 0.152
27.9481 4.331 0.157
27.9637 4.325 0.157
27.9793 3.932 0.150
27.9949 4.029 0.152
28.0105 3.892 0.149
28.0262 3.972 0.150
28.0418 4.388 0.158
28.0574 3.915 0.149
28.0730 4.125 0.153
28.0886 3.966 0.150
28.1042 4.319 0.157
28.1199 4.239 0.155
28.1355 3.795 0.147
28.1511 3.664 0.144
28.1667 4.006 0.151
28.1823 3.755 0.146
28.1979 4.040 0.152
28.2135 3.892 0.149
28.2292 4.103 0.153
28.2448 3.801 0.147
28.2604 4.074 0.152
28.2760 4.182 0.154
28.2916 4.177 0.154
28.3072 4.086 0.153
28.3228 3.875 0.149
28.3385 4.086 0.153
28.3541 4.143 0.154
28.3697 3.761 0.146
28.3853 3.892 0.149
28.4009 4.165 0.154
28.4165 4.182 0.154
28.4322 4.222 0.155
28.4478 4.222 0.155
28.4634 4.769 0.165
28.4790 4.849 0.166
28.4946 5.197 0.172
28.5102 4.929 0.168
28.5258 4.598 0.162
28.5415 4.849 0.166
28.5571 4.821 0.166
28.5727 5.111 0.171
28.5883 4.997 0.169
28.6039 4.980 0.168
28.6195 5.088 0.170
28.6352 5.077 0.170
28.6508 4.861 0.166
28.6664 4.855 0.166
28.6820 5.242 0.173
28.6976 5.157 0.171
28.7132 5.106 0.171
28.7288 5.208 0.172
28.7445 4.917 0.167
28.7601 5.248 0.173
28.7757 5.465 0.176
28.7913 5.077 0.170
28.8069 5.031 0.169
28.8225 5.305 0.174
28.8381 5.356 0.175
28.8538 5.465 0.176
28.8694 5.351 0.175
28.8850 5.333 0.174
28.9006 5.111 0.171
28.9162 5.436 0.176
28.9318 5.157 0.171
28.9475 5.487 0.177
28.9631 5.527 0.177
28.9787 5.442 0.176
28.9943 5.362 0.175
29.0099 6.091 0.186
29.0255 6.137 0.187
29.0411 6.559 0.193
29.0568 6.234 0.188
29.0724 6.843 0.197
29.0880 7.185 0.202
29.1036 7.447 0.206
29.1192 8.000 0.214
29.1348 8.069 0.214
29.1504 8.724 0.223
29.1661 8.889 0.225
29.1817 9.351 0.231
29.1973 9.863 0.237
29.2129 10.114 0.240
29.2285 10.826 0.248
29.2441 11.784 0.259
29.2598 11.858 0.260
29.2754 12.775 0.270
29.2910 14.052 0.283
29.3066 15.134 0.294
29.3222 17.812 0.319
29.3378 20.884 0.345
29.3534 25.032 0.378
29.3691 30.969 0.420
29.3847 40.468 0.480
29.4003 54.275 0.556
29.4159 75.591 0.656
29.4315 109.045 0.788
29.4471 160.140 0.955
29.4628 227.800 1.139
29.4784 290.941 1.288
29.4940 324.873 1.361
29.5096 288.799 1.283
29.5252 222.336 1.126
29.5408 181.480 1.017
29.5564 174.671 0.998
29.5721 162.083 0.961
29.5877 123.251 0.838
29.6033 76.663 0.661
29.6189 43.289 0.497
29.6345 28.200 0.401
29.6501 21.106 0.347
29.6657 17.949 0.320
29.6814 15.613 0.298
29.6970 13.886 0.281
29.7126 12.023 0.262
29.7282 11.157 0.252
29.7438 10.097 0.240
29.7594 9.111 0.228
29.7751 8.747 0.223
29.7907 8.547 0.221
29.8063 7.647 0.209
29.8219 7.077 0.201
29.8375 6.872 0.198
29.8531 6.353 0.190
29.8687 6.063 0.186
29.8844 6.268 0.189
29.9000 5.966 0.184
29.9156 6.217 0.188
29.9312 5.903 0.183
29.9468 5.550 0.178
29.9624 5.117 0.171
29.9780 5.385 0.175
29.9937 5.128 0.171
30.0093 5.396 0.175
30.0249 5.049 0.170
30.0405 5.014 0.169
30.0561 4.581 0.162
30.0717 5.180 0.172
30.0874 4.895 0.167
30.1030 4.952 0.168
30.1186 4.735 0.164
30.1342 4.826 0.166
30.1498 4.672 0.163
30.1654 4.427 0.159
30.1810 4.729 0.164
30.1967 4.502 0.160
30.2123 4.171 0.154
30.2279 4.690 0.163
30.2435 4.285 0.156
30.2591 4.536 0.161
30.2747 4.610 0.162
30.2904 4.553 0.161
30.3060 4.200 0.155
30.3216 4.405 0.158
30.3372 4.502 0.160
30.3528 4.086 0.153
30.3684 4.388 0.158
30.3840 4.165 0.154
30.3997 4.257 0.156
30.4153 4.182 0.154
30.4309 4.057 0.152
30.4465 4.171 0.154
30.4621 3.858 0.148
30.4777 4.137 0.154
30.4933 4.063 0.152
30.5090 3.926 0.150
30.5246 4.114 0.153
30.5402 3.823 0.148
30.5558 3.932 0.150
30.5714 3.846 0.148
30.5870 4.108 0.153
30.6027 3.892 0.149
30.6183 3.983 0.151
30.6339 3.898 0.149
30.6495 4.274 0.156
30.6651 4.279 0.156
30.6807 4.051 0.152
30.6963 3.909 0.149
30.7120 4.006 0.151
30.7276 3.966 0.150
30.7432 3.806 0.147
30.7588 3.972 0.150
30.7744 3.846 0.148
30.7900 3.653 0.144
30.8056 3.932 0.150
30.8213 3.709 0.145
30.8369 3.898 0.149
30.8525 3.539 0.142
30.8681 3.567 0.143
30.8837 3.761 0.146
30.8993 3.584 0.143
30.9150 3.863 0.148
30.9306 3.681 0.145
30.9462 3.875 0.149
30.9618 3.630 0.144
30.9774 3.550 0.142
30.9930 3.766 0.146
31.0086 3.413 0.139
31.0243 3.709 0.145
31.0399 3.761 0.146
31.0555 3.829 0.148
31.0711 3.493 0.141
31.0867 3.784 0.147
31.1023 3.464 0.141
31.1180 3.618 0.144
31.1336 3.618 0.144
31.1492 3.709 0.145
31.1648 3.499 0.141
31.1804 3.618 0.144
31.1960 3.499 0.141
31.2116 3.687 0.145
31.2273 3.653 0.144
31.2429 3.590 0.143
31.2585 3.510 0.141
31.2741 3.766 0.146
31.2897 3.550 0.142
31.3053 3.749 0.146
31.3209 3.687 0.145
31.3366 3.573 0.143
31.3522 3.618 0.144
31.3678 4.234 0.155
31.3834 4.120 0.153
31.3990 4.125 0.153
31.4146 4.445 0.159
31.4303 4.889 0.167
31.4459 5.294 0.174
31.4615 5.841 0.182
31.4771 7.020 0.200
31.4927 8.513 0.220
31.5083 10.063 0.239
31.5239 11.368 0.255
31.5396 10.952 0.250
31.5552 9.322 0.230
31.5708 8.274 0.217
31.5864 7.829 0.211
31.6020 7.653 0.209
31.6176 7.049 0.200
31.6332 5.767 0.181
31.6489 5.100 0.170
31.6645 4.063 0.152
31.6801 3.972 0.150
31.6957 3.727 0.146
31.7113 3.373 0.139
31.7269 3.641 0.144
31.7426 3.533 0.142
31.7582 3.419 0.140
31.7738 3.681 0.145
31.7894 3.516 0.142
31.8050 3.368 0.139
31.8206 3.647 0.144
31.8362 3.504 0.141
31.8519 3.077 0.132
31.8675 3.385 0.139
31.8831 3.368 0.139
31.8987 3.556 0.142
31.9143 3.088 0.133
31.9299 3.191 0.135
31.9456 3.060 0.132
31.9612 3.362 0.138
31.9768 3.311 0.137
31.9924 3.185 0.135
32.0080 3.425 0.140
32.0236 3.265 0.136
32.0392 3.242 0.136
32.0549 3.282 0.137
32.0705 2.957 0.130
32.0861 3.020 0.131
32.1017 3.020 0.131
32.1173 3.271 0.137
32.1329 3.202 0.135
32.1485 2.992 0.131
32.1642 3.031 0.131
32.1798 3.162 0.134
32.1954 3.088 0.133
32.2110 3.157 0.134
32.2266 3.168 0.134
32.2422 2.980 0.130
32.2579 3.174 0.134
32.2735 3.208 0.135
32.2891 3.100 0.133
32.3047 3.219 0.135
32.3203 3.180 0.135
32.3359 3.288 0.137
32.3515 3.379 0.139
32.3672 2.974 0.130
32.3828 3.145 0.134
32.3984 3.117 0.133
32.4140 3.185 0.135
32.4296 3.031 0.131
32.4452 3.191 0.135
32.4608 3.231 0.136
32.4765 3.020 0.131
32.4921 2.946 0.130
32.5077 2.935 0.129
32.5233 3.100 0.133
32.5389 2.974 0.130
32.5545 3.162 0.134
32.5702 2.992 0.131
32.5858 2.923 0.129
32.6014 3.237 0.136
32.6170 2.957 0.130
32.6326 2.872 0.128
32.6482 3.037 0.132
32.6638 3.134 0.134
32.6795 3.100 0.133
32.6951 2.786 0.126
32.7107 2.946 0.130
32.7263 2.974 0.130
32.7419 3.088 0.133
32.7575 2.843 0.127
32.7732 2.963 0.130
32.7888 2.935 0.129
32.8044 3.288 0.137
32.8200 2.957 0.130
32.8356 2.541 0.120
32.8512 2.997 0.131
32.8668 3.009 0.131
32.8825 2.980 0.130
32.8981 2.929 0.129
32.9137 2.940 0.129
32.9293 3.094 0.133
32.9449 2.900 0.129
32.9605 2.878 0.128
32.9761 2.786 0.126
32.9918 2.980 0.130
33.0074 2.957 0.130
33.0230 3.077 0.132
33.0386 2.826 0.127
33.0542 2.866 0.128
33.0698 2.815 0.127
33.0855 3.037 0.132
33.1011 2.906 0.129
33.1167 2.940 0.129
33.1323 3.180 0.135
33.1479 3.066 0.132
33.1635 3.123 0.133
33.1791 3.083 0.133
33.1948 3.185 0.135
33.2104 3.191 0.135
33.2260 3.259 0.136
33.2416 3.322 0.138
33.2572 3.225 0.136
33.2728 3.083 0.133
33.2885 3.145 0.134
33.3041 2.895 0.128
33.3197 2.826 0.127
33.3353 3.049 0.132
33.3509 2.986 0.130
33.3665 3.214 0.135
33.3821 3.071 0.132
33.3978 2.855 0.128
33.4134 2.883 0.128
33.4290 2.872 0.128
33.4446 2.786 0.126
33.4602 2.775 0.126
33.4758 3.123 0.133
33.4914 2.992 0.131
33.5071 2.684 0.124
33.5227 2.917 0.129
33.5383 2.798 0.126
33.5539 2.678 0.124
33.5695 2.638 0.123
33.5851 2.718 0.124
33.6008 2.712 0.124
33.6164 2.900 0.129
33.6320 2.866 0.128
33.6476 2.712 0.124
33.6632 2.747 0.125
33.6788 2.724 0.125
33.6944 2.860 0.128
33.7101 2.866 0.128
33.7257 2.792 0.126
33.7413 2.952 0.130
33.7569 2.912 0.129
33.7725 2.849 0.127
33.7881 2.923 0.129
33.8037 2.735 0.125
33.8194 2.889 0.128
33.8350 2.758 0.125
33.8506 2.655 0.123
33.8662 2.860 0.128
33.8818 2.855 0.128
33.8974 2.838 0.127
33.9131 2.781 0.126
33.9287 2.860 0.128
33.9443 2.792 0.126
33.9599 2.615 0.122
33.9755 2.553 0.121
33.9911 2.838 0.127
34.0067 2.655 0.123
34.0224 2.900 0.129
34.0380 2.695 0.124
34.0536 2.843 0.127
34.0692 2.627 0.122
34.0848 2.826 0.127
34.1004 2.707 0.124
34.1161 2.786 0.126
34.1317 2.781 0.126
34.1473 2.690 0.124
34.1629 2.439 0.118
34.1785 2.832 0.127
34.1941 2.558 0.121
34.2097 2.815 0.127
34.2254 2.707 0.124
34.2410 2.598 0.122
34.2566 2.604 0.122
34.2722 2.644 0.123
34.2878 2.593 0.122
34.3034 2.986 0.130
34.3190 2.541 0.120
34.3347 2.695 0.124
34.3503 2.678 0.124
34.3659 2.758 0.125
34.3815 2.610 0.122
34.3971 2.456 0.118
34.4127 2.855 0.128
34.4284 2.803 0.126
34.4440 2.769 0.126
34.4596 2.718 0.124
34.4752 2.712 0.124
34.4908 2.490 0.119
34.5064 2.803 0.126
34.5220 2.644 0.123
34.5377 2.570 0.121
34.5533 2.781 0.126
34.5689 2.547 0.120
34.5845 2.524 0.120
34.6001 2.621 0.122
34.6157 2.644 0.123
34.6313 2.672 0.123
34.6470 2.667 0.123
34.6626 2.524 0.120
34.6782 2.593 0.122
34.6938 2.496 0.119
34.7094 2.661 0.123
34.7250 2.313 0.115
34.7407 2.382 0.116
34.7563 2.684 0.124
34.7719 2.786 0.126
34.7875 2.519 0.120
34.8031 2.581 0.121
34.8187 2.672 0.123
34.8343 2.923 0.129
34.8500 2.792 0.126
34.8656 2.576 0.121
34.8812 2.627 0.122
34.8968 2.536 0.120
34.9124 2.627 0.122
34.9280 2.729 0.125
34.9437 2.878 0.128
34.9593 2.917 0.129
34.9749 2.735 0.125
34.9905 2.815 0.127
35.0061 2.695 0.124
35.0217 2.695 0.124
35.0373 2.718 0.124
35.0530 3.031 0.131
35.0686 2.878 0.128
35.0842 2.690 0.124
35.0998 2.849 0.127
35.1154 2.798 0.126
35.1310 3.003 0.131
35.1466 2.866 0.128
35.1623 2.895 0.128
35.1779 3.265 0.136
35.1935 3.185 0.135
35.2091 3.231 0.136
35.2247 3.305 0.137
35.2403 3.105 0.133
35.2560 3.333 0.138
35.2716 3.413 0.139
35.2872 3.208 0.135
35.3028 3.385 0.139
35.3184 3.174 0.134
35.3340 3.231 0.136
35.3496 3.100 0.133
35.3653 3.083 0.133
35.3809 3.094 0.133
35.3965 3.225 0.136
35.4121 3.094 0.133
35.4277 2.992 0.131
35.4433 3.123 0.133
35.4589 2.974 0.130
35.4746 2.974 0.130
35.4902 3.083 0.133
35.5058 3.009 0.131
35.5214 2.821 0.127
35.5370 2.781 0.126
35.5526 3.037 0.132
35.5683 3.191 0.135
35.5839 3.077 0.132
35.5995 3.140 0.134
35.6151 2.940 0.129
35.6307 2.690 0.124
35.6463 3.009 0.131
35.6619 2.832 0.127
35.6776 3.157 0.134
35.6932 3.208 0.135
35.7088 3.333 0.138
35.7244 3.208 0.135
35.7400 3.123 0.133
35.7556 3.208 0.135
35.7713 3.305 0.137
35.7869 3.333 0.138
35.8025 3.299 0.137
35.8181 3.698 0.145
35.8337 3.658 0.144
35.8493 3.789 0.147
35.8649 3.852 0.148
35.8806 4.274 0.156
35.8962 4.313 0.157
35.9118 4.627 0.162
35.9274 5.191 0.172
35.9430 5.453 0.176
35.9586 7.083 0.201
35.9742 8.416 0.219
35.9899 10.838 0.249
36.0055 14.963 0.292
36.0211 20.166 0.339
36.0367 27.351 0.395
36.0523 32.115 0.428
36.0679 34.103 0.441
36.0836 29.499 0.410
36.0992 22.103 0.355
36.1148 18.126 0.321
36.1304 19.112 0.330
36.1460 19.886 0.337
36.1616 18.753 0.327
36.1772 15.317 0.295
36.1929 10.747 0.247
36.2085 7.499 0.207
36.2241 6.046 0.186
36.2397 5.237 0.173
36.2553 4.832 0.166
36.2709 4.786 0.165
36.2865 4.313 0.157
36.3022 4.228 0.155
36.3178 3.920 0.149
36.3334 3.755 0.146
36.3490 3.858 0.148
36.3646 3.835 0.148
36.3802 3.795 0.147
36.3959 4.000 0.151
36.4115 4.074 0.152
36.4271 4.074 0.152
36.4427 4.057 0.152
36.4583 4.217 0.155
36.4739 4.559 0.161
36.4895 5.026 0.169
36.5052 5.322 0.174
36.5208 5.556 0.178
36.5364 6.963 0.199
36.5520 8.302 0.218
36.5676 10.809 0.248
36.5832 14.832 0.291
36.5989 19.220 0.331
36.6145 24.593 0.374
36.6301 27.533 0.396
36.6457 26.439 0.388
36.6613 21.214 0.348
36.6769 15.943 0.301
36.6925 14.639 0.289
36.7082 15.009 0.292
36.7238 16.069 0.303
36.7394 14.496 0.287
36.7550 11.037 0.251
36.7706 7.801 0.211
36.7862 5.892 0.183
36.8018 4.758 0.165
36.8175 4.393 0.158
36.8331 4.091 0.153
36.8487 3.863 0.148
36.8643 3.920 0.149
36.8799 3.373 0.139
36.8955 3.345 0.138
36.9112 3.316 0.137
36.9268 3.390 0.139
36.9424 3.208 0.135
36.9580 3.248 0.136
36.9736 3.128 0.134
36.9892 2.786 0.126
37.0048 2.815 0.127
37.0205 3.083 0.133
37.0361 2.963 0.130
37.0517 2.906 0.129
37.0673 2.792 0.126
37.0829 2.769 0.126
37.0985 2.878 0.128
37.1141 2.889 0.128
37.1298 2.792 0.126
37.1454 2.986 0.130
37.1610 2.752 0.125
37.1766 2.638 0.123
37.1922 2.803 0.126
37.2078 2.570 0.121
37.2235 2.519 0.120
37.2391 2.752 0.125
37.2547 2.735 0.125
37.2703 2.855 0.128
37.2859 2.496 0.119
37.3015 3.031 0.131
37.3171 2.678 0.124
37.3328 2.627 0.122
37.3484 2.638 0.123
37.3640 2.553 0.121
37.3796 2.729 0.125
37.3952 2.667 0.123
37.4108 2.809 0.127
37.4265 2.484 0.119
37.4421 2.695 0.124
37.4577 2.667 0.123
37.4733 2.576 0.121
37.4889 2.536 0.120
37.5045 2.308 0.115
37.5201 2.883 0.128
37.5358 2.376 0.116
37.5514 2.416 0.117
37.5670 2.798 0.126
37.5826 2.501 0.119
37.5982 2.633 0.122
37.6138 2.462 0.118
37.6294 2.553 0.121
37.6451 2.581 0.121
37.6607 2.576 0.121
37.6763 2.690 0.124
37.6919 2.747 0.125
37.7075 2.684 0.124
37.7231 2.678 0.124
37.7388 2.501 0.119
37.7544 2.917 0.129
37.7700 2.462 0.118
37.7856 2.729 0.125
37.8012 2.581 0.121
37.8168 2.764 0.125
37.8324 2.860 0.128
37.8481 2.558 0.121
37.8637 2.564 0.121
37.8793 2.576 0.121
37.8949 2.747 0.125
37.9105 2.792 0.126
37.9261 2.929 0.129
37.9417 2.752 0.125
37.9574 2.735 0.125
37.9730 2.838 0.127
37.9886 2.735 0.125
38.0042 2.849 0.127
38.0198 2.553 0.121
38.0354 2.815 0.127
38.0511 2.855 0.128
38.0667 3.162 0.134
38.0823 3.003 0.131
38.0979 2.598 0.122
38.1135 2.667 0.123
38.1291 2.587 0.121
38.1447 2.541 0.120
38.1604 2.707 0.124
38.1760 2.558 0.121
38.1916 2.695 0.124
38.2072 2.530 0.120
38.2228 2.644 0.123
38.2384 2.661 0.123
38.2541 2.638 0.123
38.2697 2.678 0.124
38.2853 2.866 0.128
38.3009 2.467 0.119
38.3165 2.524 0.120
38.3321 2.701 0.124
38.3477 2.672 0.123
38.3634 2.667 0.123
38.3790 2.741 0.125
38.3946 2.690 0.124
38.4102 2.661 0.123
38.4258 2.741 0.125
38.4414 2.513 0.120
38.4570 2.764 0.125
38.4727 2.883 0.128
38.4883 2.701 0.124
38.5039 2.895 0.128
38.5195 2.838 0.127
38.5351 2.889 0.128
38.5507 2.809 0.127
38.5664 2.667 0.123
38.5820 2.678 0.124
38.5976 2.519 0.120
38.6132 2.764 0.125
38.6288 2.752 0.125
38.6444 2.405 0.117
38.6600 2.798 0.126
38.6757 2.849 0.127
38.6913 2.878 0.128
38.7069 2.883 0.128
38.7225 2.878 0.128
38.7381 2.593 0.122
38.7537 2.593 0.122
38.7694 3.049 0.132
38.7850 2.906 0.129
38.8006 2.900 0.129
38.8162 2.775 0.126
38.8318 2.906 0.129
38.8474 3.088 0.133
38.8630 2.872 0.128
38.8787 2.866 0.128
38.8943 2.895 0.128
38.9099 2.969 0.130
38.9255 2.940 0.129
38.9411 3.128 0.134
38.9567 3.037 0.132
38.9723 2.900 0.129
38.9880 2.878 0.128
39.0036 3.054 0.132
39.0192 3.162 0.134
39.0348 2.992 0.131
39.0504 3.174 0.134
39.0660 3.140 0.134
39.0817 3.117 0.133
39.0973 3.145 0.134
39.1129 3.470 0.141
39.1285 3.259 0.136
39.1441 3.607 0.143
39.1597 3.709 0.145
39.1753 3.846 0.148
39.1910 4.091 0.153
39.2066 3.989 0.151
39.2222 4.296 0.156
39.2378 4.348 0.157
39.2534 4.439 0.159
39.2690 4.678 0.163
39.2846 4.798 0.165
39.3003 5.163 0.172
39.3159 5.664 0.180
39.3315 6.262 0.189
39.3471 6.405 0.191
39.3627 7.550 0.207
39.3783 8.553 0.221
39.3940 10.445 0.244
39.4096 12.291 0.265
39.4252 16.849 0.310
39.4408 22.565 0.359
39.4564 31.471 0.423
39.4720 43.431 0.497
39.4876 54.816 0.559
39.5033 61.887 0.594
39.5189 60.110 0.585
39.5345 53.961 0.555
39.5501 50.161 0.535
39.5657 46.041 0.512
39.5813 43.203 0.496
39.5970 40.138 0.478
39.6126 35.773 0.451
39.6282 30.867 0.419
39.6438 26.474 0.388
39.6594 21.858 0.353
39.6750 16.901 0.310
39.6906 12.200 0.264
39.7063 8.707 0.223
39.7219 7.054 0.200
39.7375 5.863 0.183
39.7531 6.188 0.188
39.7687 5.242 0.173
39.7843 4.843 0.166
39.7999 4.348 0.157
39.8156 4.251 0.156
39.8312 3.943 0.150
39.8468 3.704 0.145
39.8624 3.709 0.145
39.8780 3.618 0.144
39.8936 3.567 0.143
39.9093 3.533 0.142
39.9249 3.362 0.138
39.9405 3.276 0.137
39.9561 3.362 0.138
39.9717 3.288 0.137
39.9873 3.208 0.135
40.0029 3.134 0.134
40.0186 3.254 0.136
40.0342 3.088 0.133
40.0498 3.214 0.135
40.0654 3.282 0.137
40.0810 3.219 0.135
40.0966 3.214 0.135
40.1122 3.219 0.135
40.1279 3.219 0.135
40.1435 3.140 0.134
40.1591 3.362 0.138
40.1747 3.031 0.131
40.1903 3.510 0.141
40.2059 3.351 0.138
40.2216 3.419 0.140
40.2372 3.846 0.148
40.2528 3.852 0.148
40.2684 4.302 0.157
40.2840 4.621 0.162
40.2996 5.664 0.180
40.3152 6.462 0.192
40.3309 8.257 0.217
40.3465 10.183 0.241
40.3621 12.536 0.267
40.3777 13.368 0.276
40.3933 12.855 0.271
40.4089 10.291 0.242
40.4246 8.302 0.218
40.4402 7.311 0.204
40.4558 8.183 0.216
40.4714 8.707 0.223
40.4870 8.080 0.215
40.5026 7.681 0.209
40.5182 5.601 0.179
40.5339 4.462 0.159
40.5495 3.926 0.150
40.5651 3.351 0.138
40.5807 3.499 0.141
40.5963 3.088 0.133
40.6119 3.071 0.132
40.6275 2.735 0.125
40.6432 2.889 0.128
40.6588 2.912 0.129
40.6744 2.826 0.127
40.6900 2.764 0.125
40.7056 2.747 0.125
40.7212 2.547 0.120
40.7369 2.644 0.123
40.7525 2.524 0.120
40.7681 2.598 0.122
40.7837 2.638 0.123
40.7993 2.422 0.117
40.8149 2.553 0.121
40.8305 2.695 0.124
40.8462 2.570 0.121
40.8618 2.872 0.128
40.8774 2.439 0.118
40.8930 2.610 0.122
40.9086 2.524 0.120
40.9242 2.519 0.120
40.9398 2.393 0.117
40.9555 2.638 0.123
40.9711 2.655 0.123
40.9867 2.439 0.118
41.0023 2.490 0.119
41.0179 2.564 0.121
41.0335 2.627 0.122
41.0492 2.587 0.121
41.0648 2.627 0.122
41.0804 2.610 0.122
41.0960 2.462 0.118
41.1116 2.530 0.120
41.1272 2.598 0.122
41.1428 2.633 0.122
41.1585 2.519 0.120
41.1741 2.234 0.113
41.1897 2.484 0.119
41.2053 2.473 0.119
41.2209 2.456 0.118
41.2365 2.815 0.127
41.2522 2.678 0.124
41.2678 2.621 0.122
41.2834 2.690 0.124
41.2990 2.541 0.120
41.3146 2.496 0.119
41.3302 2.558 0.121
41.3458 2.758 0.125
41.3615 2.388 0.117
41.3771 2.684 0.124
41.3927 2.843 0.127
41.4083 2.712 0.124
41.4239 2.576 0.121
41.4395 2.393 0.117
41.4551 2.467 0.119
41.4708 2.359 0.116
41.4864 2.667 0.123
41.5020 2.370 0.116
41.5176 2.524 0.120
41.5332 2.416 0.117
41.5488 2.462 0.118
41.5645 2.388 0.117
41.5801 2.576 0.121
41.5957 2.439 0.118
41.6113 2.382 0.116
41.6269 2.576 0.121
41.6425 2.587 0.121
41.6581 2.405 0.117
41.6738 2.450 0.118
41.6894 2.598 0.122
41.7050 2.501 0.119
41.7206 2.604 0.122
41.7362 2.672 0.123
41.7518 2.313 0.115
41.7674 2.547 0.120
41.7831 2.581 0.121
41.7987 2.433 0.118
41.8143 2.576 0.121
41.8299 2.507 0.120
41.8455 2.781 0.126
41.8611 2.667 0.123
41.8768 2.536 0.120
41.8924 2.530 0.120
41.9080 2.536 0.120
41.9236 2.667 0.123
41.9392 2.570 0.121
41.9548 2.399 0.117
41.9704 2.690 0.124
41.9861 2.536 0.120
42.0017 2.667 0.123
42.0173 2.416 0.117
42.0329 2.473 0.119
42.0485 2.655 0.123
42.0641 2.524 0.120
42.0798 2.661 0.123
42.0954 2.678 0.124
42.1110 2.764 0.125
42.1266 2.724 0.125
42.1422 2.684 0.124
42.1578 2.809 0.127
42.1734 2.786 0.126
42.1891 2.855 0.128
42.2047 3.014 0.131
42.2203 2.593 0.122
42.2359 2.815 0.127
42.2515 2.952 0.130
42.2671 3.060 0.132
42.2827 3.180 0.135
42.2984 3.117 0.133
42.3140 3.567 0.143
42.3296 3.322 0.138
42.3452 3.516 0.142
42.3608 3.527 0.142
42.3764 3.675 0.145
42.3921 4.165 0.154
42.4077 4.405 0.158
42.4233 4.917 0.167
42.4389 5.561 0.178
42.4545 6.638 0.194
42.4701 7.858 0.212
42.4857 10.274 0.242
42.5014 13.299 0.275
42.5170 16.952 0.311
42.5326 19.129 0.330
42.5482 19.089 0.330
42.5638 15.562 0.298
42.5794 11.926 0.261
42.5950 9.630 0.234
42.6107 9.875 0.237
42.6263 10.428 0.244
42.6419 11.704 0.258
42.6575 11.265 0.253
42.6731 9.094 0.228
42.6887 6.821 0.197
42.7044 5.145 0.171
42.7200 4.467 0.160
42.7356 3.994 0.151
42.7512 3.801 0.147
42.7668 3.681 0.145
42.7824 3.624 0.144
42.7980 3.425 0.140
42.8137 3.311 0.137
42.8293 3.373 0.139
42.8449 3.345 0.138
42.8605 3.208 0.135
42.8761 3.299 0.137
42.8917 3.373 0.139
42.9074 3.242 0.136
42.9230 3.339 0.138
42.9386 3.658 0.144
42.9542 3.584 0.143
42.9698 3.653 0.144
42.9854 3.789 0.147
43.0010 4.143 0.154
43.0167 4.120 0.153
43.0323 4.114 0.153
43.0479 4.382 0.158
43.0635 4.661 0.163
43.0791 4.974 0.168
43.0947 4.838 0.166
43.1103 5.328 0.174
43.1260 5.846 0.183
43.1416 7.111 0.201
43.1572 8.832 0.224
43.1728 11.596 0.257
43.1884 16.194 0.304
43.2040 22.758 0.360
43.2197 31.596 0.424
43.2353 40.035 0.478
43.2509 43.682 0.499
43.2665 39.978 0.477
43.2821 29.237 0.408
43.2977 21.243 0.348
43.3133 18.035 0.321
43.3290 19.408 0.333
43.3446 23.089 0.363
43.3602 24.559 0.374
43.3758 22.303 0.356
43.3914 17.260 0.314
43.4070 11.459 0.256
43.4227 7.943 0.213
43.4383 5.909 0.183
43.4539 5.316 0.174
43.4695 4.849 0.166
43.4851 4.445 0.159
43.5007 4.393 0.158
43.5163 4.188 0.154
43.5320 3.755 0.146
43.5476 3.738 0.146
43.5632 3.590 0.143
43.5788 3.527 0.142
43.5944 3.282 0.137
43.6100 3.219 0.135
43.6256 3.140 0.134
43.6413 3.043 0.132
43.6569 2.957 0.130
43.6725 3.276 0.137
43.6881 3.054 0.132
43.7037 2.821 0.127
43.7193 3.020 0.131
43.7350 2.809 0.127
43.7506 2.655 0.123
43.7662 2.803 0.126
43.7818 2.798 0.126
43.7974 2.860 0.128
43.8130 2.519 0.120
43.8286 2.621 0.122
43.8443 2.741 0.125
43.8599 2.370 0.116
43.8755 2.593 0.122
43.8911 2.399 0.117
43.9067 2.701 0.124
43.9223 2.359 0.116
43.9379 2.593 0.122
43.9536 2.393 0.117
43.9692 2.615 0.122
43.9848 2.342 0.116
44.0004 2.661 0.123
44.0160 2.581 0.121
44.0316 2.427 0.118
44.0473 2.313 0.115
44.0629 2.405 0.117
44.0785 2.519 0.120
44.0941 2.570 0.121
44.1097 2.439 0.118
44.1253 2.388 0.117
44.1409 2.342 0.116
44.1566 2.171 0.111
44.1722 2.439 0.118
44.1878 2.615 0.122
44.2034 2.422 0.117
44.2190 2.416 0.117
44.2346 2.365 0.116
44.2503 2.399 0.117
44.2659 2.439 0.118
44.2815 2.359 0.116
44.2971 2.547 0.120
44.3127 2.376 0.116
44.3283 2.388 0.117
44.3439 2.222 0.113
44.3596 2.399 0.117
44.3752 2.410 0.117
44.3908 2.348 0.116
44.4064 2.336 0.115
44.4220 2.125 0.110
44.4376 2.416 0.117
44.4532 2.410 0.117
44.4689 2.433 0.118
44.4845 2.165 0.111
44.5001 2.405 0.117
44.5157 2.638 0.123
44.5313 2.217 0.112
44.5469 2.302 0.115
44.5626 2.188 0.112
44.5782 2.462 0.118
44.5938 1.892 0.104
44.6094 2.296 0.114
44.6250 2.359 0.116
44.6406 2.285 0.114
44.6562 2.234 0.113
44.6719 2.382 0.116
44.6875 2.331 0.115
44.7031 2.302 0.115
44.7187 2.336 0.115
44.7343 2.279 0.114
44.7499 2.445 0.118
44.7655 2.524 0.120
44.7812 2.199 0.112
44.7968 2.393 0.117
44.8124 2.450 0.118
44.8280 2.234 0.113
44.8436 2.239 0.113
44.8592 2.296 0.114
44.8749 2.388 0.117
44.8905 2.462 0.118
44.9061 2.245 0.113
44.9217 2.410 0.117
44.9373 2.285 0.114
44.9529 2.524 0.120
44.9685 2.456 0.118
44.9842 2.239 0.113
44.9998 2.068 0.109
45.0154 2.410 0.117
45.0310 2.507 0.120
45.0466 2.188 0.112
45.0622 2.313 0.115
45.0779 2.239 0.113
45.0935 2.131 0.110
45.1091 2.313 0.115
45.1247 2.285 0.114
45.1403 2.382 0.116
45.1559 2.342 0.116
45.1715 2.336 0.115
45.1872 2.256 0.113
45.2028 2.251 0.113
45.2184 2.239 0.113
45.2340 2.416 0.117
45.2496 2.410 0.117
45.2652 2.490 0.119
45.2808 2.410 0.117
45.2965 2.120 0.110
45.3121 2.530 0.120
45.3277 2.268 0.114
45.3433 2.496 0.119
45.3589 2.439 0.118
45.3745 2.405 0.117
45.3902 2.279 0.114
45.4058 2.536 0.120
45.4214 2.410 0.117
45.4370 2.541 0.120
45.4526 2.684 0.124
45.4682 2.399 0.117
45.4838 2.667 0.123
45.4995 2.661 0.123
45.5151 2.519 0.120
45.5307 2.672 0.123
45.5463 2.467 0.119
45.5619 2.558 0.121
45.5775 2.593 0.122
45.5931 2.558 0.121
45.6088 2.661 0.123
45.6244 2.724 0.125
45.6400 2.855 0.128
45.6556 3.031 0.131
45.6712 2.895 0.128
45.6868 2.997 0.131
45.7025 3.145 0.134
45.7181 3.254 0.136
45.7337 3.208 0.135
45.7493 3.521 0.142
45.7649 4.160 0.154
45.7805 4.399 0.158
45.7961 5.009 0.169
45.8118 5.926 0.184
45.8274 7.482 0.206
45.8430 9.995 0.239
45.8586 11.886 0.260
45.8742 13.898 0.281
45.8898 13.470 0.277
45.9055 11.117 0.252
45.9211 9.299 0.230
45.9367 7.180 0.202
45.9523 6.769 0.196
45.9679 7.271 0.204
45.9835 8.240 0.217
45.9991 8.593 0.221
46.0148 7.863 0.212
46.0304 6.017 0.185
46.0460 4.923 0.167
46.0616 3.949 0.150
46.0772 3.487 0.141
46.0928 3.123 0.133
46.1084 3.225 0.136
46.1241 3.282 0.137
46.1397 2.974 0.130
46.1553 2.849 0.127
46.1709 2.775 0.126
46.1865 2.729 0.125
46.2021 2.832 0.127
46.2178 2.781 0.126
46.2334 2.707 0.124
46.2490 2.707 0.124
46.2646 2.570 0.121
46.2802 2.541 0.120
46.2958 2.667 0.123
46.3114 2.672 0.123
46.3271 2.712 0.124
46.3427 2.638 0.123
46.3583 2.701 0.124
46.3739 2.553 0.121
46.3895 2.462 0.118
46.4051 2.422 0.117
46.4207 2.501 0.119
46.4364 2.558 0.121
46.4520 2.359 0.116
46.4676 2.553 0.121
46.4832 2.393 0.117
46.4988 2.558 0.121
46.5144 2.388 0.117
46.5301 2.513 0.120
46.5457 2.501 0.119
46.5613 2.593 0.122
46.5769 2.393 0.117
46.5925 2.678 0.124
46.6081 2.558 0.121
46.6237 2.644 0.123
46.6394 2.558 0.121
46.6550 2.536 0.120
46.6706 2.695 0.124
46.6862 2.661 0.123
46.7018 2.348 0.116
46.7174 2.234 0.113
46.7331 2.513 0.120
46.7487 2.547 0.120
46.7643 2.940 0.129
46.7799 2.644 0.123
46.7955 2.872 0.128
46.8111 2.843 0.127
46.8267 2.815 0.127
46.8424 2.940 0.129
46.8580 3.003 0.131
46.8736 3.123 0.133
46.8892 2.969 0.130
46.9048 2.878 0.128
46.9204 2.957 0.130
46.9360 3.111 0.133
46.9517 3.162 0.134
46.9673 3.128 0.134
46.9829 3.396 0.139
46.9985 3.288 0.137
47.0141 3.453 0.140
47.0297 3.544 0.142
47.0454 3.755 0.146
47.0610 3.943 0.150
47.0766 4.336 0.157
47.0922 4.724 0.164
47.1078 5.276 0.173
47.1234 6.211 0.188
47.1390 7.989 0.213
47.1547 9.795 0.236
47.1703 12.359 0.265
47.1859 14.912 0.291
47.2015 17.157 0.313
47.2171 16.753 0.309
47.2327 14.205 0.285
47.2483 11.533 0.256
47.2640 10.211 0.241
47.2796 9.750 0.236
47.2952 9.778 0.236
47.3108 11.077 0.251
47.3264 11.926 0.261
47.3420 11.881 0.260
47.3577 10.365 0.243
47.3733 8.844 0.224
47.3889 7.567 0.208
47.4045 7.259 0.203
47.4201 7.225 0.203
47.4357 7.311 0.204
47.4513 7.738 0.210
47.4670 8.712 0.223
47.4826 10.724 0.247
47.4982 13.009 0.272
47.5138 16.690 0.308
47.5294 22.707 0.360
47.5450 31.414 0.423
47.5607 40.930 0.483
47.5763 51.306 0.541
47.5919 58.981 0.580
47.6075 57.084 0.570
47.6231 46.673 0.516
47.6387 35.015 0.447
47.6543 27.921 0.399
47.6700 25.659 0.382
47.6856 26.627 0.390
47.7012 31.004 0.420
47.7168 31.847 0.426
47.7324 30.457 0.417
47.7480 24.268 0.372
47.7636 17.590 0.317
47.7793 12.114 0.263
47.7949 9.613 0.234
47.8105 7.590 0.208
47.8261 6.336 0.190
47.8417 5.231 0.173
47.8573 5.014 0.169
47.8730 4.621 0.162
47.8886 4.325 0.157
47.9042 4.006 0.151
47.9198 4.137 0.154
47.9354 4.074 0.152
47.9510 3.630 0.144
47.9666 3.835 0.148
47.9823 3.487 0.141
47.9979 3.407 0.139
48.0135 3.453 0.140
48.0291 3.299 0.137
48.0447 3.231 0.136
48.0603 3.265 0.136
48.0759 3.168 0.134
48.0916 3.231 0.136
48.1072 3.476 0.141
48.1228 3.043 0.132
48.1384 3.379 0.139
48.1540 3.362 0.138
48.1696 3.225 0.136
48.1853 3.242 0.136
48.2009 3.356 0.138
48.2165 3.476 0.141
48.2321 3.447 0.140
48.2477 3.687 0.145
48.2633 3.613 0.143
48.2789 3.937 0.150
48.2946 3.915 0.149
48.3102 4.034 0.152
48.3258 4.553 0.161
48.3414 4.644 0.163
48.3570 4.838 0.166
48.3726 4.826 0.166
48.3883 4.895 0.167
48.4039 5.134 0.171
48.4195 6.131 0.187
48.4351 6.239 0.189
48.4507 6.792 0.197
48.4663 8.171 0.216
48.4819 9.191 0.229
48.4976 11.812 0.259
48.5132 15.590 0.298
48.5288 20.456 0.341
48.5444 28.650 0.404
48.5600 38.462 0.468
48.5756 48.958 0.528
48.5912 54.685 0.558
48.6069 53.386 0.552
48.6225 42.799 0.494
48.6381 30.850 0.419
48.6537 24.365 0.373
48.6693 22.154 0.355
48.6849 24.907 0.377
48.7006 27.197 0.394
48.7162 30.514 0.417
48.7318 29.043 0.407
48.7474 23.989 0.370
48.7630 17.909 0.319
48.7786 12.468 0.267
48.7942 8.815 0.224
48.8099 7.020 0.200
48.8255 5.761 0.181
48.8411 4.997 0.169
48.8567 4.650 0.163
48.8723 4.251 0.156
48.8879 4.234 0.155
48.9036 3.778 0.147
48.9192 3.727 0.146
48.9348 3.539 0.142
48.9504 3.407 0.139
48.9660 3.373 0.139
48.9816 3.271 0.137
48.9972 2.946 0.130
49.0129 2.906 0.129
49.0285 3.066 0.132
49.0441 2.986 0.130
49.0597 2.843 0.127
49.0753 2.878 0.128
49.0909 2.838 0.127
49.1065 2.906 0.129
49.1222 2.655 0.123
49.1378 2.752 0.125
49.1534 2.655 0.123
49.1690 2.809 0.127
49.1846 2.803 0.126
49.2002 2.741 0.125
49.2159 2.957 0.130
49.2315 2.872 0.128
49.2471 2.741 0.125
49.2627 2.564 0.121
49.2783 2.803 0.126
49.2939 2.724 0.125
49.3095 2.809 0.127
49.3252 2.507 0.120
49.3408 2.747 0.125
49.3564 2.809 0.127
49.3720 2.701 0.124
49.3876 2.587 0.121
49.4032 2.633 0.122
49.4188 2.661 0.123
49.4345 2.747 0.125
49.4501 2.587 0.121
49.4657 2.712 0.124
49.4813 2.695 0.124
49.4969 2.570 0.121
49.5125 2.638 0.123
49.5282 2.587 0.121
49.5438 2.707 0.124
49.5594 2.655 0.123
49.5750 2.621 0.122
49.5906 2.638 0.123
49.6062 2.667 0.123
49.6218 2.712 0.124
49.6375 2.667 0.123
49.6531 2.803 0.126
49.6687 2.798 0.126
49.6843 2.747 0.125
49.6999 2.866 0.128
49.7155 2.627 0.122
49.7312 2.929 0.129
49.7468 2.781 0.126
49.7624 2.929 0.129
49.7780 2.826 0.127
49.7936 3.049 0.132
49.8092 2.952 0.130
49.8248 3.254 0.136
49.8405 3.151 0.134
49.8561 3.299 0.137
49.8717 3.487 0.141
49.8873 3.362 0.138
49.9029 3.539 0.142
49.9185 3.721 0.146
49.9341 3.590 0.143
49.9498 4.182 0.154
49.9654 4.313 0.157
49.9810 4.393 0.158
49.9966 4.410 0.159
50.0122 4.376 0.158
50.0278 5.128 0.171
50.0435 5.071 0.170
50.0591 5.704 0.180
50.0747 5.738 0.181
50.0903 5.966 0.184
50.1059 7.373 0.205
50.1215 8.764 0.223
50.1371 11.214 0.253
50.1528 14.245 0.285
50.1684 18.593 0.325
50.1840 25.693 0.383
50.1996 33.773 0.439
50.2152 41.488 0.486
50.2308 42.217 0.490
50.2464 37.015 0.459
50.2621 26.217 0.387
50.2777 19.226 0.331
50.2933 16.035 0.302
50.3089 16.035 0.302
50.3245 18.758 0.327
50.3401 22.177 0.355
50.3558 23.721 0.368
50.3714 22.684 0.360
50.3870 17.225 0.313
50.4026 12.257 0.264
50.4182 8.758 0.223
50.4338 6.855 0.198
50.4494 5.607 0.179
50.4651 4.843 0.166
50.4807 4.348 0.157
50.4963 4.245 0.156
50.5119 3.704 0.145
50.5275 3.852 0.148
50.5431 3.573 0.143
50.5588 3.413 0.139
50.5744 3.316 0.137
50.5900 3.242 0.136
50.6056 3.105 0.133
50.6212 3.037 0.132
50.6368 3.014 0.131
50.6524 3.499 0.141
50.6681 3.390 0.139
50.6837 3.539 0.142
50.6993 3.584 0.143
50.7149 3.573 0.143
50.7305 3.373 0.139
50.7461 2.917 0.129
50.7617 2.803 0.126
50.7774 2.878 0.128
50.7930 2.764 0.125
50.8086 2.917 0.129
50.8242 2.843 0.127
50.8398 3.049 0.132
50.8554 2.821 0.127
50.8711 2.815 0.127
50.8867 2.610 0.122
50.9023 2.513 0.120
50.9179 2.650 0.123
50.9335 2.393 0.117
50.9491 2.564 0.121
50.9647 2.336 0.115
50.9804 2.251 0.113
50.9960 2.342 0.116
51.0116 2.160 0.111
51.0272 2.154 0.111
51.0428 2.302 0.115
51.0584 2.433 0.118
51.0740 2.245 0.113
51.0897 2.194 0.112
51.1053 2.199 0.112
51.1209 2.410 0.117
51.1365 2.410 0.117
51.1521 2.274 0.114
51.1677 2.114 0.110
51.1834 2.422 0.117
51.1990 2.194 0.112
51.2146 2.256 0.113
51.2302 2.256 0.113
51.2458 2.177 0.111
51.2614 1.977 0.106
51.2770 2.142 0.110
51.2927 2.154 0.111
51.3083 2.142 0.110
51.3239 2.131 0.110
51.3395 1.880 0.104
51.3551 2.063 0.108
51.3707 2.131 0.110
51.3864 2.148 0.111
51.4020 2.057 0.108
51.4176 2.211 0.112
51.4332 1.977 0.106
51.4488 2.034 0.108
51.4644 2.160 0.111
51.4800 2.125 0.110
51.4957 2.029 0.108
51.5113 2.137 0.110
51.5269 2.222 0.113
51.5425 2.245 0.113
51.5581 2.245 0.113
51.5737 2.006 0.107
51.5893 2.142 0.110
51.6050 2.308 0.115
51.6206 2.046 0.108
51.6362 2.211 0.112
51.6518 1.840 0.102
51.6674 2.097 0.109
51.6830 1.994 0.107
51.6987 2.057 0.108
51.7143 2.160 0.111
51.7299 2.234 0.113
51.7455 2.074 0.109
51.7611 1.954 0.106
51.7767 1.960 0.106
51.7923 1.880 0.104
51.8080 2.057 0.108
51.8236 2.051 0.108
51.8392 2.160 0.111
51.8548 1.892 0.104
51.8704 2.040 0.108
51.8860 1.977 0.106
51.9016 2.182 0.112
51.9173 2.046 0.108
51.9329 1.858 0.103
51.9485 2.125 0.110
51.9641 2.040 0.108
51.9797 2.057 0.108
51.9953 2.023 0.107
52.0110 2.011 0.107
52.0266 2.080 0.109
52.0422 2.046 0.108
52.0578 2.074 0.109
52.0734 1.932 0.105
52.0890 2.017 0.107
52.1046 1.949 0.105
52.1203 1.926 0.105
52.1359 2.063 0.108
52.1515 2.080 0.109
52.1671 2.205 0.112
52.1827 2.108 0.110
52.1983 2.080 0.109
52.2140 1.926 0.105
52.2296 2.274 0.114
52.2452 1.960 0.106
52.2608 2.108 0.110
52.2764 2.131 0.110
52.2920 2.063 0.108
52.3076 2.137 0.110
52.3233 2.108 0.110
52.3389 1.863 0.103
52.3545 2.137 0.110
52.3701 2.034 0.108
52.3857 2.011 0.107
52.4013 2.006 0.107
52.4169 2.080 0.109
52.4326 2.046 0.108
52.4482 2.142 0.110
52.4638 2.017 0.107
52.4794 2.051 0.108
52.4950 2.125 0.110
52.5106 2.285 0.114
52.5263 2.211 0.112
52.5419 2.370 0.116
52.5575 2.331 0.115
52.5731 2.445 0.118
52.5887 2.171 0.111
52.6043 2.302 0.115
52.6199 2.120 0.110
52.6356 2.228 0.113
52.6512 2.228 0.113
52.6668 2.262 0.114
52.6824 2.228 0.113
52.6980 2.188 0.112
52.7136 2.097 0.109
52.7292 2.217 0.112
52.7449 2.234 0.113
52.7605 2.023 0.107
52.7761 2.171 0.111
52.7917 2.268 0.114
52.8073 1.937 0.105
52.8229 2.017 0.107
52.8386 1.886 0.104
52.8542 1.977 0.106
52.8698 2.177 0.111
52.8854 1.863 0.103
52.9010 2.074 0.109
52.9166 2.006 0.107
52.9322 2.029 0.108
52.9479 2.120 0.110
52.9635 1.983 0.106
52.9791 1.954 0.106
52.9947 1.983 0.106
53.0103 2.063 0.108
53.0259 1.977 0.106
53.0416 2.040 0.108
53.0572 2.046 0.108
53.0728 1.875 0.103
53.0884 1.954 0.106
53.1040 2.239 0.113
53.1196 2.262 0.114
53.1352 2.097 0.109
53.1509 2.006 0.107
53.1665 1.892 0.104
53.1821 1.886 0.104
53.1977 2.017 0.107
53.2133 2.160 0.111
53.2289 1.840 0.102
53.2445 1.744 0.100
53.2602 2.182 0.112
53.2758 2.086 0.109
53.2914 1.949 0.105
53.3070 2.080 0.109
53.3226 1.852 0.103
53.3382 1.858 0.103
53.3539 1.744 0.100
53.3695 1.915 0.104
53.3851 1.949 0.105
53.4007 1.909 0.104
53.4163 1.744 0.100
53.4319 1.840 0.102
53.4475 1.937 0.105
53.4632 1.823 0.102
53.4788 1.869 0.103
53.4944 1.915 0.104
53.5100 2.051 0.108
53.5256 1.806 0.101
53.5412 1.835 0.102
53.5568 1.943 0.105
53.5725 1.852 0.103
53.5881 1.863 0.103
53.6037 1.892 0.104
53.6193 2.023 0.107
53.6349 1.784 0.101
53.6505 1.915 0.104
53.6662 1.897 0.104
53.6818 2.199 0.112
53.6974 1.989 0.106
53.7130 1.869 0.103
53.7286 1.926 0.105
53.7442 2.051 0.108
53.7598 1.880 0.104
53.7755 1.772 0.100
53.7911 1.766 0.100
53.8067 1.784 0.101
53.8223 1.755 0.100
53.8379 1.818 0.102
53.8535 1.692 0.098
53.8692 1.789 0.101
53.8848 1.818 0.102
53.9004 2.000 0.107
53.9160 2.034 0.108
53.9316 1.937 0.105
53.9472 2.023 0.107
53.9628 1.687 0.098
53.9785 1.829 0.102
53.9941 1.909 0.104
54.0097 1.812 0.102
54.0253 2.023 0.107
54.0409 1.880 0.104
54.0565 1.858 0.103
54.0721 1.903 0.104
54.0878 1.909 0.104
54.1034 1.744 0.100
54.1190 1.840 0.102
54.1346 1.744 0.100
54.1502 1.892 0.104
54.1658 1.983 0.106
54.1815 1.880 0.104
54.1971 1.897 0.104
54.2127 1.846 0.103
54.2283 1.909 0.104
54.2439 1.977 0.106
54.2595 1.909 0.104
54.2751 1.966 0.106
54.2908 1.983 0.106
54.3064 2.023 0.107
54.3220 2.097 0.109
54.3376 2.131 0.110
54.3532 2.023 0.107
54.3688 1.994 0.107
54.3845 1.949 0.105
54.4001 1.920 0.105
54.4157 2.034 0.108
54.4313 2.097 0.109
54.4469 2.319 0.115
54.4625 2.086 0.109
54.4781 1.977 0.106
54.4938 2.074 0.109
54.5094 2.148 0.111
54.5250 2.182 0.112
54.5406 2.034 0.108
54.5562 1.937 0.105
54.5718 2.365 0.116
54.5874 2.091 0.109
54.6031 2.011 0.107
54.6187 2.262 0.114
54.6343 2.296 0.114
54.6499 2.319 0.115
54.6655 2.405 0.117
54.6811 2.547 0.120
54.6968 2.439 0.118
54.7124 2.490 0.119
54.7280 2.462 0.118
54.7436 2.479 0.119
54.7592 2.456 0.118
54.7748 2.684 0.124
54.7904 2.849 0.127
54.8061 2.889 0.128
54.8217 3.259 0.136
54.8373 3.219 0.135
54.8529 3.630 0.144
54.8685 4.239 0.155
54.8841 5.396 0.175
54.8997 6.946 0.199
54.9154 8.849 0.225
54.9310 10.581 0.246
54.9466 12.314 0.265
54.9622 13.151 0.274
54.9778 11.562 0.257
54.9934 8.872 0.225
55.0091 7.311 0.204
55.0247 5.841 0.182
55.0403 5.436 0.176
55.0559 5.898 0.183
55.0715 6.365 0.190
55.0871 7.185 0.202
55.1027 7.818 0.211
55.1184 7.761 0.210
55.1340 6.405 0.191
55.1496 5.077 0.170
55.1652 3.630 0.144
55.1808 3.453 0.140
55.1964 3.071 0.132
55.2121 2.895 0.128
55.2277 2.883 0.128
55.2433 2.963 0.130
55.2589 2.741 0.125
55.2745 2.764 0.125
55.2901 2.980 0.130
55.3057 3.157 0.134
55.3214 3.180 0.135
55.3370 3.578 0.143
55.3526 3.966 0.150
55.3682 4.712 0.164
55.3838 6.086 0.186
55.3994 6.490 0.192
55.4150 7.140 0.202
55.4307 5.983 0.185
55.4463 5.026 0.169
55.4619 3.778 0.147
55.4775 3.271 0.137
55.4931 3.356 0.138
55.5087 3.413 0.139
55.5244 3.869 0.148
55.5400 4.154 0.154
55.5556 4.502 0.160
55.5712 4.262 0.156
55.5868 3.766 0.146
55.6024 3.157 0.134
55.6180 2.838 0.127
55.6337 2.786 0.126
55.6493 2.319 0.115
55.6649 2.388 0.117
55.6805 2.245 0.113
55.6961 2.068 0.109
55.7117 2.137 0.110
55.7273 2.256 0.113
55.7430 2.034 0.108
55.7586 2.063 0.108
55.7742 2.228 0.113
55.7898 2.091 0.109
55.8054 2.046 0.108
55.8210 2.029 0.108
55.8367 2.029 0.108
55.8523 1.875 0.103
55.8679 2.080 0.109
55.8835 1.892 0.104
55.8991 1.766 0.100
55.9147 1.840 0.102
55.9303 1.903 0.104
55.9460 1.983 0.106
55.9616 2.057 0.108
55.9772 1.989 0.106
55.9928 1.983 0.106
56.0084 2.034 0.108
56.0240 1.909 0.104
56.0397 2.103 0.109
56.0553 1.858 0.103
56.0709 2.063 0.108
56.0865 2.057 0.108
56.1021 1.915 0.104
56.1177 1.863 0.103
56.1333 2.068 0.109
56.1490 1.852 0.103
56.1646 2.046 0.108
56.1802 1.972 0.106
56.1958 1.823 0.102
56.2114 1.823 0.102
56.2270 1.903 0.104
56.2426 1.715 0.099
56.2583 2.091 0.109
56.2739 2.097 0.109
56.2895 2.051 0.108
56.3051 2.080 0.109
56.3207 1.943 0.105
56.3363 2.137 0.110
56.3520 2.006 0.107
56.3676 2.302 0.115
56.3832 2.154 0.111
56.3988 1.949 0.105
56.4144 2.262 0.114
56.4300 2.245 0.113
56.4456 2.359 0.116
56.4613 2.211 0.112
56.4769 2.205 0.112
56.4925 2.462 0.118
56.5081 2.262 0.114
56.5237 2.775 0.126
56.5393 2.935 0.129
56.5549 3.202 0.135
56.5706 3.943 0.150
56.5862 4.604 0.162
56.6018 5.624 0.179
56.6174 7.088 0.201
56.6330 8.268 0.217
56.6486 9.094 0.228
56.6643 9.168 0.229
56.6799 7.749 0.210
56.6955 6.205 0.188
56.7111 4.912 0.167
56.7267 4.416 0.159
56.7423 4.063 0.152
56.7579 4.479 0.160
56.7736 4.883 0.167
56.7892 5.436 0.176
56.8048 5.903 0.183
56.8204 5.863 0.183
56.8360 4.752 0.165
56.8516 3.869 0.148
56.8673 3.088 0.133
56.8829 2.832 0.127
56.8985 2.672 0.123
56.9141 2.365 0.116
56.9297 2.279 0.114
56.9453 2.336 0.115
56.9609 2.405 0.117
56.9766 2.239 0.113
56.9922 2.274 0.114
57.0078 2.205 0.112
57.0234 2.279 0.114
57.0390 2.114 0.110
57.0546 2.125 0.110
57.0702 2.063 0.108
57.0859 2.308 0.115
57.1015 2.296 0.114
57.1171 2.285 0.114
57.1327 2.382 0.116
57.1483 2.182 0.112
57.1639 2.496 0.119
57.1796 2.342 0.116
57.1952 2.690 0.124
57.2108 2.798 0.126
57.2264 2.815 0.127
57.2420 2.923 0.129
57.2576 3.117 0.133
57.2732 3.265 0.136
57.2889 3.561 0.142
57.3045 3.635 0.144
57.3201 3.806 0.147
57.3357 4.165 0.154
57.3513 4.576 0.161
57.3669 4.604 0.162
57.3825 5.613 0.179
57.3982 6.627 0.194
57.4138 8.165 0.216
57.4294 10.581 0.246
57.4450 13.829 0.281
57.4606 18.297 0.323
57.4762 20.610 0.343
57.4919 21.687 0.352
57.5075 19.425 0.333
57.5231 16.023 0.302
57.5387 11.476 0.256
57.5543 9.316 0.230
57.5699 8.051 0.214
57.5855 8.587 0.221
57.6012 9.858 0.237
57.6168 10.650 0.246
57.6324 12.450 0.266
57.6480 12.559 0.268
57.6636 11.311 0.254
57.6792 8.769 0.224
57.6949 6.866 0.198
57.7105 5.561 0.178
57.7261 4.365 0.158
57.7417 3.578 0.143
57.7573 3.459 0.140
57.7729 3.111 0.133
57.7885 3.054 0.132
57.8042 2.860 0.128
57.8198 2.900 0.129
57.8354 2.610 0.122
57.8510 2.530 0.120
57.8666 2.359 0.116
57.8822 2.382 0.116
57.8978 2.427 0.118
57.9135 2.558 0.121
57.9291 2.427 0.118
57.9447 2.285 0.114
57.9603 2.274 0.114
57.9759 2.234 0.113
57.9915 2.251 0.113
58.0072 2.279 0.114
58.0228 2.331 0.115
58.0384 2.541 0.120
58.0540 2.524 0.120
58.0696 2.416 0.117
58.0852 2.769 0.126
58.1008 3.066 0.132
58.1165 3.487 0.141
58.1321 4.228 0.155
58.1477 4.228 0.155
58.1633 4.541 0.161
58.1789 4.507 0.160
58.1945 4.114 0.153
58.2101 3.510 0.141
58.2258 3.259 0.136
58.2414 3.088 0.133
58.2570 2.992 0.131
58.2726 2.986 0.130
58.2882 2.980 0.130
58.3038 3.299 0.137
58.3195 3.407 0.139
58.3351 3.430 0.140
58.3507 3.031 0.131
58.3663 2.826 0.127
58.3819 2.393 0.117
58.3975 2.239 0.113
58.4131 2.211 0.112
58.4288 2.154 0.111
58.4444 2.074 0.109
58.4600 1.972 0.106
58.4756 2.108 0.110
58.4912 2.034 0.108
58.5068 2.125 0.110
58.5225 2.006 0.107
58.5381 1.977 0.106
58.5537 1.920 0.105
58.5693 1.875 0.103
58.5849 1.835 0.102
58.6005 1.886 0.104
58.6161 1.972 0.106
58.6318 1.892 0.104
58.6474 1.812 0.102
58.6630 1.823 0.102
58.6786 1.909 0.104
58.6942 1.966 0.106
58.7098 1.937 0.105
58.7254 1.761 0.100
58.7411 1.966 0.106
58.7567 1.698 0.098
58.7723 2.000 0.107
58.7879 1.892 0.104
58.8035 1.840 0.102
58.8191 1.858 0.103
58.8348 1.806 0.101
58.8504 1.818 0.102
58.8660 1.829 0.102
58.8816 1.989 0.106
58.8972 1.715 0.099
58.9128 1.972 0.106
58.9284 1.801 0.101
58.9441 1.972 0.106
58.9597 1.926 0.105
58.9753 1.949 0.105
58.9909 1.823 0.102
59.0065 2.108 0.110
59.0221 2.171 0.111
59.0378 1.886 0.104
59.0534 1.766 0.100
59.0690 1.823 0.102
59.0846 2.074 0.109
59.1002 1.858 0.103
59.1158 1.960 0.106
59.1314 2.057 0.108
59.1471 1.937 0.105
59.1627 1.909 0.104
59.1783 2.029 0.108
59.1939 2.108 0.110
59.2095 1.709 0.099
59.2251 1.977 0.106
59.2407 1.966 0.106
59.2564 2.006 0.107
59.2720 2.000 0.107
59.2876 1.977 0.106
59.3032 2.017 0.107
59.3188 1.869 0.103
59.3344 2.057 0.108
59.3501 1.920 0.105
59.3657 2.256 0.113
59.3813 2.199 0.112
59.3969 1.972 0.106
59.4125 2.148 0.111
59.4281 2.165 0.111
59.4437 2.034 0.108
59.4594 2.114 0.110
59.4750 2.171 0.111
59.4906 2.086 0.109
59.5062 2.103 0.109
59.5218 2.017 0.107
59.5374 2.188 0.112
59.5530 2.086 0.109
59.5687 2.188 0.112
59.5843 2.313 0.115
59.5999 2.125 0.110
59.6155 2.205 0.112
59.6311 2.479 0.119
59.6467 2.331 0.115
59.6624 2.621 0.122
59.6780 2.638 0.123
59.6936 2.803 0.126
59.7092 2.838 0.127
59.7248 2.724 0.125
59.7404 3.271 0.137
59.7560 3.248 0.136
59.7717 3.071 0.132
59.7873 3.259 0.136
59.8029 3.151 0.134
59.8185 3.396 0.139
59.8341 3.282 0.137
59.8497 3.527 0.142
59.8654 4.091 0.153
59.8810 4.080 0.152
59.8966 4.353 0.157
59.9122 5.157 0.171
59.9278 6.371 0.191
59.9434 6.724 0.196
59.9590 8.741 0.223
59.9747 11.402 0.255
59.9903 13.852 0.281
60.0059 19.641 0.335
60.0215 24.747 0.376
60.0371 27.562 0.396
60.0527 27.152 0.393
60.0683 22.622 0.359
60.0840 16.479 0.306
60.0996 12.279 0.265
60.1152 9.732 0.235
60.1308 9.459 0.232
60.1464 9.824 0.237
60.1620 11.516 0.256
60.1777 13.214 0.274
60.1933 15.356 0.296
60.2089 15.761 0.300
60.2245 14.046 0.283
60.2401 11.185 0.252
60.2557 8.023 0.214
60.2713 6.245 0.189
60.2870 4.872 0.167
60.3026 4.217 0.155
60.3182 3.709 0.145
60.3338 3.618 0.144
60.3494 3.197 0.135
60.3650 3.105 0.133
60.3806 3.014 0.131
60.3963 3.043 0.132
60.4119 2.929 0.129
60.4275 3.037 0.132
60.4431 2.735 0.125
60.4587 2.672 0.123
60.4743 2.655 0.123
60.4900 2.764 0.125
60.5056 2.821 0.127
60.5212 2.843 0.127
60.5368 2.866 0.128
60.5524 2.900 0.129
60.5680 2.581 0.121
60.5836 2.906 0.129
60.5993 3.003 0.131
60.6149 3.202 0.135
60.6305 3.464 0.141
60.6461 4.023 0.151
60.6617 4.302 0.157
60.6773 5.242 0.173
60.6930 6.393 0.191
60.7086 8.536 0.221
60.7242 10.747 0.247
60.7398 12.940 0.272
60.7554 14.690 0.289
60.7710 14.217 0.285
60.7866 11.767 0.259
60.8023 8.553 0.221
60.8179 6.872 0.198
60.8335 6.091 0.186
60.8491 5.692 0.180
60.8647 6.137 0.187
60.8803 6.519 0.193
60.8959 7.738 0.210
60.9116 8.029 0.214
60.9272 8.274 0.217
60.9428 8.080 0.215
60.9584 6.450 0.192
60.9740 5.801 0.182
60.9896 5.134 0.171
61.0053 4.872 0.167
61.0209 4.758 0.165
61.0365 5.744 0.181
61.0521 6.553 0.193
61.0677 7.584 0.208
61.0833 8.057 0.214
61.0989 7.413 0.206
61.1146 6.775 0.196
61.1302 5.425 0.176
61.1458 4.804 0.165
61.1614 3.983 0.151
61.1770 3.556 0.142
61.1926 4.262 0.156
61.2082 4.336 0.157
61.2239 4.427 0.159
61.2395 4.809 0.166
61.2551 5.066 0.170
61.2707 4.792 0.165
61.2863 4.519 0.160
61.3019 3.601 0.143
61.3176 3.447 0.140
61.3332 3.288 0.137
61.3488 3.521 0.142
61.3644 3.647 0.144
61.3800 3.869 0.148
61.3956 4.467 0.160
61.4112 5.294 0.174
61.4269 6.125 0.187
61.4425 7.362 0.205
61.4581 8.325 0.218
61.4737 7.636 0.209
61.4893 7.077 0.201
61.5049 5.396 0.175
61.5206 4.655 0.163
61.5362 4.074 0.152
61.5518 3.749 0.146
61.5674 3.920 0.149
61.5830 3.801 0.147
61.5986 4.479 0.160
61.6142 4.690 0.163
61.6299 4.957 0.168
61.6455 4.672 0.163
61.6611 4.462 0.159
61.6767 3.653 0.144
61.6923 2.952 0.130
61.7079 2.758 0.125
61.7235 2.422 0.117
61.7392 2.405 0.117
61.7548 2.268 0.114
61.7704 2.211 0.112
61.7860 2.017 0.107
61.8016 2.057 0.108
61.8172 2.120 0.110
61.8329 1.949 0.105
61.8485 1.954 0.106
61.8641 1.755 0.100
61.8797 2.080 0.109
61.8953 1.915 0.104
61.9109 1.801 0.101
61.9265 1.880 0.104
61.9422 1.835 0.102
61.9578 1.892 0.104
61.9734 1.766 0.100
61.9890 1.749 0.100
62.0046 1.823 0.102
62.0202 1.869 0.103
62.0358 1.869 0.103
62.0515 1.687 0.098
62.0671 1.835 0.102
62.0827 1.858 0.103
62.0983 1.709 0.099
62.1139 1.801 0.101
62.1295 1.709 0.099
62.1452 1.744 0.100
62.1608 1.687 0.098
62.1764 1.573 0.095
62.1920 1.801 0.101
62.2076 1.778 0.101
62.2232 1.681 0.098
62.2388 1.709 0.099
62.2545 1.920 0.105
62.2701 1.755 0.100
62.2857 1.818 0.102
62.3013 1.727 0.099
62.3169 1.647 0.097
62.3325 1.698 0.098
62.3482 1.835 0.102
62.3638 1.858 0.103
62.3794 1.516 0.093
62.3950 1.744 0.100
62.4106 1.744 0.100
62.4262 1.601 0.096
62.4418 1.658 0.097
62.4575 1.766 0.100
62.4731 1.892 0.104
62.4887 1.670 0.098
62.5043 1.932 0.105
62.5199 1.727 0.099
62.5355 1.715 0.099
62.5511 1.573 0.095
62.5668 1.704 0.099
62.5824 1.709 0.099
62.5980 1.795 0.101
62.6136 1.778 0.101
62.6292 1.846 0.103
62.6448 1.823 0.102
62.6605 1.784 0.101
62.6761 1.687 0.098
62.6917 1.823 0.102
62.7073 1.715 0.099
62.7229 1.692 0.098
62.7385 1.858 0.103
62.7541 1.840 0.102
62.7698 1.909 0.104
62.7854 1.801 0.101
62.8010 1.761 0.100
62.8166 1.840 0.102
62.8322 1.749 0.100
62.8478 1.835 0.102
62.8634 1.915 0.104
62.8791 1.875 0.103
62.8947 1.886 0.104
62.9103 2.017 0.107
62.9259 2.091 0.109
62.9415 1.977 0.106
62.9571 1.954 0.106
62.9728 2.160 0.111
62.9884 2.120 0.110
63.0040 2.296 0.114
63.0196 2.410 0.117
63.0352 2.501 0.119
63.0508 2.769 0.126
63.0664 3.282 0.137
63.0821 3.823 0.148
63.0977 4.678 0.163
63.1133 5.237 0.173
63.1289 5.801 0.182
63.1445 6.080 0.186
63.1601 5.829 0.182
63.1758 4.855 0.166
63.1914 3.960 0.150
63.2070 3.242 0.136
63.2226 3.037 0.132
63.2382 3.134 0.134
63.2538 2.832 0.127
63.2694 3.510 0.141
63.2851 3.755 0.146
63.3007 3.829 0.148
63.3163 4.051 0.152
63.3319 3.766 0.146
63.3475 3.265 0.136
63.3631 2.917 0.129
63.3787 2.883 0.128
63.3944 2.245 0.113
63.4100 2.262 0.114
63.4256 2.165 0.111
63.4412 2.006 0.107
63.4568 2.017 0.107
63.4724 2.063 0.108
63.4881 1.818 0.102
63.5037 1.704 0.099
63.5193 1.932 0.105
63.5349 1.926 0.105
63.5505 1.772 0.100
63.5661 1.903 0.104
63.5817 1.966 0.106
63.5974 1.858 0.103
63.6130 1.709 0.099
63.6286 1.926 0.105
63.6442 1.772 0.100
63.6598 1.681 0.098
63.6754 1.732 0.099
63.6910 1.784 0.101
63.7067 1.840 0.102
63.7223 1.709 0.099
63.7379 1.994 0.107
63.7535 1.989 0.106
63.7691 1.795 0.101
63.7847 1.835 0.102
63.8004 1.909 0.104
63.8160 1.994 0.107
63.8316 1.937 0.105
63.8472 1.994 0.107
63.8628 1.772 0.100
63.8784 2.171 0.111
63.8940 1.937 0.105
63.9097 2.029 0.108
63.9253 1.943 0.105
63.9409 2.068 0.109
63.9565 2.103 0.109
63.9721 2.137 0.110
63.9877 2.342 0.116
64.0034 2.251 0.113
64.0190 2.821 0.127
64.0346 3.020 0.131
64.0502 3.396 0.139
64.0658 4.051 0.152
64.0814 4.821 0.166
64.0970 5.869 0.183
64.1127 6.331 0.190
64.1283 6.382 0.191
64.1439 5.493 0.177
64.1595 4.342 0.157
64.1751 3.487 0.141
64.1907 3.140 0.134
64.2063 2.741 0.125
64.2220 2.764 0.125
64.2376 3.077 0.132
64.2532 3.624 0.144
64.2688 3.499 0.141
64.2844 4.325 0.157
64.3000 4.114 0.153
64.3157 3.630 0.144
64.3313 3.396 0.139
64.3469 2.752 0.125
64.3625 2.445 0.118
64.3781 2.302 0.115
64.3937 2.217 0.112
64.4093 2.194 0.112
64.4250 2.388 0.117
64.4406 2.336 0.115
64.4562 2.433 0.118
64.4718 2.479 0.119
64.4874 2.279 0.114
64.5030 2.188 0.112
64.5187 2.342 0.116
64.5343 2.359 0.116
64.5499 2.484 0.119
64.5655 2.712 0.124
64.5811 2.655 0.123
64.5967 3.077 0.132
64.6123 3.100 0.133
64.6280 3.373 0.139
64.6436 4.211 0.155
64.6592 4.912 0.167
64.6748 5.744 0.181
64.6904 7.510 0.207
64.7060 9.812 0.236
64.7216 11.379 0.255
64.7373 13.687 0.279
64.7529 14.177 0.284
64.7685 13.345 0.276
64.7841 10.769 0.248
64.7997 8.587 0.221
64.8153 6.382 0.191
64.8310 5.305 0.174
64.8466 5.333 0.174
64.8622 5.060 0.170
64.8778 6.023 0.185
64.8934 6.804 0.197
64.9090 7.624 0.208
64.9246 7.972 0.213
64.9403 7.824 0.211
64.9559 7.214 0.203
64.9715 5.442 0.176
64.9871 4.473 0.160
65.0027 3.510 0.141
65.0183 3.180 0.135
65.0339 2.581 0.121
65.0496 2.684 0.124
65.0652 2.445 0.118
65.0808 2.331 0.115
65.0964 2.148 0.111
65.1120 2.171 0.111
65.1276 2.205 0.112
65.1433 1.954 0.106
65.1589 1.875 0.103
65.1745 1.972 0.106
65.1901 1.937 0.105
65.2057 1.954 0.106
65.2213 1.954 0.106
65.2369 2.034 0.108
65.2526 1.869 0.103
65.2682 2.000 0.107
65.2838 2.074 0.109
65.2994 2.108 0.110
65.3150 1.915 0.104
65.3306 2.074 0.109
65.3463 2.108 0.110
65.3619 2.086 0.109
65.3775 2.274 0.114
65.3931 2.137 0.110
65.4087 2.160 0.111
65.4243 2.205 0.112
65.4399 2.359 0.116
65.4556 2.256 0.113
65.4712 2.308 0.115
65.4868 2.137 0.110
65.5024 2.353 0.116
65.5180 2.450 0.118
65.5336 2.393 0.117
65.5492 2.900 0.129
65.5649 3.014 0.131
65.5805 3.294 0.137
65.5961 3.664 0.144
65.6117 4.450 0.159
65.6273 5.282 0.173
65.6429 6.473 0.192
65.6586 7.886 0.212
65.6742 9.305 0.230
65.6898 10.382 0.243
65.7054 10.000 0.239
65.7210 9.504 0.233
65.7366 7.852 0.212
65.7522 6.376 0.191
65.7679 5.504 0.177
65.7835 5.043 0.170
65.7991 4.883 0.167
65.8147 5.305 0.174
65.8303 5.920 0.184
65.8459 6.559 0.193
65.8615 7.812 0.211
65.8772 7.373 0.205
65.8928 7.197 0.203
65.9084 5.960 0.184
65.9240 5.237 0.173
65.9396 4.348 0.157
65.9552 3.977 0.151
65.9709 3.276 0.137
65.9865 2.923 0.129
66.0021 2.843 0.127
66.0177 2.781 0.126
66.0333 2.821 0.127
66.0489 2.735 0.125
66.0645 2.860 0.128
66.0802 2.473 0.119
66.0958 2.348 0.116
66.1114 2.262 0.114
66.1270 2.205 0.112
66.1426 2.074 0.109
66.1582 1.989 0.106
66.1739 2.023 0.107
66.1895 2.011 0.107
66.2051 1.994 0.107
66.2207 2.120 0.110
66.2363 1.755 0.100
66.2519 1.903 0.104
66.2675 1.818 0.102
66.2832 1.903 0.104
66.2988 1.875 0.103
66.3144 1.989 0.106
66.3300 1.812 0.102
66.3456 1.806 0.101
66.3612 2.029 0.108
66.3768 1.692 0.098
66.3925 1.818 0.102
66.4081 1.704 0.099
66.4237 1.852 0.103
66.4393 1.994 0.107
66.4549 1.789 0.101
66.4705 1.909 0.104
66.4862 1.846 0.103
66.5018 2.051 0.108
66.5174 1.778 0.101
66.5330 1.932 0.105
66.5486 1.858 0.103
66.5642 1.983 0.106
66.5798 1.863 0.103
66.5955 1.835 0.102
66.6111 1.915 0.104
66.6267 1.915 0.104
66.6423 1.812 0.102
66.6579 2.023 0.107
66.6735 1.869 0.103
66.6891 2.057 0.108
66.7048 1.989 0.106
66.7204 1.949 0.105
66.7360 1.795 0.101
66.7516 1.715 0.099
66.7672 1.784 0.101
66.7828 1.795 0.101
66.7985 1.698 0.098
66.8141 1.943 0.105
66.8297 1.903 0.104
66.8453 1.766 0.100
66.8609 1.903 0.104
66.8765 1.744 0.100
66.8921 1.869 0.103
66.9078 1.840 0.102
66.9234 1.835 0.102
66.9390 1.920 0.105
66.9546 1.909 0.104
66.9702 1.755 0.100
66.9858 1.886 0.104
67.0015 1.943 0.105
67.0171 1.937 0.105
67.0327 1.789 0.101
67.0483 2.068 0.109
67.0639 1.749 0.100
67.0795 2.006 0.107
67.0951 2.046 0.108
67.1108 2.029 0.108
67.1264 1.954 0.106
67.1420 1.937 0.105
67.1576 1.852 0.103
67.1732 1.937 0.105
67.1888 1.989 0.106
67.2044 1.972 0.106
67.2201 1.920 0.105
67.2357 1.806 0.101
67.2513 1.926 0.105
67.2669 2.177 0.111
67.2825 2.006 0.107
67.2981 2.080 0.109
67.3138 2.040 0.108
67.3294 2.114 0.110
67.3450 2.194 0.112
67.3606 2.199 0.112
67.3762 2.205 0.112
67.3918 2.154 0.111
67.4074 2.034 0.108
67.4231 2.251 0.113
67.4387 2.262 0.114
67.4543 2.439 0.118
67.4699 2.331 0.115
67.4855 2.593 0.122
67.5011 2.524 0.120
67.5167 2.638 0.123
67.5324 2.752 0.125
67.5480 2.735 0.125
67.5636 2.707 0.124
67.5792 2.707 0.124
67.5948 2.712 0.124
67.6104 2.992 0.131
67.6261 2.952 0.130
67.6417 3.077 0.132
67.6573 3.180 0.135
67.6729 3.658 0.144
67.6885 4.074 0.152
67.7041 4.445 0.159
67.7197 5.134 0.171
67.7354 6.103 0.186
67.7510 7.316 0.204
67.7666 9.083 0.227
67.7822 11.875 0.260
67.7978 14.240 0.285
67.8134 16.650 0.308
67.8291 17.254 0.314
67.8447 15.807 0.300
67.8603 12.513 0.267
67.8759 9.613 0.234
67.8915 7.476 0.206
67.9071 6.673 0.195
67.9227 6.484 0.192
67.9384 6.969 0.199
67.9540 7.311 0.204
67.9696 8.234 0.217
67.9852 9.231 0.229
68.0008 10.826 0.248
68.0164 11.208 0.253
68.0320 10.878 0.249
68.0477 9.590 0.234
68.0633 7.881 0.212
68.0789 7.311 0.204
68.0945 7.009 0.200
68.1101 6.900 0.198
68.1257 7.522 0.207
68.1414 8.758 0.223
68.1570 10.336 0.243
68.1726 12.701 0.269
68.1882 15.049 0.293
68.2038 19.220 0.331
68.2194 21.055 0.346
68.2350 21.305 0.348
68.2507 19.066 0.330
68.2663 14.507 0.288
68.2819 11.584 0.257
68.2975 10.154 0.241
68.3131 10.194 0.241
68.3287 11.191 0.253
68.3443 12.889 0.271
68.3600 15.317 0.295
68.3756 18.428 0.324
68.3912 21.322 0.349
68.4068 22.046 0.354
68.4224 20.348 0.341
68.4380 16.969 0.311
68.4537 13.015 0.272
68.4693 10.034 0.239
68.4849 7.858 0.212
68.5005 7.094 0.201
68.5161 6.929 0.199
68.5317 6.735 0.196
68.5473 7.128 0.202
68.5630 7.835 0.211
68.5786 8.422 0.219
68.5942 8.222 0.216
68.6098 7.664 0.209
68.6254 6.336 0.190
68.6410 4.729 0.164
68.6567 4.154 0.154
68.6723 4.023 0.151
68.6879 3.128 0.134
68.7035 3.054 0.132
68.7191 2.980 0.130
68.7347 2.798 0.126
68.7503 2.838 0.127
68.7660 2.718 0.124
68.7816 2.467 0.119
68.7972 2.593 0.122
68.8128 2.331 0.115
68.8284 2.285 0.114
68.8440 2.325 0.115
68.8596 2.285 0.114
68.8753 2.171 0.111
68.8909 2.325 0.115
68.9065 2.011 0.107
68.9221 2.103 0.109
68.9377 2.154 0.111
68.9533 2.177 0.111
68.9690 2.091 0.109
68.9846 2.433 0.118
69.0002 2.114 0.110
69.0158 2.040 0.108
69.0314 2.234 0.113
69.0470 2.131 0.110
69.0626 2.108 0.110
69.0783 2.262 0.114
69.0939 2.308 0.115
69.1095 2.057 0.108
69.1251 2.160 0.111
69.1407 2.120 0.110
69.1563 2.285 0.114
69.1720 2.570 0.121
69.1876 2.610 0.122
69.2032 2.695 0.124
69.2188 3.185 0.135
69.2344 3.630 0.144
69.2500 4.034 0.152
69.2656 4.217 0.155
69.2813 4.467 0.160
69.2969 4.331 0.157
69.3125 3.487 0.141
69.3281 2.940 0.129
69.3437 2.672 0.123
69.3593 2.496 0.119
69.3749 2.462 0.118
69.3906 2.142 0.110
69.4062 2.199 0.112
69.4218 2.558 0.121
69.4374 3.162 0.134
69.4530 2.832 0.127
69.4686 3.157 0.134
69.4843 3.014 0.131
69.4999 2.718 0.124
69.5155 2.496 0.119
69.5311 2.319 0.115
69.5467 2.228 0.113
69.5623 1.926 0.105
69.5779 1.926 0.105
69.5936 2.000 0.107
69.6092 1.909 0.104
69.6248 1.932 0.105
69.6404 1.903 0.104
69.6560 1.789 0.101
69.6716 1.823 0.102
69.6872 1.698 0.098
69.7029 1.852 0.103
69.7185 2.006 0.107
69.7341 1.715 0.099
69.7497 1.755 0.100
69.7653 1.652 0.097
69.7809 1.846 0.103
69.7966 1.795 0.101
69.8122 1.840 0.102
69.8278 1.681 0.098
69.8434 1.755 0.100
69.8590 1.647 0.097
69.8746 1.567 0.094
69.8902 1.732 0.099
69.9059 1.732 0.099
69.9215 1.801 0.101
69.9371 1.709 0.099
69.9527 1.778 0.101
69.9683 1.687 0.098
69.9839 1.858 0.103
69.9996 1.715 0.099
70.0152 1.658 0.097
70.0308 1.806 0.101
70.0464 1.595 0.095
70.0620 1.789 0.101
70.0776 1.954 0.106
70.0932 1.897 0.104
70.1089 1.863 0.103
70.1245 1.966 0.106
70.1401 1.977 0.106
70.1557 2.165 0.111
70.1713 2.239 0.113
70.1869 2.148 0.111
70.2025 2.547 0.120
70.2182 2.570 0.121
70.2338 2.895 0.128
70.2494 3.242 0.136
70.2650 3.447 0.140
70.2806 4.336 0.157
70.2962 5.345 0.175
70.3119 5.761 0.181
70.3275 5.732 0.181
70.3431 5.675 0.180
70.3587 5.322 0.174
70.3743 4.251 0.156
70.3899 3.806 0.147
70.4055 3.385 0.139
70.4212 3.100 0.133
70.4368 2.992 0.131
70.4524 2.929 0.129
70.4680 2.940 0.129
70.4836 3.539 0.142
70.4992 3.670 0.145
70.5148 3.727 0.146
70.5305 3.949 0.150
70.5461 3.784 0.147
70.5617 3.419 0.140
70.5773 2.929 0.129
70.5929 2.627 0.122
70.6085 2.274 0.114
70.6242 2.296 0.114
70.6398 2.029 0.108
70.6554 1.704 0.099
70.6710 1.784 0.101
70.6866 1.670 0.098
70.7022 1.784 0.101
70.7178 1.852 0.103
70.7335 1.858 0.103
70.7491 1.550 0.094
70.7647 1.704 0.099
70.7803 1.721 0.099
70.7959 1.806 0.101
70.8115 1.538 0.094
70.8272 1.630 0.096
70.8428 1.482 0.092
70.8584 1.687 0.098
70.8740 1.709 0.099
70.8896 1.652 0.097
70.9052 1.664 0.097
70.9208 1.538 0.094
70.9365 1.652 0.097
70.9521 1.556 0.094
70.9677 1.675 0.098
70.9833 1.556 0.094
70.9989 1.789 0.101
71.0145 1.641 0.097
71.0301 1.590 0.095
71.0458 1.510 0.093
71.0614 1.607 0.096
71.0770 1.675 0.098
71.0926 1.510 0.093
71.1082 1.652 0.097
71.1238 1.447 0.091
71.1395 1.766 0.100
71.1551 1.504 0.093
71.1707 1.613 0.096
71.1863 1.635 0.097
71.2019 1.590 0.095
71.2175 1.442 0.091
71.2331 1.459 0.091
71.2488 1.476 0.092
71.2644 1.681 0.098
71.2800 1.516 0.093
71.2956 1.613 0.096
71.3112 1.635 0.097
71.3268 1.567 0.094
71.3424 1.447 0.091
71.3581 1.504 0.093
71.3737 1.333 0.087
71.3893 1.618 0.096
71.4049 1.590 0.095
71.4205 1.527 0.093
71.4361 1.407 0.090
71.4518 1.504 0.093
71.4674 1.607 0.096
71.4830 1.379 0.089
71.4986 1.595 0.095
71.5142 1.538 0.094
71.5298 1.459 0.091
71.5454 1.493 0.092
71.5611 1.595 0.095
71.5767 1.499 0.092
71.5923 1.595 0.095
71.6079 1.459 0.091
71.6235 1.453 0.091
71.6391 1.613 0.096
71.6548 1.276 0.085
71.6704 1.550 0.094
71.6860 1.459 0.091
71.7016 1.618 0.096
71.7172 1.464 0.091
71.7328 1.613 0.096
71.7484 1.550 0.094
71.7641 1.527 0.093
71.7797 1.573 0.095
71.7953 1.784 0.101
71.8109 1.561 0.094
71.8265 1.595 0.095
71.8421 1.521 0.093
71.8577 1.442 0.091
71.8734 1.430 0.090
71.8890 1.647 0.097
71.9046 1.516 0.093
71.9202 1.635 0.097
71.9358 1.527 0.093
71.9514 1.521 0.093
71.9671 1.681 0.098
71.9827 1.635 0.097
71.9983 1.556 0.094
72.0139 1.236 0.084
72.0295 1.721 0.099
72.0451 1.470 0.092
72.0607 1.630 0.096
72.0764 1.521 0.093
72.0920 1.670 0.098
72.1076 1.556 0.094
72.1232 1.573 0.095
72.1388 1.402 0.089
72.1544 1.413 0.090
72.1700 1.601 0.096
72.1857 1.527 0.093
72.2013 1.464 0.091
72.2169 1.561 0.094
72.2325 1.390 0.089
72.2481 1.613 0.096
72.2637 1.390 0.089
72.2794 1.521 0.093
72.2950 1.538 0.094
72.3106 1.658 0.097
72.3262 1.550 0.094
72.3418 1.738 0.100
72.3574 1.504 0.093
72.3730 1.442 0.091
72.3887 1.453 0.091
72.4043 1.624 0.096
72.4199 1.521 0.093
72.4355 1.601 0.096
72.4511 1.385 0.089
72.4667 1.704 0.099
72.4824 1.709 0.099
72.4980 1.635 0.097
72.5136 1.561 0.094
72.5292 1.670 0.098
72.5448 1.647 0.097
72.5604 1.624 0.096
72.5760 1.635 0.097
72.5917 1.732 0.099
72.6073 1.493 0.092
72.6229 1.761 0.100
72.6385 1.687 0.098
72.6541 1.715 0.099
72.6697 1.761 0.100
72.6853 1.664 0.097
72.7010 1.915 0.104
72.7166 1.926 0.105
72.7322 1.698 0.098
72.7478 1.658 0.097
72.7634 1.801 0.101
72.7790 1.863 0.103
72.7947 1.932 0.105
72.8103 2.023 0.107
72.8259 2.325 0.115
72.8415 2.422 0.117
72.8571 2.684 0.124
72.8727 2.889 0.128
72.8883 3.071 0.132
72.9040 3.972 0.150
72.9196 4.496 0.160
72.9352 5.408 0.176
72.9508 6.490 0.192
72.9664 7.288 0.204
72.9820 7.237 0.203
72.9976 6.712 0.196
73.0133 6.023 0.185
73.0289 5.140 0.171
73.0445 4.239 0.155
73.0601 3.880 0.149
73.0757 3.345 0.138
73.0913 3.071 0.132
73.1070 3.493 0.141
73.1226 3.402 0.139
73.1382 3.709 0.145
73.1538 3.823 0.148
73.1694 4.547 0.161
73.1850 4.638 0.163
73.2006 4.633 0.162
73.2163 4.496 0.160
73.2319 3.539 0.142
73.2475 3.499 0.141
73.2631 2.912 0.129
73.2787 2.519 0.120
73.2943 2.399 0.117
73.3100 2.496 0.119
73.3256 2.439 0.118
73.3412 2.217 0.112
73.3568 2.462 0.118
73.3724 2.160 0.111
73.3880 2.484 0.119
73.4036 2.359 0.116
73.4193 2.467 0.119
73.4349 2.741 0.125
73.4505 2.878 0.128
73.4661 3.692 0.145
73.4817 4.165 0.154
73.4973 4.581 0.162
73.5129 5.567 0.178
73.5286 6.701 0.195
73.5442 7.259 0.203
73.5598 7.088 0.201
73.5754 5.727 0.181
73.5910 4.963 0.168
73.6066 3.744 0.146
73.6223 3.328 0.138
73.6379 3.077 0.132
73.6535 2.832 0.127
73.6691 3.157 0.134
73.6847 3.590 0.143
73.7003 3.692 0.145
73.7159 4.245 0.156
73.7316 4.604 0.162
73.7472 5.584 0.178
73.7628 5.618 0.179
73.7784 4.969 0.168
73.7940 4.245 0.156
73.8096 3.470 0.141
73.8252 3.049 0.132
73.8409 2.718 0.124
73.8565 2.422 0.117
73.8721 2.194 0.112
73.8877 2.165 0.111
73.9033 2.051 0.108
73.9189 2.274 0.114
73.9346 2.519 0.120
73.9502 2.348 0.116
73.9658 2.655 0.123
73.9814 2.177 0.111
73.9970 2.177 0.111
74.0126 2.017 0.107
74.0282 2.091 0.109
74.0439 1.983 0.106
74.0595 1.966 0.106
74.0751 1.590 0.095
74.0907 1.681 0.098
74.1063 1.772 0.100
74.1219 1.835 0.102
74.1376 1.715 0.099
74.1532 1.732 0.099
74.1688 1.698 0.098
74.1844 1.652 0.097
74.2000 1.732 0.099
74.2156 1.590 0.095
74.2312 1.681 0.098
74.2469 1.504 0.093
74.2625 1.590 0.095
74.2781 1.538 0.094
74.2937 1.670 0.098
74.3093 1.453 0.091
74.3249 1.618 0.096
74.3405 1.527 0.093
74.3562 1.607 0.096
74.3718 1.607 0.096
74.3874 1.567 0.094
74.4030 1.607 0.096
74.4186 1.436 0.090
74.4342 1.664 0.097
74.4499 1.470 0.092
74.4655 1.550 0.094
74.4811 1.647 0.097
74.4967 1.675 0.098
74.5123 1.709 0.099
74.5279 1.556 0.094
74.5435 1.630 0.096
74.5592 1.470 0.092
74.5748 1.584 0.095
74.5904 1.538 0.094
74.6060 1.436 0.090
74.6216 1.379 0.089
74.6372 1.516 0.093
74.6529 1.510 0.093
74.6685 1.356 0.088
74.6841 1.652 0.097
74.6997 1.538 0.094
74.7153 1.595 0.095
74.7309 1.687 0.098
74.7465 1.823 0.102
74.7622 1.504 0.093
74.7778 1.504 0.093
74.7934 1.390 0.089
74.8090 1.607 0.096
74.8246 1.402 0.089
74.8402 1.493 0.092
74.8558 1.487 0.092
74.8715 1.447 0.091
74.8871 1.476 0.092
74.9027 1.504 0.093
74.9183 1.590 0.095
74.9339 1.425 0.090
74.9495 1.453 0.091
74.9652 1.533 0.093
74.9808 1.544 0.094
74.9964 1.339 0.087
75.0120 1.635 0.097
75.0276 1.573 0.095
75.0432 1.675 0.098
75.0588 1.533 0.093
75.0745 1.613 0.096
75.0901 1.590 0.095
75.1057 1.544 0.094
75.1213 1.578 0.095
75.1369 1.658 0.097
75.1525 1.618 0.096
75.1681 1.470 0.092
75.1838 1.727 0.099
75.1994 1.778 0.101
75.2150 1.721 0.099
75.2306 1.533 0.093
75.2462 1.573 0.095
75.2618 1.630 0.096
75.2775 1.618 0.096
75.2931 1.727 0.099
75.3087 1.379 0.089
75.3243 1.516 0.093
75.3399 1.652 0.097
75.3555 1.709 0.099
75.3711 1.840 0.102
75.3868 1.812 0.102
75.4024 1.943 0.105
75.4180 1.687 0.098
75.4336 1.880 0.104
75.4492 1.920 0.105
75.4648 1.886 0.104
75.4805 1.801 0.101
75.4961 1.943 0.105
75.5117 2.023 0.107
75.5273 1.989 0.106
75.5429 2.160 0.111
75.5585 2.217 0.112
75.5741 2.194 0.112
75.5898 2.382 0.116
75.6054 2.581 0.121
75.6210 2.878 0.128
75.6366 3.362 0.138
75.6522 3.430 0.140
75.6678 3.972 0.150
75.6834 5.305 0.174
75.6991 5.949 0.184
75.7147 7.277 0.204
75.7303 8.462 0.220
75.7459 8.467 0.220
75.7615 7.419 0.206
75.7771 6.427 0.191
75.7928 4.758 0.165
75.8084 3.903 0.149
75.8240 3.390 0.139
75.8396 3.265 0.136
75.8552 2.644 0.123
75.8708 3.060 0.132
75.8864 3.237 0.136
75.9021 3.487 0.141
75.9177 3.937 0.150
75.9333 4.724 0.164
75.9489 4.889 0.167
75.9645 5.083 0.170
75.9801 4.530 0.161
75.9957 4.160 0.154
76.0114 3.453 0.140
76.0270 3.066 0.132
76.0426 2.450 0.118
76.0582 2.245 0.113
76.0738 2.217 0.112
76.0894 1.886 0.104
76.1051 2.074 0.109
76.1207 1.989 0.106
76.1363 1.966 0.106
76.1519 1.852 0.103
76.1675 1.863 0.103
76.1831 1.823 0.102
76.1987 1.909 0.104
76.2144 1.960 0.106
76.2300 2.097 0.109
76.2456 2.086 0.109
76.2612 2.245 0.113
76.2768 2.245 0.113
76.2924 2.524 0.120
76.3081 2.963 0.130
76.3237 3.202 0.135
76.3393 3.464 0.141
76.3549 4.165 0.154
76.3705 3.960 0.150
76.3861 3.801 0.147
76.4017 3.157 0.134
76.4174 2.803 0.126
76.4330 2.450 0.118
76.4486 2.234 0.113
76.4642 2.006 0.107
76.4798 2.103 0.109
76.4954 2.137 0.110
76.5110 2.319 0.115
76.5267 2.296 0.114
76.5423 2.234 0.113
76.5579 2.718 0.124
76.5735 2.655 0.123
76.5891 2.809 0.127
76.6047 2.752 0.125
76.6204 2.393 0.117
76.6360 2.125 0.110
76.6516 2.137 0.110
76.6672 2.142 0.110
76.6828 1.795 0.101
76.6984 1.812 0.102
76.7140 1.704 0.099
76.7297 1.664 0.097
76.7453 1.789 0.101
76.7609 1.607 0.096
76.7765 1.932 0.105
76.7921 1.652 0.097
76.8077 1.624 0.096
76.8233 1.727 0.099
76.8390 1.402 0.089
76.8546 1.846 0.103
76.8702 1.840 0.102
76.8858 1.761 0.100
76.9014 1.903 0.104
76.9170 1.897 0.104
76.9327 1.869 0.103
76.9483 1.818 0.102
76.9639 1.960 0.106
76.9795 1.869 0.103
76.9951 1.806 0.101
